#Iteration	Date	Time	STSX	STSY	RotationRateX	RotationRateY	FrCntX	FrCntY	TiptiltCmd1	TiptiltCmd2	TiptiltMonitor1	TiptiltMonitor2
1	17/03/2023	15:20:03.414	0.00000E+0	0.00000E+0	-9.52782E+1	-6.59974E-1	0.00000E+0	0.00000E+0	1.98532E+1	1.50840E+1	1.98532E+1	1.50858E+1
2	17/03/2023	15:20:04.888	0.00000E+0	0.00000E+0	1.02579E+2	1.66930E+0	0.00000E+0	0.00000E+0	2.26757E+1	1.23073E+1	2.26771E+1	1.23062E+1
3	17/03/2023	15:20:06.397	0.00000E+0	0.00000E+0	3.57564E+1	4.45532E-2	0.00000E+0	0.00000E+0	2.19536E+1	1.29877E+1	2.19546E+1	1.29893E+1
4	17/03/2023	15:20:07.892	0.00000E+0	0.00000E+0	-1.46825E+2	-3.73774E+0	0.00000E+0	0.00000E+0	1.91613E+1	1.57716E+1	1.91600E+1	1.57718E+1
5	17/03/2023	15:20:09.386	0.00000E+0	0.00000E+0	1.03889E+2	-9.57552E-1	0.00000E+0	0.00000E+0	2.26750E+1	1.22904E+1	2.26743E+1	1.22913E+1
6	17/03/2023	15:20:10.901	0.00000E+0	0.00000E+0	-1.36442E+2	-4.13598E-2	0.00000E+0	0.00000E+0	1.95281E+1	1.54310E+1	1.95292E+1	1.54321E+1
7	17/03/2023	15:20:12.411	0.00000E+0	0.00000E+0	1.62564E+2	4.03897E+0	0.00000E+0	0.00000E+0	2.34009E+1	1.15829E+1	2.33993E+1	1.15835E+1
8	17/03/2023	15:20:13.936	0.00000E+0	0.00000E+0	1.42214E+2	-1.44971E+0	0.00000E+0	0.00000E+0	2.32449E+1	1.17722E+1	2.32435E+1	1.17709E+1
9	17/03/2023	15:20:15.436	0.00000E+0	0.00000E+0	-1.52978E+2	8.48397E-1	0.00000E+0	0.00000E+0	1.90938E+1	1.57872E+1	1.90973E+1	1.57891E+1
10	17/03/2023	15:20:16.946	0.00000E+0	0.00000E+0	-1.10251E+2	1.93586E+0	0.00000E+0	0.00000E+0	1.96102E+1	1.53485E+1	1.96113E+1	1.53471E+1
11	17/03/2023	15:20:18.448	0.00000E+0	0.00000E+0	1.64312E+2	-5.47725E-2	0.00000E+0	0.00000E+0	2.35860E+1	1.13794E+1	2.35852E+1	1.13794E+1
12	17/03/2023	15:20:19.950	0.00000E+0	0.00000E+0	-1.39459E+2	-1.70400E+0	0.00000E+0	0.00000E+0	1.94571E+1	1.54770E+1	1.94583E+1	1.54757E+1
13	17/03/2023	15:20:21.455	0.00000E+0	0.00000E+0	-1.43765E+2	-1.60492E+0	0.00000E+0	0.00000E+0	1.91291E+1	1.57052E+1	1.91290E+1	1.57043E+1
14	17/03/2023	15:20:22.953	0.00000E+0	0.00000E+0	1.91507E+2	8.83562E-1	0.00000E+0	0.00000E+0	2.39226E+1	1.10389E+1	2.39240E+1	1.10355E+1
15	17/03/2023	15:20:24.487	0.00000E+0	0.00000E+0	1.27787E+2	2.66622E+0	0.00000E+0	0.00000E+0	2.30657E+1	1.18819E+1	2.30659E+1	1.18811E+1
16	17/03/2023	15:20:26.025	0.00000E+0	0.00000E+0	-1.62701E+2	-1.24587E+0	0.00000E+0	0.00000E+0	1.89275E+1	1.59557E+1	1.89268E+1	1.59555E+1
17	17/03/2023	15:20:27.548	0.00000E+0	0.00000E+0	-2.55449E+1	-9.33636E-1	0.00000E+0	0.00000E+0	2.05438E+1	1.44835E+1	2.05427E+1	1.44820E+1
18	17/03/2023	15:20:29.034	0.00000E+0	0.00000E+0	1.51364E+2	7.92056E-1	0.00000E+0	0.00000E+0	2.33491E+1	1.16239E+1	2.33479E+1	1.16257E+1
19	17/03/2023	15:20:30.558	0.00000E+0	0.00000E+0	-1.38630E+2	-4.16987E-1	0.00000E+0	0.00000E+0	1.94608E+1	1.54828E+1	1.94589E+1	1.54829E+1
20	17/03/2023	15:20:32.067	0.00000E+0	0.00000E+0	-1.59647E+2	-1.06578E+0	0.00000E+0	0.00000E+0	1.89676E+1	1.59942E+1	1.89691E+1	1.59969E+1
21	17/03/2023	15:20:33.565	0.00000E+0	0.00000E+0	1.93640E+2	-5.34900E-1	0.00000E+0	0.00000E+0	2.40566E+1	1.08613E+1	2.40559E+1	1.08619E+1
22	17/03/2023	15:20:35.064	0.00000E+0	0.00000E+0	1.18822E+2	-4.46577E-1	0.00000E+0	0.00000E+0	2.30462E+1	1.19415E+1	2.30445E+1	1.19409E+1
23	17/03/2023	15:20:36.570	0.00000E+0	0.00000E+0	-1.68652E+2	-3.57471E+0	0.00000E+0	0.00000E+0	1.88134E+1	1.60800E+1	1.88116E+1	1.60805E+1
24	17/03/2023	15:20:38.067	0.00000E+0	0.00000E+0	5.26065E+1	8.85373E-1	0.00000E+0	0.00000E+0	2.16593E+1	1.32832E+1	2.16615E+1	1.32823E+1
25	17/03/2023	15:20:39.573	0.00000E+0	0.00000E+0	1.51788E+2	2.54133E+0	0.00000E+0	0.00000E+0	2.33652E+1	1.15853E+1	2.33646E+1	1.15863E+1
26	17/03/2023	15:20:41.076	0.00000E+0	0.00000E+0	-1.69813E+2	4.97919E-1	0.00000E+0	0.00000E+0	1.88197E+1	1.60694E+1	1.88198E+1	1.60704E+1
27	17/03/2023	15:20:42.567	0.00000E+0	0.00000E+0	-1.35765E+2	-1.92445E-1	0.00000E+0	0.00000E+0	1.92414E+1	1.56453E+1	1.92415E+1	1.56438E+1
28	17/03/2023	15:20:44.072	0.00000E+0	0.00000E+0	1.89263E+2	1.01992E+0	0.00000E+0	0.00000E+0	2.38888E+1	1.10796E+1	2.38879E+1	1.10796E+1
29	17/03/2023	15:20:45.581	0.00000E+0	0.00000E+0	1.37030E+2	-1.65877E-1	0.00000E+0	0.00000E+0	2.32444E+1	1.17491E+1	2.32445E+1	1.17487E+1
30	17/03/2023	15:20:47.073	0.00000E+0	0.00000E+0	-1.54011E+2	-2.03900E+0	0.00000E+0	0.00000E+0	1.90902E+1	1.58504E+1	1.90916E+1	1.58517E+1
31	17/03/2023	15:20:48.584	0.00000E+0	0.00000E+0	-9.64862E+1	-1.63320E-1	0.00000E+0	0.00000E+0	1.96424E+1	1.52796E+1	1.96431E+1	1.52772E+1
32	17/03/2023	15:20:50.146	0.00000E+0	0.00000E+0	1.63952E+2	-9.68626E-2	0.00000E+0	0.00000E+0	2.36410E+1	1.13822E+1	2.36415E+1	1.13803E+1
33	17/03/2023	15:20:51.678	0.00000E+0	0.00000E+0	-1.22653E+2	1.52568E+0	0.00000E+0	0.00000E+0	1.97921E+1	1.52029E+1	1.97938E+1	1.52024E+1
34	17/03/2023	15:20:53.196	0.00000E+0	0.00000E+0	-1.55687E+2	-1.36230E+0	0.00000E+0	0.00000E+0	1.89893E+1	1.59582E+1	1.89901E+1	1.59592E+1
35	17/03/2023	15:20:54.706	0.00000E+0	0.00000E+0	1.63865E+2	5.25642E-1	0.00000E+0	0.00000E+0	2.36999E+1	1.13275E+1	2.36960E+1	1.13253E+1
36	17/03/2023	15:20:56.206	0.00000E+0	0.00000E+0	1.34018E+2	9.27244E-1	0.00000E+0	0.00000E+0	2.31890E+1	1.17505E+1	2.31898E+1	1.17515E+1
37	17/03/2023	15:20:57.707	0.00000E+0	0.00000E+0	-1.47910E+2	-1.78151E+0	0.00000E+0	0.00000E+0	1.91500E+1	1.57793E+1	1.91482E+1	1.57762E+1
38	17/03/2023	15:20:59.210	0.00000E+0	0.00000E+0	-1.05906E+2	-1.78992E+0	0.00000E+0	0.00000E+0	1.96429E+1	1.52333E+1	1.96416E+1	1.52337E+1
39	17/03/2023	15:21:00.715	0.00000E+0	0.00000E+0	1.56528E+2	1.15480E+0	0.00000E+0	0.00000E+0	2.35019E+1	1.14877E+1	2.35022E+1	1.14869E+1
40	17/03/2023	15:21:02.216	0.00000E+0	0.00000E+0	-1.33280E+2	-7.74097E-1	0.00000E+0	0.00000E+0	1.95937E+1	1.53202E+1	1.95919E+1	1.53192E+1
41	17/03/2023	15:21:03.720	0.00000E+0	0.00000E+0	-1.31441E+2	-3.10247E+0	0.00000E+0	0.00000E+0	1.94129E+1	1.55390E+1	1.94112E+1	1.55381E+1
42	17/03/2023	15:21:05.211	0.00000E+0	0.00000E+0	1.75082E+2	2.21749E+0	0.00000E+0	0.00000E+0	2.37968E+1	1.11786E+1	2.37963E+1	1.11819E+1
43	17/03/2023	15:21:06.730	0.00000E+0	0.00000E+0	1.40368E+2	-4.19382E-1	0.00000E+0	0.00000E+0	2.33137E+1	1.16346E+1	2.33170E+1	1.16329E+1
44	17/03/2023	15:21:08.231	0.00000E+0	0.00000E+0	-1.68784E+2	3.57890E-1	0.00000E+0	0.00000E+0	1.88658E+1	1.60813E+1	1.88651E+1	1.60807E+1
45	17/03/2023	15:21:09.729	0.00000E+0	0.00000E+0	-8.58901E+1	8.53703E-1	0.00000E+0	0.00000E+0	1.97133E+1	1.51288E+1	1.97100E+1	1.51270E+1
46	17/03/2023	15:21:11.245	0.00000E+0	0.00000E+0	2.03807E+2	-2.02623E-1	0.00000E+0	0.00000E+0	2.41441E+1	1.08430E+1	2.41433E+1	1.08445E+1
47	17/03/2023	15:21:12.745	0.00000E+0	0.00000E+0	-1.82573E+2	-1.77254E+0	0.00000E+0	0.00000E+0	1.88593E+1	1.60732E+1	1.88582E+1	1.60757E+1
48	17/03/2023	15:21:14.304	0.00000E+0	0.00000E+0	-1.76317E+2	-9.19115E-1	0.00000E+0	0.00000E+0	1.87060E+1	1.62046E+1	1.87064E+1	1.62057E+1
49	17/03/2023	15:21:15.811	0.00000E+0	0.00000E+0	2.14745E+2	-8.71787E-1	0.00000E+0	0.00000E+0	2.43308E+1	1.06529E+1	2.43321E+1	1.06502E+1
50	17/03/2023	15:21:17.313	0.00000E+0	0.00000E+0	1.26559E+2	3.13695E+0	0.00000E+0	0.00000E+0	2.33225E+1	1.16465E+1	2.33233E+1	1.16445E+1
51	17/03/2023	15:21:18.815	0.00000E+0	0.00000E+0	-1.92587E+2	-2.96942E-1	0.00000E+0	0.00000E+0	1.84745E+1	1.64155E+1	1.84749E+1	1.64156E+1
52	17/03/2023	15:21:20.328	0.00000E+0	0.00000E+0	2.20362E+2	5.03340E-3	0.00000E+0	0.00000E+0	2.43744E+1	1.05970E+1	2.43737E+1	1.05990E+1
53	17/03/2023	15:21:21.850	0.00000E+0	0.00000E+0	-2.05641E+2	-1.18358E+0	0.00000E+0	0.00000E+0	1.82871E+1	1.66237E+1	1.82875E+1	1.66248E+1
54	17/03/2023	15:21:23.334	0.00000E+0	0.00000E+0	-1.48017E+2	-3.75649E+0	0.00000E+0	0.00000E+0	1.90813E+1	1.58601E+1	1.90819E+1	1.58577E+1
55	17/03/2023	15:21:24.855	0.00000E+0	0.00000E+0	2.24115E+2	-7.02742E-1	0.00000E+0	0.00000E+0	2.44459E+1	1.05785E+1	2.44438E+1	1.05799E+1
56	17/03/2023	15:21:26.333	0.00000E+0	0.00000E+0	-1.93578E+2	-5.13932E-1	0.00000E+0	0.00000E+0	1.84627E+1	1.64558E+1	1.84636E+1	1.64556E+1
57	17/03/2023	15:21:27.864	0.00000E+0	0.00000E+0	1.84093E+2	1.38713E+0	0.00000E+0	0.00000E+0	2.34494E+1	1.15255E+1	2.34498E+1	1.15252E+1
58	17/03/2023	15:21:29.347	0.00000E+0	0.00000E+0	1.66646E+2	3.67274E+0	0.00000E+0	0.00000E+0	2.39508E+1	1.09806E+1	2.39516E+1	1.09801E+1
59	17/03/2023	15:21:30.855	0.00000E+0	0.00000E+0	-2.01282E+2	-2.16528E-1	0.00000E+0	0.00000E+0	1.83250E+1	1.65793E+1	1.83236E+1	1.65777E+1
60	17/03/2023	15:21:32.398	0.00000E+0	0.00000E+0	2.06572E+2	1.53919E+0	0.00000E+0	0.00000E+0	2.41295E+1	1.08009E+1	2.41291E+1	1.08004E+1
61	17/03/2023	15:21:33.963	0.00000E+0	0.00000E+0	-1.91273E+2	-3.00069E+0	0.00000E+0	0.00000E+0	1.85138E+1	1.64363E+1	1.85138E+1	1.64342E+1
62	17/03/2023	15:21:35.469	0.00000E+0	0.00000E+0	-1.02952E+2	2.20864E-1	0.00000E+0	0.00000E+0	1.92790E+1	1.55231E+1	1.92799E+1	1.55243E+1
63	17/03/2023	15:21:36.969	0.00000E+0	0.00000E+0	2.19693E+2	-2.42127E+0	0.00000E+0	0.00000E+0	2.43249E+1	1.06040E+1	2.43247E+1	1.06021E+1
64	17/03/2023	15:21:38.472	0.00000E+0	0.00000E+0	-2.08544E+2	-4.93923E+0	0.00000E+0	0.00000E+0	1.83069E+1	1.65979E+1	1.83078E+1	1.65979E+1
65	17/03/2023	15:21:39.977	0.00000E+0	0.00000E+0	2.02548E+2	2.33796E+0	0.00000E+0	0.00000E+0	2.39784E+1	1.09395E+1	2.39803E+1	1.09391E+1
66	17/03/2023	15:21:41.488	0.00000E+0	0.00000E+0	1.95084E+2	2.40578E+0	0.00000E+0	0.00000E+0	2.40705E+1	1.09687E+1	2.40710E+1	1.09691E+1
67	17/03/2023	15:21:42.987	0.00000E+0	0.00000E+0	-2.25494E+2	-5.72001E+0	0.00000E+0	0.00000E+0	1.80185E+1	1.67905E+1	1.80175E+1	1.67892E+1
68	17/03/2023	15:21:44.487	0.00000E+0	0.00000E+0	2.21532E+2	2.08942E+0	0.00000E+0	0.00000E+0	2.44704E+1	1.05691E+1	2.44699E+1	1.05699E+1
69	17/03/2023	15:21:45.993	0.00000E+0	0.00000E+0	-1.38963E+2	-2.81989E+0	0.00000E+0	0.00000E+0	1.95537E+1	1.53668E+1	1.95549E+1	1.53656E+1
70	17/03/2023	15:21:47.487	0.00000E+0	0.00000E+0	-1.66855E+2	-1.01773E+0	0.00000E+0	0.00000E+0	1.89406E+1	1.59879E+1	1.89396E+1	1.59882E+1
71	17/03/2023	15:21:48.999	0.00000E+0	0.00000E+0	2.10264E+2	3.18991E+0	0.00000E+0	0.00000E+0	2.42085E+1	1.08034E+1	2.42107E+1	1.08036E+1
72	17/03/2023	15:21:50.501	0.00000E+0	0.00000E+0	-2.04003E+2	-1.97916E+0	0.00000E+0	0.00000E+0	1.83293E+1	1.65756E+1	1.83280E+1	1.65771E+1
73	17/03/2023	15:21:52.006	0.00000E+0	0.00000E+0	-7.40697E+1	4.28276E+0	0.00000E+0	0.00000E+0	1.95947E+1	1.53677E+1	1.95938E+1	1.53676E+1
74	17/03/2023	15:21:53.506	0.00000E+0	0.00000E+0	2.21106E+2	4.13288E+0	0.00000E+0	0.00000E+0	2.43063E+1	1.05679E+1	2.43077E+1	1.05665E+1
75	17/03/2023	15:21:55.009	0.00000E+0	0.00000E+0	-2.22935E+2	-2.50776E+0	0.00000E+0	0.00000E+0	1.80965E+1	1.68017E+1	1.80955E+1	1.68012E+1
76	17/03/2023	15:21:56.500	0.00000E+0	0.00000E+0	2.12812E+2	4.02112E+0	0.00000E+0	0.00000E+0	2.42420E+1	1.07982E+1	2.42433E+1	1.07983E+1
77	17/03/2023	15:21:58.018	0.00000E+0	0.00000E+0	4.87856E+1	-3.03479E+0	0.00000E+0	0.00000E+0	2.25617E+1	1.23516E+1	2.25633E+1	1.23507E+1
78	17/03/2023	15:21:59.503	0.00000E+0	0.00000E+0	-1.83259E+2	4.30988E-1	0.00000E+0	0.00000E+0	1.86425E+1	1.63204E+1	1.86433E+1	1.63202E+1
79	17/03/2023	15:22:01.010	0.00000E+0	0.00000E+0	1.79134E+2	8.15251E-1	0.00000E+0	0.00000E+0	2.37706E+1	1.12333E+1	2.37709E+1	1.12346E+1
80	17/03/2023	15:22:02.526	0.00000E+0	0.00000E+0	-1.97774E+2	1.46524E+0	0.00000E+0	0.00000E+0	1.84883E+1	1.64208E+1	1.84894E+1	1.64198E+1
81	17/03/2023	15:22:04.011	0.00000E+0	0.00000E+0	-8.95151E+0	9.47194E-3	0.00000E+0	0.00000E+0	2.03947E+1	1.45140E+1	2.03961E+1	1.45118E+1
82	17/03/2023	15:22:05.603	0.00000E+0	0.00000E+0	2.12184E+2	1.32289E+0	0.00000E+0	0.00000E+0	2.42513E+1	1.06876E+1	2.42512E+1	1.06846E+1
83	17/03/2023	15:22:07.113	0.00000E+0	0.00000E+0	-2.24809E+2	-2.68966E+0	0.00000E+0	0.00000E+0	1.80444E+1	1.68576E+1	1.80451E+1	1.68562E+1
84	17/03/2023	15:22:08.618	0.00000E+0	0.00000E+0	2.19937E+2	8.75082E-1	0.00000E+0	0.00000E+0	2.43879E+1	1.06326E+1	2.43880E+1	1.06330E+1
85	17/03/2023	15:22:10.134	0.00000E+0	0.00000E+0	-2.24798E+2	2.40971E+0	0.00000E+0	0.00000E+0	1.80214E+1	1.68504E+1	1.80216E+1	1.68479E+1
86	17/03/2023	15:22:11.626	0.00000E+0	0.00000E+0	8.17421E+1	7.18097E-1	0.00000E+0	0.00000E+0	2.20357E+1	1.29624E+1	2.20377E+1	1.29604E+1
87	17/03/2023	15:22:13.144	0.00000E+0	0.00000E+0	1.48888E+2	-1.10645E+0	0.00000E+0	0.00000E+0	2.38309E+1	1.10914E+1	2.38296E+1	1.10921E+1
88	17/03/2023	15:22:14.638	0.00000E+0	0.00000E+0	-1.98040E+2	-8.12615E-1	0.00000E+0	0.00000E+0	1.83725E+1	1.65116E+1	1.83722E+1	1.65126E+1
89	17/03/2023	15:22:16.152	0.00000E+0	0.00000E+0	2.35497E+2	4.00664E+0	0.00000E+0	0.00000E+0	2.46091E+1	1.03294E+1	2.46106E+1	1.03300E+1
90	17/03/2023	15:22:17.657	0.00000E+0	0.00000E+0	-2.26921E+2	-7.24800E-1	0.00000E+0	0.00000E+0	1.80546E+1	1.68434E+1	1.80559E+1	1.68450E+1
91	17/03/2023	15:22:19.157	0.00000E+0	0.00000E+0	1.92066E+2	4.10981E+0	0.00000E+0	0.00000E+0	2.37065E+1	1.13120E+1	2.37061E+1	1.13090E+1
92	17/03/2023	15:22:20.679	0.00000E+0	0.00000E+0	1.09911E+2	-1.69865E+0	0.00000E+0	0.00000E+0	2.32996E+1	1.17000E+1	2.32988E+1	1.17028E+1
93	17/03/2023	15:22:22.168	0.00000E+0	0.00000E+0	-2.17387E+2	-1.26260E+0	0.00000E+0	0.00000E+0	1.81486E+1	1.67259E+1	1.81477E+1	1.67293E+1
94	17/03/2023	15:22:23.671	0.00000E+0	0.00000E+0	2.33003E+2	2.10586E+0	0.00000E+0	0.00000E+0	2.46048E+1	1.03944E+1	2.46022E+1	1.03951E+1
95	17/03/2023	15:22:25.255	0.00000E+0	0.00000E+0	-2.42788E+2	9.13031E-1	0.00000E+0	0.00000E+0	1.78328E+1	1.71030E+1	1.78342E+1	1.71031E+1
96	17/03/2023	15:22:26.760	0.00000E+0	0.00000E+0	2.15682E+2	1.35832E+0	0.00000E+0	0.00000E+0	2.42590E+1	1.08124E+1	2.42620E+1	1.08125E+1
97	17/03/2023	15:22:28.263	0.00000E+0	0.00000E+0	7.89856E+1	1.09383E+0	0.00000E+0	0.00000E+0	2.28535E+1	1.21981E+1	2.28548E+1	1.21989E+1
98	17/03/2023	15:22:29.844	0.00000E+0	0.00000E+0	-2.19939E+2	-5.59633E-1	0.00000E+0	0.00000E+0	1.80999E+1	1.68096E+1	1.81002E+1	1.68106E+1
99	17/03/2023	15:22:31.331	0.00000E+0	0.00000E+0	2.22846E+2	-3.80766E-1	0.00000E+0	0.00000E+0	2.43858E+1	1.05663E+1	2.43840E+1	1.05664E+1
100	17/03/2023	15:22:32.854	0.00000E+0	0.00000E+0	-2.37869E+2	-4.83191E+0	0.00000E+0	0.00000E+0	1.81775E+1	1.67002E+1	1.81758E+1	1.67016E+1
101	17/03/2023	15:22:34.412	0.00000E+0	0.00000E+0	-3.72390E+1	-9.77372E-1	0.00000E+0	0.00000E+0	2.01944E+1	1.47427E+1	2.01959E+1	1.47437E+1
102	17/03/2023	15:22:35.918	0.00000E+0	0.00000E+0	1.95557E+2	1.41407E+0	0.00000E+0	0.00000E+0	2.40272E+1	1.09628E+1	2.40259E+1	1.09644E+1
103	17/03/2023	15:22:37.435	0.00000E+0	0.00000E+0	-2.18395E+2	-3.26459E-1	0.00000E+0	0.00000E+0	1.81043E+1	1.67650E+1	1.81047E+1	1.67671E+1
104	17/03/2023	15:22:38.937	0.00000E+0	0.00000E+0	1.66372E+2	1.44902E+1	0.00000E+0	0.00000E+0	2.35800E+1	1.13736E+1	2.35813E+1	1.13709E+1
105	17/03/2023	15:22:40.457	0.00000E+0	0.00000E+0	1.61142E+2	4.34762E+0	0.00000E+0	0.00000E+0	2.37145E+1	1.13434E+1	2.37172E+1	1.13439E+1
106	17/03/2023	15:22:41.937	0.00000E+0	0.00000E+0	-2.09879E+2	-1.22810E+0	0.00000E+0	0.00000E+0	1.82506E+1	1.66879E+1	1.82502E+1	1.66873E+1
107	17/03/2023	15:22:43.462	0.00000E+0	0.00000E+0	2.07498E+2	2.27315E+0	0.00000E+0	0.00000E+0	2.41853E+1	1.07961E+1	2.41854E+1	1.07961E+1
108	17/03/2023	15:22:44.961	0.00000E+0	0.00000E+0	-8.51511E+1	-2.32135E+0	0.00000E+0	0.00000E+0	2.05544E+1	1.44212E+1	2.05580E+1	1.44186E+1
109	17/03/2023	15:22:46.455	0.00000E+0	0.00000E+0	-1.88482E+2	-3.72203E+0	0.00000E+0	0.00000E+0	1.85382E+1	1.64011E+1	1.85394E+1	1.64020E+1
110	17/03/2023	15:22:47.951	0.00000E+0	0.00000E+0	2.19202E+2	1.00099E-1	0.00000E+0	0.00000E+0	2.43860E+1	1.05396E+1	2.43839E+1	1.05382E+1
111	17/03/2023	15:22:49.481	0.00000E+0	0.00000E+0	-2.32618E+2	-7.04888E-1	0.00000E+0	0.00000E+0	1.79083E+1	1.70110E+1	1.79081E+1	1.70102E+1
112	17/03/2023	15:22:50.982	0.00000E+0	0.00000E+0	7.98167E+1	1.55362E+0	0.00000E+0	0.00000E+0	2.20147E+1	1.30437E+1	2.20161E+1	1.30427E+1
113	17/03/2023	15:22:52.461	0.00000E+0	0.00000E+0	2.01534E+2	3.26839E+0	0.00000E+0	0.00000E+0	2.42851E+1	1.07214E+1	2.42860E+1	1.07219E+1
114	17/03/2023	15:22:53.988	0.00000E+0	0.00000E+0	-2.11495E+2	1.84037E+0	0.00000E+0	0.00000E+0	1.81994E+1	1.67049E+1	1.81983E+1	1.67033E+1
115	17/03/2023	15:22:55.577	0.00000E+0	0.00000E+0	2.52713E+2	2.23894E+0	0.00000E+0	0.00000E+0	2.49189E+1	1.01436E+1	2.49197E+1	1.01423E+1
116	17/03/2023	15:22:57.082	0.00000E+0	0.00000E+0	-2.57853E+2	-1.80815E+0	0.00000E+0	0.00000E+0	1.75957E+1	1.73335E+1	1.75954E+1	1.73358E+1
117	17/03/2023	15:22:58.666	0.00000E+0	0.00000E+0	2.22002E+2	1.25836E-1	0.00000E+0	0.00000E+0	2.45046E+1	1.05885E+1	2.45035E+1	1.05884E+1
118	17/03/2023	15:23:00.174	0.00000E+0	0.00000E+0	-1.97250E+2	-2.07893E+0	0.00000E+0	0.00000E+0	1.90036E+1	1.58865E+1	1.90006E+1	1.58844E+1
119	17/03/2023	15:23:01.678	0.00000E+0	0.00000E+0	-1.39236E+2	-3.35221E+0	0.00000E+0	0.00000E+0	1.89099E+1	1.59646E+1	1.89064E+1	1.59666E+1
120	17/03/2023	15:23:03.182	0.00000E+0	0.00000E+0	2.46792E+2	4.72652E+0	0.00000E+0	0.00000E+0	2.48237E+1	1.01866E+1	2.48242E+1	1.01889E+1
121	17/03/2023	15:23:04.684	0.00000E+0	0.00000E+0	-2.39709E+2	2.70819E+0	0.00000E+0	0.00000E+0	1.78009E+1	1.71596E+1	1.78019E+1	1.71593E+1
122	17/03/2023	15:23:06.197	0.00000E+0	0.00000E+0	2.59591E+2	1.82305E+0	0.00000E+0	0.00000E+0	2.49965E+1	1.00529E+1	2.49981E+1	1.00516E+1
123	17/03/2023	15:23:07.696	0.00000E+0	0.00000E+0	-2.65771E+2	-2.73745E+0	0.00000E+0	0.00000E+0	1.75251E+1	1.73377E+1	1.75239E+1	1.73372E+1
124	17/03/2023	15:23:09.195	0.00000E+0	0.00000E+0	4.71307E+1	-1.37908E+0	0.00000E+0	0.00000E+0	2.13942E+1	1.35661E+1	2.13936E+1	1.35653E+1
125	17/03/2023	15:23:10.700	0.00000E+0	0.00000E+0	2.05391E+2	-1.12301E+0	0.00000E+0	0.00000E+0	2.42844E+1	1.07463E+1	2.42833E+1	1.07462E+1
126	17/03/2023	15:23:12.207	0.00000E+0	0.00000E+0	-2.37608E+2	-2.15526E+0	0.00000E+0	0.00000E+0	1.78138E+1	1.70721E+1	1.78151E+1	1.70737E+1
127	17/03/2023	15:23:13.697	0.00000E+0	0.00000E+0	2.49724E+2	-4.74216E-2	0.00000E+0	0.00000E+0	2.47859E+1	1.02171E+1	2.47854E+1	1.02163E+1
128	17/03/2023	15:23:15.238	0.00000E+0	0.00000E+0	-2.58717E+2	-2.00221E+0	0.00000E+0	0.00000E+0	1.75861E+1	1.73312E+1	1.75851E+1	1.73282E+1
129	17/03/2023	15:23:16.770	0.00000E+0	0.00000E+0	2.73121E+2	5.14297E+0	0.00000E+0	0.00000E+0	2.51272E+1	9.86518E+0	2.51270E+1	9.86518E+0
130	17/03/2023	15:23:18.280	0.00000E+0	0.00000E+0	-2.62882E+2	-4.34082E+0	0.00000E+0	0.00000E+0	1.74628E+1	1.73311E+1	1.74611E+1	1.73301E+1
131	17/03/2023	15:23:19.807	0.00000E+0	0.00000E+0	1.01276E+2	1.42885E+0	0.00000E+0	0.00000E+0	2.21460E+1	1.28448E+1	2.21459E+1	1.28441E+1
132	17/03/2023	15:23:21.286	0.00000E+0	0.00000E+0	2.16118E+2	4.36933E-1	0.00000E+0	0.00000E+0	2.44392E+1	1.06653E+1	2.44383E+1	1.06687E+1
133	17/03/2023	15:23:22.810	0.00000E+0	0.00000E+0	-2.11949E+2	-9.14369E-1	0.00000E+0	0.00000E+0	1.81629E+1	1.67419E+1	1.81637E+1	1.67422E+1
134	17/03/2023	15:23:24.286	0.00000E+0	0.00000E+0	2.73270E+2	2.47330E+0	0.00000E+0	0.00000E+0	2.51896E+1	9.84498E+0	2.51907E+1	9.84383E+0
135	17/03/2023	15:23:25.814	0.00000E+0	0.00000E+0	-2.28027E+2	-1.76376E+0	0.00000E+0	0.00000E+0	1.79862E+1	1.69592E+1	1.79879E+1	1.69577E+1
136	17/03/2023	15:23:27.303	0.00000E+0	0.00000E+0	2.79641E+2	6.38215E-1	0.00000E+0	0.00000E+0	2.51160E+1	9.83969E+0	2.51162E+1	9.84157E+0
137	17/03/2023	15:23:28.806	0.00000E+0	0.00000E+0	-1.33232E+2	-7.09530E-1	0.00000E+0	0.00000E+0	1.97591E+1	1.51335E+1	1.97567E+1	1.51353E+1
138	17/03/2023	15:23:30.318	0.00000E+0	0.00000E+0	-1.73420E+2	-2.86077E+0	0.00000E+0	0.00000E+0	1.87503E+1	1.62611E+1	1.87487E+1	1.62611E+1
139	17/03/2023	15:23:31.822	0.00000E+0	0.00000E+0	2.16161E+2	1.28002E+0	0.00000E+0	0.00000E+0	2.42926E+1	1.06862E+1	2.42923E+1	1.06859E+1
140	17/03/2023	15:23:33.331	0.00000E+0	0.00000E+0	-1.34850E+2	-2.89060E+0	0.00000E+0	0.00000E+0	1.95619E+1	1.53779E+1	1.95617E+1	1.53792E+1
141	17/03/2023	15:23:34.841	0.00000E+0	0.00000E+0	-8.78671E+1	5.65679E-1	0.00000E+0	0.00000E+0	1.99089E+1	1.50364E+1	1.99074E+1	1.50350E+1
142	17/03/2023	15:23:36.352	0.00000E+0	0.00000E+0	2.33693E+2	4.09200E-1	0.00000E+0	0.00000E+0	2.45920E+1	1.03329E+1	2.45918E+1	1.03346E+1
143	17/03/2023	15:23:37.847	0.00000E+0	0.00000E+0	-2.24405E+2	2.65931E+0	0.00000E+0	0.00000E+0	1.83942E+1	1.65893E+1	1.83939E+1	1.65880E+1
144	17/03/2023	15:23:39.436	0.00000E+0	0.00000E+0	-2.22190E+1	9.75338E-1	0.00000E+0	0.00000E+0	2.01107E+1	1.48678E+1	2.01109E+1	1.48678E+1
145	17/03/2023	15:23:40.933	0.00000E+0	0.00000E+0	1.93069E+2	-1.44302E+0	0.00000E+0	0.00000E+0	2.40305E+1	1.08666E+1	2.40329E+1	1.08667E+1
146	17/03/2023	15:23:42.438	0.00000E+0	0.00000E+0	-2.20655E+2	-1.17300E+0	0.00000E+0	0.00000E+0	1.80526E+1	1.68329E+1	1.80491E+1	1.68341E+1
147	17/03/2023	15:23:43.943	0.00000E+0	0.00000E+0	2.49992E+2	4.76500E-1	0.00000E+0	0.00000E+0	2.48694E+1	1.01251E+1	2.48668E+1	1.01257E+1
148	17/03/2023	15:23:45.453	0.00000E+0	0.00000E+0	-2.42980E+2	4.07285E-1	0.00000E+0	0.00000E+0	1.77555E+1	1.71279E+1	1.77570E+1	1.71259E+1
149	17/03/2023	15:23:46.954	0.00000E+0	0.00000E+0	-5.54317E+1	7.25267E-1	0.00000E+0	0.00000E+0	1.98619E+1	1.50157E+1	1.98616E+1	1.50160E+1
150	17/03/2023	15:23:48.458	0.00000E+0	0.00000E+0	1.99937E+2	-7.64917E-1	0.00000E+0	0.00000E+0	2.41993E+1	1.07722E+1	2.41985E+1	1.07724E+1
151	17/03/2023	15:23:49.962	0.00000E+0	0.00000E+0	-2.19132E+2	-4.06307E+0	0.00000E+0	0.00000E+0	1.80448E+1	1.68173E+1	1.80457E+1	1.68193E+1
152	17/03/2023	15:23:51.466	0.00000E+0	0.00000E+0	2.41860E+2	1.68313E+0	0.00000E+0	0.00000E+0	2.47242E+1	1.03197E+1	2.47218E+1	1.03186E+1
153	17/03/2023	15:23:52.972	0.00000E+0	0.00000E+0	-2.24832E+2	-1.49700E+0	0.00000E+0	0.00000E+0	1.79786E+1	1.68041E+1	1.79774E+1	1.68049E+1
154	17/03/2023	15:23:54.477	0.00000E+0	0.00000E+0	1.44118E+2	2.49635E+0	0.00000E+0	0.00000E+0	2.27877E+1	1.21709E+1	2.27883E+1	1.21740E+1
155	17/03/2023	15:23:56.031	0.00000E+0	0.00000E+0	1.75141E+2	1.62407E+0	0.00000E+0	0.00000E+0	2.37932E+1	1.11498E+1	2.37941E+1	1.11490E+1
156	17/03/2023	15:23:57.557	0.00000E+0	0.00000E+0	-2.23851E+2	-1.68378E+0	0.00000E+0	0.00000E+0	1.79893E+1	1.69103E+1	1.79873E+1	1.69107E+1
157	17/03/2023	15:23:59.046	0.00000E+0	0.00000E+0	2.45171E+2	2.71099E+0	0.00000E+0	0.00000E+0	2.48307E+1	1.02361E+1	2.48284E+1	1.02352E+1
158	17/03/2023	15:24:00.560	0.00000E+0	0.00000E+0	-2.77362E+2	-3.06163E+0	0.00000E+0	0.00000E+0	1.73543E+1	1.75941E+1	1.73530E+1	1.75941E+1
159	17/03/2023	15:24:02.145	0.00000E+0	0.00000E+0	2.66756E+2	6.66343E+0	0.00000E+0	0.00000E+0	2.50520E+1	9.95338E+0	2.50518E+1	9.95358E+0
160	17/03/2023	15:24:03.636	0.00000E+0	0.00000E+0	-1.70933E+2	-1.46693E+0	0.00000E+0	0.00000E+0	1.93765E+1	1.56249E+1	1.93770E+1	1.56241E+1
161	17/03/2023	15:24:05.137	0.00000E+0	0.00000E+0	-1.70509E+2	-2.60613E-1	0.00000E+0	0.00000E+0	1.87685E+1	1.61401E+1	1.87696E+1	1.61413E+1
162	17/03/2023	15:24:06.647	0.00000E+0	0.00000E+0	2.23619E+2	-6.66234E-1	0.00000E+0	0.00000E+0	2.44677E+1	1.04571E+1	2.44654E+1	1.04579E+1
163	17/03/2023	15:24:08.171	0.00000E+0	0.00000E+0	-2.45574E+2	-2.02336E+0	0.00000E+0	0.00000E+0	1.77222E+1	1.72102E+1	1.77255E+1	1.72128E+1
164	17/03/2023	15:24:09.672	0.00000E+0	0.00000E+0	2.47761E+2	3.04815E+0	0.00000E+0	0.00000E+0	2.47943E+1	1.02356E+1	2.47926E+1	1.02355E+1
165	17/03/2023	15:24:11.180	0.00000E+0	0.00000E+0	-2.45543E+2	-1.74648E+0	0.00000E+0	0.00000E+0	1.80952E+1	1.68241E+1	1.80970E+1	1.68237E+1
166	17/03/2023	15:24:12.676	0.00000E+0	0.00000E+0	-6.73851E+1	-3.51756E-1	0.00000E+0	0.00000E+0	1.97940E+1	1.50105E+1	1.97950E+1	1.50096E+1
167	17/03/2023	15:24:14.254	0.00000E+0	0.00000E+0	2.17174E+2	3.69523E+0	0.00000E+0	0.00000E+0	2.43907E+1	1.05608E+1	2.43903E+1	1.05592E+1
168	17/03/2023	15:24:15.751	0.00000E+0	0.00000E+0	-2.01615E+2	-2.05222E+0	0.00000E+0	0.00000E+0	1.83192E+1	1.66030E+1	1.83189E+1	1.66034E+1
169	17/03/2023	15:24:17.277	0.00000E+0	0.00000E+0	2.33203E+2	1.17141E+0	0.00000E+0	0.00000E+0	2.45470E+1	1.04139E+1	2.45492E+1	1.04136E+1
170	17/03/2023	15:24:18.778	0.00000E+0	0.00000E+0	-2.27309E+2	1.84733E+0	0.00000E+0	0.00000E+0	1.80191E+1	1.69567E+1	1.80203E+1	1.69586E+1
171	17/03/2023	15:24:20.288	0.00000E+0	0.00000E+0	-1.42476E+2	2.96981E+0	0.00000E+0	0.00000E+0	1.89907E+1	1.59922E+1	1.89938E+1	1.59932E+1
172	17/03/2023	15:24:21.769	0.00000E+0	0.00000E+0	2.04757E+2	-1.91407E-1	0.00000E+0	0.00000E+0	2.42234E+1	1.07605E+1	2.42224E+1	1.07605E+1
173	17/03/2023	15:24:23.373	0.00000E+0	0.00000E+0	-2.25364E+2	-1.40531E+0	0.00000E+0	0.00000E+0	1.79867E+1	1.68646E+1	1.79881E+1	1.68648E+1
174	17/03/2023	15:24:24.880	0.00000E+0	0.00000E+0	2.30653E+2	2.39605E+0	0.00000E+0	0.00000E+0	2.46241E+1	1.04141E+1	2.46230E+1	1.04116E+1
175	17/03/2023	15:24:26.380	0.00000E+0	0.00000E+0	1.60278E+2	2.16452E+0	0.00000E+0	0.00000E+0	2.36436E+1	1.13907E+1	2.36429E+1	1.13911E+1
176	17/03/2023	15:24:27.886	0.00000E+0	0.00000E+0	-1.88039E+2	-3.40361E+0	0.00000E+0	0.00000E+0	1.85409E+1	1.63662E+1	1.85404E+1	1.63668E+1
177	17/03/2023	15:24:29.389	0.00000E+0	0.00000E+0	-1.05948E+2	-1.88193E+0	0.00000E+0	0.00000E+0	1.95673E+1	1.53268E+1	1.95676E+1	1.53289E+1
178	17/03/2023	15:24:30.903	0.00000E+0	0.00000E+0	1.83191E+2	7.74848E-1	0.00000E+0	0.00000E+0	2.38764E+1	1.11265E+1	2.38755E+1	1.11259E+1
179	17/03/2023	15:24:32.399	0.00000E+0	0.00000E+0	-2.14667E+2	-5.30600E+0	0.00000E+0	0.00000E+0	1.82452E+1	1.66452E+1	1.82453E+1	1.66454E+1
180	17/03/2023	15:24:33.901	0.00000E+0	0.00000E+0	-1.20775E+2	-1.15177E+0	0.00000E+0	0.00000E+0	1.94729E+1	1.54178E+1	1.94721E+1	1.54145E+1
181	17/03/2023	15:24:35.409	0.00000E+0	0.00000E+0	2.18071E+2	-3.42119E-2	0.00000E+0	0.00000E+0	2.44049E+1	1.06227E+1	2.44048E+1	1.06240E+1
182	17/03/2023	15:24:36.992	0.00000E+0	0.00000E+0	-2.25974E+2	4.29545E-2	0.00000E+0	0.00000E+0	1.81217E+1	1.69284E+1	1.81205E+1	1.69260E+1
183	17/03/2023	15:24:38.496	0.00000E+0	0.00000E+0	-1.06443E+2	-1.97085E+0	0.00000E+0	0.00000E+0	1.95784E+1	1.53694E+1	1.95770E+1	1.53673E+1
184	17/03/2023	15:24:40.001	0.00000E+0	0.00000E+0	2.10945E+2	9.98694E-1	0.00000E+0	0.00000E+0	2.43058E+1	1.06995E+1	2.43047E+1	1.07019E+1
185	17/03/2023	15:24:41.509	0.00000E+0	0.00000E+0	-2.33180E+2	-1.33506E+0	0.00000E+0	0.00000E+0	1.78636E+1	1.70340E+1	1.78651E+1	1.70336E+1
186	17/03/2023	15:24:43.071	0.00000E+0	0.00000E+0	2.47313E+2	1.41681E+0	0.00000E+0	0.00000E+0	2.48042E+1	1.02303E+1	2.48038E+1	1.02306E+1
187	17/03/2023	15:24:44.578	0.00000E+0	0.00000E+0	-2.69963E+2	7.88626E-1	0.00000E+0	0.00000E+0	1.74990E+1	1.75163E+1	1.74973E+1	1.75176E+1
188	17/03/2023	15:24:46.071	0.00000E+0	0.00000E+0	2.74347E+2	3.98873E+0	0.00000E+0	0.00000E+0	2.47936E+1	1.02105E+1	2.47947E+1	1.02114E+1
189	17/03/2023	15:24:47.600	0.00000E+0	0.00000E+0	-1.92841E+1	3.88848E-1	0.00000E+0	0.00000E+0	2.15404E+1	1.34243E+1	2.15397E+1	1.34234E+1
190	17/03/2023	15:24:49.091	0.00000E+0	0.00000E+0	-1.74790E+2	-3.60144E+0	0.00000E+0	0.00000E+0	1.87551E+1	1.62094E+1	1.87561E+1	1.62121E+1
191	17/03/2023	15:24:50.587	0.00000E+0	0.00000E+0	2.23947E+2	6.42297E-1	0.00000E+0	0.00000E+0	2.44794E+1	1.05125E+1	2.44804E+1	1.05128E+1
192	17/03/2023	15:24:52.103	0.00000E+0	0.00000E+0	-2.52402E+2	-1.19311E+0	0.00000E+0	0.00000E+0	1.76707E+1	1.73102E+1	1.76716E+1	1.73121E+1
193	17/03/2023	15:24:53.599	0.00000E+0	0.00000E+0	2.61467E+2	1.05787E+1	0.00000E+0	0.00000E+0	2.49429E+1	1.00681E+1	2.49439E+1	1.00670E+1
194	17/03/2023	15:24:55.106	0.00000E+0	0.00000E+0	-1.84703E+2	-3.60341E+0	0.00000E+0	0.00000E+0	1.90425E+1	1.57771E+1	1.90426E+1	1.57771E+1
195	17/03/2023	15:24:56.616	0.00000E+0	0.00000E+0	-1.61457E+2	-6.09153E-1	0.00000E+0	0.00000E+0	1.88405E+1	1.60735E+1	1.88387E+1	1.60724E+1
196	17/03/2023	15:24:58.111	0.00000E+0	0.00000E+0	2.03238E+2	4.13651E+0	0.00000E+0	0.00000E+0	2.41478E+1	1.08235E+1	2.41450E+1	1.08225E+1
197	17/03/2023	15:24:59.628	0.00000E+0	0.00000E+0	-2.38189E+2	-2.51226E-1	0.00000E+0	0.00000E+0	1.78478E+1	1.70424E+1	1.78452E+1	1.70422E+1
198	17/03/2023	15:25:01.123	0.00000E+0	0.00000E+0	1.84368E+2	2.58340E+0	0.00000E+0	0.00000E+0	2.34981E+1	1.14791E+1	2.34989E+1	1.14792E+1
199	17/03/2023	15:25:02.626	0.00000E+0	0.00000E+0	8.05862E+1	1.64749E+0	0.00000E+0	0.00000E+0	2.29473E+1	1.20431E+1	2.29457E+1	1.20426E+1
200	17/03/2023	15:25:04.132	0.00000E+0	0.00000E+0	-1.86301E+2	-3.82335E+0	0.00000E+0	0.00000E+0	1.85123E+1	1.63961E+1	1.85118E+1	1.63942E+1
201	17/03/2023	15:25:05.647	0.00000E+0	0.00000E+0	2.27958E+2	1.80795E-2	0.00000E+0	0.00000E+0	2.44356E+1	1.05308E+1	2.44346E+1	1.05315E+1
202	17/03/2023	15:25:07.155	0.00000E+0	0.00000E+0	-2.15273E+2	-2.72619E+0	0.00000E+0	0.00000E+0	1.81952E+1	1.66779E+1	1.81952E+1	1.66792E+1
203	17/03/2023	15:25:08.652	0.00000E+0	0.00000E+0	8.06557E+0	3.98834E-1	0.00000E+0	0.00000E+0	2.08910E+1	1.40654E+1	2.08902E+1	1.40632E+1
204	17/03/2023	15:25:10.157	0.00000E+0	0.00000E+0	1.84901E+2	-6.89513E-2	0.00000E+0	0.00000E+0	2.38980E+1	1.10197E+1	2.38968E+1	1.10201E+1
205	17/03/2023	15:25:11.664	0.00000E+0	0.00000E+0	-2.25416E+2	-2.36123E+0	0.00000E+0	0.00000E+0	1.80484E+1	1.68510E+1	1.80495E+1	1.68520E+1
206	17/03/2023	15:25:13.156	0.00000E+0	0.00000E+0	2.36742E+2	1.42745E+0	0.00000E+0	0.00000E+0	2.44778E+1	1.05459E+1	2.44764E+1	1.05442E+1
207	17/03/2023	15:25:14.671	0.00000E+0	0.00000E+0	1.34602E+2	4.65449E+0	0.00000E+0	0.00000E+0	2.34462E+1	1.15459E+1	2.34447E+1	1.15462E+1
208	17/03/2023	15:25:16.251	0.00000E+0	0.00000E+0	-1.83142E+2	-2.54125E+0	0.00000E+0	0.00000E+0	1.86164E+1	1.63075E+1	1.86142E+1	1.63077E+1
209	17/03/2023	15:25:17.762	0.00000E+0	0.00000E+0	2.46938E+2	3.51606E+0	0.00000E+0	0.00000E+0	2.48006E+1	1.01759E+1	2.48022E+1	1.01772E+1
210	17/03/2023	15:25:19.264	0.00000E+0	0.00000E+0	-2.15611E+2	-2.09092E+0	0.00000E+0	0.00000E+0	1.84300E+1	1.64595E+1	1.84285E+1	1.64603E+1
211	17/03/2023	15:25:20.767	0.00000E+0	0.00000E+0	-1.56241E+2	1.10036E+0	0.00000E+0	0.00000E+0	1.90058E+1	1.58939E+1	1.90029E+1	1.58961E+1
212	17/03/2023	15:25:22.279	0.00000E+0	0.00000E+0	2.19134E+2	1.73162E-1	0.00000E+0	0.00000E+0	2.43842E+1	1.05689E+1	2.43819E+1	1.05694E+1
213	17/03/2023	15:25:23.755	0.00000E+0	0.00000E+0	-2.17136E+2	-5.14449E-2	0.00000E+0	0.00000E+0	1.81879E+1	1.67319E+1	1.81849E+1	1.67329E+1
214	17/03/2023	15:25:25.334	0.00000E+0	0.00000E+0	4.85674E+1	1.84024E+0	0.00000E+0	0.00000E+0	2.16239E+1	1.32989E+1	2.16246E+1	1.32987E+1
215	17/03/2023	15:25:26.861	0.00000E+0	0.00000E+0	1.37684E+2	1.13122E+0	0.00000E+0	0.00000E+0	2.33005E+1	1.16756E+1	2.33011E+1	1.16733E+1
216	17/03/2023	15:25:28.345	0.00000E+0	0.00000E+0	-1.94831E+2	-1.05937E+0	0.00000E+0	0.00000E+0	1.85134E+1	1.64083E+1	1.85145E+1	1.64087E+1
217	17/03/2023	15:25:29.849	0.00000E+0	0.00000E+0	1.61474E+2	1.00721E-1	0.00000E+0	0.00000E+0	2.34425E+1	1.15528E+1	2.34411E+1	1.15521E+1
218	17/03/2023	15:25:31.350	0.00000E+0	0.00000E+0	8.40745E+1	-7.12082E-1	0.00000E+0	0.00000E+0	2.27877E+1	1.21404E+1	2.27901E+1	1.21390E+1
219	17/03/2023	15:25:32.863	0.00000E+0	0.00000E+0	-2.22879E+2	-2.60478E+0	0.00000E+0	0.00000E+0	1.80143E+1	1.68509E+1	1.80168E+1	1.68520E+1
220	17/03/2023	15:25:34.362	0.00000E+0	0.00000E+0	2.06914E+2	1.43789E+0	0.00000E+0	0.00000E+0	2.41571E+1	1.08256E+1	2.41559E+1	1.08249E+1
221	17/03/2023	15:25:35.883	0.00000E+0	0.00000E+0	-1.71581E+2	-1.80502E-2	0.00000E+0	0.00000E+0	1.89422E+1	1.59878E+1	1.89421E+1	1.59864E+1
222	17/03/2023	15:25:37.380	0.00000E+0	0.00000E+0	1.29118E+2	1.82397E+0	0.00000E+0	0.00000E+0	2.26690E+1	1.23617E+1	2.26720E+1	1.23622E+1
223	17/03/2023	15:25:38.901	0.00000E+0	0.00000E+0	-1.61335E+1	-3.27735E-1	0.00000E+0	0.00000E+0	2.16647E+1	1.32985E+1	2.16662E+1	1.32958E+1
224	17/03/2023	15:25:40.384	0.00000E+0	0.00000E+0	-1.81617E+2	-2.95862E-1	0.00000E+0	0.00000E+0	1.86734E+1	1.62921E+1	1.86737E+1	1.62908E+1
225	17/03/2023	15:25:41.895	0.00000E+0	0.00000E+0	2.20386E+2	-2.21215E-1	0.00000E+0	0.00000E+0	2.44077E+1	1.04970E+1	2.44088E+1	1.04971E+1
226	17/03/2023	15:25:43.388	0.00000E+0	0.00000E+0	-2.25406E+2	-7.81911E-1	0.00000E+0	0.00000E+0	1.80820E+1	1.68959E+1	1.80824E+1	1.68957E+1
227	17/03/2023	15:25:44.895	0.00000E+0	0.00000E+0	2.34454E+2	2.52749E+0	0.00000E+0	0.00000E+0	2.44352E+1	1.05523E+1	2.44350E+1	1.05535E+1
228	17/03/2023	15:25:46.395	0.00000E+0	0.00000E+0	-2.21617E+1	8.62868E-1	0.00000E+0	0.00000E+0	2.15895E+1	1.33914E+1	2.15882E+1	1.33921E+1
229	17/03/2023	15:25:47.897	0.00000E+0	0.00000E+0	-1.73537E+2	-3.57234E+0	0.00000E+0	0.00000E+0	1.87526E+1	1.61725E+1	1.87537E+1	1.61721E+1
230	17/03/2023	15:25:49.399	0.00000E+0	0.00000E+0	2.07694E+2	-4.13540E-1	0.00000E+0	0.00000E+0	2.42625E+1	1.07730E+1	2.42616E+1	1.07715E+1
231	17/03/2023	15:25:50.909	0.00000E+0	0.00000E+0	-2.26406E+2	-9.06191E-1	0.00000E+0	0.00000E+0	1.80135E+1	1.68729E+1	1.80123E+1	1.68725E+1
232	17/03/2023	15:25:52.404	0.00000E+0	0.00000E+0	2.26355E+2	4.41450E+0	0.00000E+0	0.00000E+0	2.45048E+1	1.05529E+1	2.45047E+1	1.05520E+1
233	17/03/2023	15:25:53.940	0.00000E+0	0.00000E+0	-1.31965E+1	-9.37028E-2	0.00000E+0	0.00000E+0	2.18625E+1	1.31304E+1	2.18631E+1	1.31308E+1
234	17/03/2023	15:25:55.447	0.00000E+0	0.00000E+0	-1.61591E+2	-3.60114E+0	0.00000E+0	0.00000E+0	1.89292E+1	1.60004E+1	1.89295E+1	1.60024E+1
235	17/03/2023	15:25:56.952	0.00000E+0	0.00000E+0	1.80059E+2	-3.11256E+0	0.00000E+0	0.00000E+0	2.38358E+1	1.11462E+1	2.38362E+1	1.11465E+1
236	17/03/2023	15:25:58.439	0.00000E+0	0.00000E+0	-1.66849E+2	-1.07286E+0	0.00000E+0	0.00000E+0	1.88937E+1	1.59331E+1	1.88912E+1	1.59337E+1
237	17/03/2023	15:25:59.982	0.00000E+0	0.00000E+0	1.14646E+2	1.09175E+0	0.00000E+0	0.00000E+0	2.25876E+1	1.23822E+1	2.25861E+1	1.23815E+1
238	17/03/2023	15:26:01.535	0.00000E+0	0.00000E+0	1.05567E+2	-2.06933E+0	0.00000E+0	0.00000E+0	2.30878E+1	1.19251E+1	2.30883E+1	1.19265E+1
239	17/03/2023	15:26:03.042	0.00000E+0	0.00000E+0	-1.78200E+2	-1.28776E+0	0.00000E+0	0.00000E+0	1.86704E+1	1.62210E+1	1.86708E+1	1.62209E+1
240	17/03/2023	15:26:04.572	0.00000E+0	0.00000E+0	2.18893E+2	1.86156E+0	0.00000E+0	0.00000E+0	2.42853E+1	1.06789E+1	2.42872E+1	1.06798E+1
241	17/03/2023	15:26:06.085	0.00000E+0	0.00000E+0	-1.37700E+2	5.61847E-1	0.00000E+0	0.00000E+0	1.94979E+1	1.54537E+1	1.95007E+1	1.54536E+1
242	17/03/2023	15:26:07.599	0.00000E+0	0.00000E+0	-9.40203E+1	2.97755E-1	0.00000E+0	0.00000E+0	1.96181E+1	1.53296E+1	1.96182E+1	1.53322E+1
