#Iteration	Date	Time	RTPhase	NFringe	AccelAxis	AccelMean	AccelTemp
1	17/03/2023	15:20:03.414	6.15548141E+0	2.49400000E+3	2.00000000E+0	-9.77631336E+0	7.16220300E+6
2	17/03/2023	15:20:04.888	6.60762224E-1	-2.50500000E+3	2.00000000E+0	-9.77631336E+0	7.16220300E+6
3	17/03/2023	15:20:06.397	3.86563159E-1	2.49700000E+3	2.00000000E+0	-9.77631336E+0	7.16220300E+6
4	17/03/2023	15:20:07.892	3.52547135E+0	-2.51600000E+3	2.00000000E+0	-9.77631336E+0	7.16220300E+6
5	17/03/2023	15:20:09.386	3.30572860E+0	2.51000000E+3	2.00000000E+0	-9.77631336E+0	7.16220300E+6
6	17/03/2023	15:20:10.901	3.32835481E+0	-2.50700000E+3	2.00000000E+0	-9.77631336E+0	7.16220300E+6
7	17/03/2023	15:20:12.411	2.28563137E-1	2.50100000E+3	2.00000000E+0	-9.77631336E+0	7.16220300E+6
8	17/03/2023	15:20:13.936	2.00989833E+0	-2.50100000E+3	2.00000000E+0	-9.77631336E+0	7.16220300E+6
9	17/03/2023	15:20:15.436	1.92016045E+0	2.51200000E+3	2.00000000E+0	-9.77631336E+0	7.16220300E+6
10	17/03/2023	15:20:16.946	2.79951494E-1	-2.48300000E+3	2.00000000E+0	-9.77631336E+0	7.16220300E+6
11	17/03/2023	15:20:18.448	2.05016532E+0	2.51500000E+3	2.00000000E+0	-9.77631336E+0	7.16220300E+6
12	17/03/2023	15:20:19.950	9.82898190E-1	-2.47900000E+3	2.00000000E+0	-9.77631336E+0	7.16220300E+6
13	17/03/2023	15:20:21.455	4.37491321E+0	2.50600000E+3	2.00000000E+0	-9.77631336E+0	7.16220300E+6
14	17/03/2023	15:20:22.953	5.51696190E+0	-2.50100000E+3	2.00000000E+0	-9.77631336E+0	7.16220300E+6
15	17/03/2023	15:20:24.487	3.19528198E+0	2.49600000E+3	2.00000000E+0	-9.77631336E+0	7.16220300E+6
16	17/03/2023	15:20:26.025	5.61705415E+0	-2.51200000E+3	2.00000000E+0	-9.77631336E+0	7.16220300E+6
17	17/03/2023	15:20:27.548	5.03874339E+0	2.48200000E+3	2.00000000E+0	-9.77631336E+0	7.16220300E+6
18	17/03/2023	15:20:29.034	5.90467555E+0	-2.51700000E+3	2.00000000E+0	-9.77631336E+0	7.16220300E+6
19	17/03/2023	15:20:30.558	6.26937948E+0	2.48000000E+3	2.00000000E+0	-9.77631336E+0	7.16220300E+6
20	17/03/2023	15:20:32.067	5.57870463E+0	-2.50700000E+3	2.00000000E+0	-9.77631336E+0	7.16220300E+6
21	17/03/2023	15:20:33.565	2.97017030E+0	2.50800000E+3	2.00000000E+0	-9.77631336E+0	7.16220300E+6
22	17/03/2023	15:20:35.064	4.58123362E+0	-2.49300000E+3	2.00000000E+0	-9.77631336E+0	7.16220300E+6
23	17/03/2023	15:20:36.570	1.67702450E+0	2.51500000E+3	2.00000000E+0	-9.77631336E+0	7.16220300E+6
24	17/03/2023	15:20:38.067	6.26861249E+0	-2.47900000E+3	2.00000000E+0	-9.77631336E+0	7.16220300E+6
25	17/03/2023	15:20:39.573	7.48582624E-1	2.51000000E+3	2.00000000E+0	-9.77631336E+0	7.16220300E+6
26	17/03/2023	15:20:41.076	2.74467512E+0	-2.49200000E+3	2.00000000E+0	-9.77631336E+0	7.16220300E+6
27	17/03/2023	15:20:42.567	4.46119963E+0	2.50400000E+3	2.00000000E+0	-9.77631336E+0	7.16220300E+6
28	17/03/2023	15:20:44.072	5.70525805E+0	-2.49100000E+3	2.00000000E+0	-9.77631336E+0	7.16220300E+6
29	17/03/2023	15:20:45.581	3.63591796E+0	2.49700000E+3	2.00000000E+0	-9.77631336E+0	7.16220300E+6
30	17/03/2023	15:20:47.073	5.77083572E+0	-2.51400000E+3	2.00000000E+0	-9.77631336E+0	7.16220300E+6
31	17/03/2023	15:20:48.584	3.10247614E+0	2.44200000E+3	2.00000000E+0	-9.77631336E+0	7.16220300E+6
32	17/03/2023	15:20:50.146	2.92683534E+0	-2.51300000E+3	2.00000000E+0	-9.77631336E+0	7.16220300E+6
33	17/03/2023	15:20:51.678	3.01043730E-1	2.47700000E+3	2.00000000E+0	-9.77631336E+0	7.16220300E+6
34	17/03/2023	15:20:53.196	3.57417524E-1	-2.50900000E+3	2.00000000E+0	-9.77631336E+0	7.16220300E+6
35	17/03/2023	15:20:54.706	5.15801040E+0	2.50100000E+3	2.00000000E+0	-9.77631336E+0	7.16220300E+6
36	17/03/2023	15:20:56.206	4.17051027E+0	-2.49800000E+3	2.00000000E+0	-9.77631336E+0	7.16220300E+6
37	17/03/2023	15:20:57.707	2.02332066E+0	2.51300000E+3	2.00000000E+0	-9.77631336E+0	7.16220300E+6
38	17/03/2023	15:20:59.210	4.20042289E+0	-2.46500000E+3	2.00000000E+0	-9.77631336E+0	7.16220300E+6
39	17/03/2023	15:21:00.715	4.80289385E+0	2.51600000E+3	2.00000000E+0	-9.77631336E+0	7.16220300E+6
40	17/03/2023	15:21:02.216	6.10025810E+0	-2.48800000E+3	2.00000000E+0	-9.77631336E+0	7.16220300E+6
41	17/03/2023	15:21:03.720	6.74184556E-1	2.50900000E+3	2.00000000E+0	-9.77631336E+0	7.16220300E+6
42	17/03/2023	15:21:05.211	2.37958770E+0	-2.48800000E+3	2.00000000E+0	-9.77631336E+0	7.16220300E+6
43	17/03/2023	15:21:06.730	5.08591330E+0	2.50400000E+3	2.00000000E+0	-9.77631336E+0	7.16220300E+6
44	17/03/2023	15:21:08.231	9.31509833E-1	-2.51300000E+3	2.00000000E+0	-9.77631336E+0	7.16220300E+6
45	17/03/2023	15:21:09.729	3.60600534E+0	2.47600000E+3	2.00000000E+0	-9.77631336E+0	7.16220300E+6
46	17/03/2023	15:21:11.245	1.34875261E+0	-2.51200000E+3	2.00000000E+0	-9.77631336E+0	7.16220300E+6
47	17/03/2023	15:21:12.745	3.27658296E+0	2.47900000E+3	2.00000000E+0	-9.77631336E+0	7.16220300E+6
48	17/03/2023	15:21:14.304	1.80204393E+0	-2.48900000E+3	2.00000000E+0	-9.77631336E+0	7.16220300E+6
49	17/03/2023	15:21:15.811	2.17096631E+0	2.48700000E+3	2.00000000E+0	-9.77631336E+0	7.16220300E+6
50	17/03/2023	15:21:17.313	5.98981148E+0	-2.48000000E+3	2.00000000E+0	-9.77631336E+0	7.16220300E+6
51	17/03/2023	15:21:18.815	1.70271867E+0	2.50700000E+3	2.00000000E+0	-9.77631336E+0	7.16220300E+6
52	17/03/2023	15:21:20.328	4.32467534E+0	-2.50800000E+3	2.00000000E+0	-9.77631336E+0	7.16220300E+6
53	17/03/2023	15:21:21.850	4.36379185E+0	2.48800000E+3	2.00000000E+0	-9.77631336E+0	7.16220300E+6
54	17/03/2023	15:21:23.334	3.90781606E+0	-2.48100000E+3	2.00000000E+0	-9.77631336E+0	7.16220300E+6
55	17/03/2023	15:21:24.855	5.29223372E+0	2.51400000E+3	2.00000000E+0	-9.77631336E+0	7.16220300E+6
56	17/03/2023	15:21:26.333	2.38303915E+0	-2.50700000E+3	2.00000000E+0	-9.77631336E+0	7.16220300E+6
57	17/03/2023	15:21:27.864	1.72726237E+0	2.48700000E+3	2.00000000E+0	-9.77631336E+0	7.16220300E+6
58	17/03/2023	15:21:29.347	2.45628674E+0	-2.47300000E+3	2.00000000E+0	-9.77631336E+0	7.16220300E+6
59	17/03/2023	15:21:30.855	2.96365088E+0	2.50800000E+3	2.00000000E+0	-9.77631336E+0	7.16220300E+6
60	17/03/2023	15:21:32.398	4.71967539E+0	-2.50300000E+3	2.00000000E+0	-9.77631336E+0	7.16220300E+6
61	17/03/2023	15:21:33.963	5.19290846E+0	2.49300000E+3	2.00000000E+0	-9.77631336E+0	7.16220300E+6
62	17/03/2023	15:21:35.469	5.76239883E+0	-2.50700000E+3	2.00000000E+0	-9.77631336E+0	7.16220300E+6
63	17/03/2023	15:21:36.969	3.69996166E+0	2.50600000E+3	2.00000000E+0	-9.77631336E+0	7.16220300E+6
64	17/03/2023	15:21:38.472	1.53819924E+0	-2.51000000E+3	2.00000000E+0	-9.77631336E+0	7.16220300E+6
65	17/03/2023	15:21:39.977	4.67058800E+0	2.48800000E+3	2.00000000E+0	-9.77631336E+0	7.16220300E+6
66	17/03/2023	15:21:41.488	5.57026774E+0	-2.48400000E+3	2.00000000E+0	-9.77631336E+0	7.16220300E+6
67	17/03/2023	15:21:42.987	4.47155400E-1	2.50700000E+3	2.00000000E+0	-9.77631336E+0	7.16220300E+6
68	17/03/2023	15:21:44.487	2.84706834E+0	-2.48700000E+3	2.00000000E+0	-9.77631336E+0	7.16220300E+6
69	17/03/2023	15:21:45.993	5.91464642E+0	2.47500000E+3	2.00000000E+0	-9.77631336E+0	7.16220300E+6
70	17/03/2023	15:21:47.487	3.26431112E+0	-2.51100000E+3	2.00000000E+0	-9.77631336E+0	7.16220300E+6
71	17/03/2023	15:21:48.999	3.26622859E+0	2.52000000E+3	2.00000000E+0	-9.77631336E+0	7.16220300E+6
72	17/03/2023	15:21:50.501	3.33985967E+0	-2.49900000E+3	2.00000000E+0	-9.77631336E+0	7.16220300E+6
73	17/03/2023	15:21:52.006	3.23094703E+0	2.45800000E+3	2.00000000E+0	-9.77631336E+0	7.16220300E+6
74	17/03/2023	15:21:53.506	1.92898084E+0	-2.50800000E+3	2.00000000E+0	-9.77631336E+0	7.16220300E+6
75	17/03/2023	15:21:55.009	1.33302930E+0	2.51400000E+3	2.00000000E+0	-9.77631336E+0	7.16220300E+6
76	17/03/2023	15:21:56.500	2.07087406E-1	-2.48700000E+3	2.00000000E+0	-9.77631336E+0	7.16220300E+6
77	17/03/2023	15:21:58.018	4.48651031E+0	2.48600000E+3	2.00000000E+0	-9.77631336E+0	7.16220300E+6
78	17/03/2023	15:21:59.503	8.41004967E-1	-2.50500000E+3	2.00000000E+0	-9.77631336E+0	7.16220300E+6
79	17/03/2023	15:22:01.010	6.19996685E+0	2.50700000E+3	2.00000000E+0	-9.77631336E+0	7.16220300E+6
80	17/03/2023	15:22:02.526	6.83004946E-1	-2.50200000E+3	2.00000000E+0	-9.77631336E+0	7.16220300E+6
81	17/03/2023	15:22:04.011	5.40728228E+0	2.47700000E+3	2.00000000E+0	-9.77631336E+0	7.16220300E+6
82	17/03/2023	15:22:05.603	1.94738861E+0	-2.48300000E+3	2.00000000E+0	-9.77631336E+0	7.16220300E+6
83	17/03/2023	15:22:07.113	1.18730113E+0	2.51200000E+3	2.00000000E+0	-9.77631336E+0	7.16220300E+6
84	17/03/2023	15:22:08.618	4.81516569E+0	-2.51800000E+3	2.00000000E+0	-9.77631336E+0	7.16220300E+6
85	17/03/2023	15:22:10.134	1.67088857E+0	2.49600000E+3	2.00000000E+0	-9.77631336E+0	7.16220300E+6
86	17/03/2023	15:22:11.626	4.97009775E-1	-2.48500000E+3	2.00000000E+0	-9.77631336E+0	7.16220300E+6
87	17/03/2023	15:22:13.144	2.91264602E+0	2.49200000E+3	2.00000000E+0	-9.77631336E+0	7.16220300E+6
88	17/03/2023	15:22:14.638	5.86517554E+0	-2.51300000E+3	2.00000000E+0	-9.77631336E+0	7.16220300E+6
89	17/03/2023	15:22:16.152	8.26432149E-1	2.52000000E+3	2.00000000E+0	-9.77631336E+0	7.16220300E+6
90	17/03/2023	15:22:17.657	6.24598627E+0	-2.50700000E+3	2.00000000E+0	-9.77631336E+0	7.16220300E+6
91	17/03/2023	15:22:19.157	5.10202010E+0	2.47900000E+3	2.00000000E+0	-9.77631336E+0	7.16220300E+6
92	17/03/2023	15:22:20.679	3.97377723E+0	-2.48600000E+3	2.00000000E+0	-9.77631336E+0	7.16220300E+6
93	17/03/2023	15:22:22.168	4.99234047E+0	2.49100000E+3	2.00000000E+0	-9.77631336E+0	7.16220300E+6
94	17/03/2023	15:22:23.671	5.69413668E+0	-2.50500000E+3	2.00000000E+0	-9.77631336E+0	7.16220300E+6
95	17/03/2023	15:22:25.255	1.70693712E+0	2.50800000E+3	2.00000000E+0	-9.77631336E+0	7.16220300E+6
96	17/03/2023	15:22:26.760	4.49571419E+0	-2.48100000E+3	2.00000000E+0	-9.77631336E+0	7.16220300E+6
97	17/03/2023	15:22:28.263	1.13016035E+0	2.48100000E+3	2.00000000E+0	-9.77631336E+0	7.16220300E+6
98	17/03/2023	15:22:29.844	5.86632603E+0	-2.50500000E+3	2.00000000E+0	-9.77631336E+0	7.16220300E+6
99	17/03/2023	15:22:31.331	1.81584976E+0	2.51000000E+3	2.00000000E+0	-9.77631336E+0	7.16220300E+6
100	17/03/2023	15:22:32.854	4.45468021E+0	-2.49400000E+3	2.00000000E+0	-9.77631336E+0	7.16220300E+6
101	17/03/2023	15:22:34.412	1.78018470E+0	2.47100000E+3	2.00000000E+0	-9.77631336E+0	7.16220300E+6
102	17/03/2023	15:22:35.918	6.01320469E+0	-2.51000000E+3	2.00000000E+0	-9.77631336E+0	7.16220300E+6
103	17/03/2023	15:22:37.435	1.98573813E+0	2.51500000E+3	2.00000000E+0	-9.77631336E+0	7.16220300E+6
104	17/03/2023	15:22:38.937	4.46848604E+0	-2.50700000E+3	2.00000000E+0	-9.77631336E+0	7.16220300E+6
105	17/03/2023	15:22:40.457	1.97921871E+0	2.47100000E+3	2.00000000E+0	-9.77631336E+0	7.16220300E+6
106	17/03/2023	15:22:41.937	4.75917539E+0	-2.51400000E+3	2.00000000E+0	-9.77631336E+0	7.16220300E+6
107	17/03/2023	15:22:43.462	2.49425276E+0	2.51100000E+3	2.00000000E+0	-9.77631336E+0	7.16220300E+6
108	17/03/2023	15:22:44.961	4.58852003E+0	-2.47800000E+3	2.00000000E+0	-9.77631336E+0	7.16220300E+6
109	17/03/2023	15:22:46.455	6.78786499E-2	2.49300000E+3	2.00000000E+0	-9.77631336E+0	7.16220300E+6
110	17/03/2023	15:22:47.951	6.25672414E+0	-2.50100000E+3	2.00000000E+0	-9.77631336E+0	7.16220300E+6
111	17/03/2023	15:22:49.481	2.06703911E+0	2.51200000E+3	2.00000000E+0	-9.77631336E+0	7.16220300E+6
112	17/03/2023	15:22:50.982	2.59012656E+0	-2.46400000E+3	2.00000000E+0	-9.77631336E+0	7.16220300E+6
113	17/03/2023	15:22:52.461	2.75234503E+0	2.48300000E+3	2.00000000E+0	-9.77631336E+0	7.16220300E+6
114	17/03/2023	15:22:53.988	9.04281674E-1	-2.50500000E+3	2.00000000E+0	-9.77631336E+0	7.16220300E+6
115	17/03/2023	15:22:55.577	2.35005857E+0	2.51300000E+3	2.00000000E+0	-9.77631336E+0	7.16220300E+6
116	17/03/2023	15:22:57.082	1.30119920E+0	-2.51100000E+3	2.00000000E+0	-9.77631336E+0	7.16220300E+6
117	17/03/2023	15:22:58.666	4.23263649E+0	2.50300000E+3	2.00000000E+0	-9.77631336E+0	7.16220300E+6
118	17/03/2023	15:23:00.174	4.28594232E+0	-2.47300000E+3	2.00000000E+0	-9.77631336E+0	7.16220300E+6
119	17/03/2023	15:23:01.678	4.46771904E-1	2.44500000E+3	2.00000000E+0	-9.77631336E+0	7.16220300E+6
120	17/03/2023	15:23:03.182	1.96848085E+0	-2.50200000E+3	2.00000000E+0	-9.77631336E+0	7.16220300E+6
121	17/03/2023	15:23:04.684	5.39002499E+0	2.51400000E+3	2.00000000E+0	-9.77631336E+0	7.16220300E+6
122	17/03/2023	15:23:06.197	5.83794738E+0	-2.50400000E+3	2.00000000E+0	-9.77631336E+0	7.16220300E+6
123	17/03/2023	15:23:07.696	4.89301522E+0	2.47700000E+3	2.00000000E+0	-9.77631336E+0	7.16220300E+6
124	17/03/2023	15:23:09.195	2.91456350E-2	-2.43800000E+3	2.00000000E+0	-9.77631336E+0	7.16220300E+6
125	17/03/2023	15:23:10.700	3.14466062E-1	2.50300000E+3	2.00000000E+0	-9.77631336E+0	7.16220300E+6
126	17/03/2023	15:23:12.207	3.55078203E+0	-2.50700000E+3	2.00000000E+0	-9.77631336E+0	7.16220300E+6
127	17/03/2023	15:23:13.697	6.15509791E-1	2.51200000E+3	2.00000000E+0	-9.77631336E+0	7.16220300E+6
128	17/03/2023	15:23:15.238	1.32612639E+0	-2.50700000E+3	2.00000000E+0	-9.77631336E+0	7.16220300E+6
129	17/03/2023	15:23:16.770	4.15632094E+0	2.50300000E+3	2.00000000E+0	-9.77631336E+0	7.16220300E+6
130	17/03/2023	15:23:18.280	5.42262209E-1	-2.48400000E+3	2.00000000E+0	-9.77631336E+0	7.16220300E+6
131	17/03/2023	15:23:19.807	4.35497146E+0	2.46700000E+3	2.00000000E+0	-9.77631336E+0	7.16220300E+6
132	17/03/2023	15:23:21.286	3.47178202E+0	-2.48200000E+3	2.00000000E+0	-9.77631336E+0	7.16220300E+6
133	17/03/2023	15:23:22.810	4.16399085E+0	2.50300000E+3	2.00000000E+0	-9.77631336E+0	7.16220300E+6
134	17/03/2023	15:23:24.286	5.85980661E+0	-2.51500000E+3	2.00000000E+0	-9.77631336E+0	7.16220300E+6
135	17/03/2023	15:23:25.814	2.46088868E+0	2.51400000E+3	2.00000000E+0	-9.77631336E+0	7.16220300E+6
136	17/03/2023	15:23:27.303	5.53920463E+0	-2.51400000E+3	2.00000000E+0	-9.77631336E+0	7.16220300E+6
137	17/03/2023	15:23:28.806	2.65532074E+0	2.43100000E+3	2.00000000E+0	-9.77631336E+0	7.16220300E+6
138	17/03/2023	15:23:30.318	5.62242308E+0	-2.51100000E+3	2.00000000E+0	-9.77631336E+0	7.16220300E+6
139	17/03/2023	15:23:31.822	5.54380657E+0	2.50600000E+3	2.00000000E+0	-9.77631336E+0	7.16220300E+6
140	17/03/2023	15:23:33.331	7.85781659E-1	-2.48800000E+3	2.00000000E+0	-9.77631336E+0	7.16220300E+6
141	17/03/2023	15:23:34.841	2.74582561E-1	2.50200000E+3	2.00000000E+0	-9.77631336E+0	7.16220300E+6
142	17/03/2023	15:23:36.352	3.17188877E+0	-2.50600000E+3	2.00000000E+0	-9.77631336E+0	7.16220300E+6
143	17/03/2023	15:23:37.847	1.34530115E+0	2.49200000E+3	2.00000000E+0	-9.77631336E+0	7.16220300E+6
144	17/03/2023	15:23:39.436	4.00867529E+0	-2.47500000E+3	2.00000000E+0	-9.77631336E+0	7.16220300E+6
145	17/03/2023	15:23:40.933	3.69881117E+0	2.50900000E+3	2.00000000E+0	-9.77631336E+0	7.16220300E+6
146	17/03/2023	15:23:42.438	3.20333538E+0	-2.50700000E+3	2.00000000E+0	-9.77631336E+0	7.16220300E+6
147	17/03/2023	15:23:43.943	3.49057328E+0	2.50900000E+3	2.00000000E+0	-9.77631336E+0	7.16220300E+6
148	17/03/2023	15:23:45.453	5.00461232E+0	-2.49500000E+3	2.00000000E+0	-9.77631336E+0	7.16220300E+6
149	17/03/2023	15:23:46.954	3.02731108E+0	2.49000000E+3	2.00000000E+0	-9.77631336E+0	7.16220300E+6
150	17/03/2023	15:23:48.458	2.47737897E+0	-2.48900000E+3	2.00000000E+0	-9.77631336E+0	7.16220300E+6
151	17/03/2023	15:23:49.962	5.40996674E+0	2.50200000E+3	2.00000000E+0	-9.77631336E+0	7.16220300E+6
152	17/03/2023	15:23:51.466	2.83479650E+0	-2.50800000E+3	2.00000000E+0	-9.77631336E+0	7.16220300E+6
153	17/03/2023	15:23:52.972	2.38802459E+0	2.49300000E+3	2.00000000E+0	-9.77631336E+0	7.16220300E+6
154	17/03/2023	15:23:54.477	4.33771417E+0	-2.47100000E+3	2.00000000E+0	-9.77631336E+0	7.16220300E+6
155	17/03/2023	15:23:56.031	2.59089355E+0	2.48700000E+3	2.00000000E+0	-9.77631336E+0	7.16220300E+6
156	17/03/2023	15:23:57.557	2.04211192E+0	-2.50700000E+3	2.00000000E+0	-9.77631336E+0	7.16220300E+6
157	17/03/2023	15:23:59.046	4.80711229E+0	2.51000000E+3	2.00000000E+0	-9.77631336E+0	7.16220300E+6
158	17/03/2023	15:24:00.560	3.60792281E+0	-2.50600000E+3	2.00000000E+0	-9.77631336E+0	7.16220300E+6
159	17/03/2023	15:24:02.145	5.99402993E-1	2.49400000E+3	2.00000000E+0	-9.77631336E+0	7.16220300E+6
160	17/03/2023	15:24:03.636	1.91747598E+0	-2.47000000E+3	2.00000000E+0	-9.77631336E+0	7.16220300E+6
161	17/03/2023	15:24:05.137	3.52968979E+0	2.49000000E+3	2.00000000E+0	-9.77631336E+0	7.16220300E+6
162	17/03/2023	15:24:06.647	7.16752523E-1	-2.51300000E+3	2.00000000E+0	-9.77631336E+0	7.16220300E+6
163	17/03/2023	15:24:08.171	4.64029188E+0	2.51000000E+3	2.00000000E+0	-9.77631336E+0	7.16220300E+6
164	17/03/2023	15:24:09.672	2.63691297E+0	-2.51700000E+3	2.00000000E+0	-9.77631336E+0	7.16220300E+6
165	17/03/2023	15:24:11.180	1.53819924E+0	2.48100000E+3	2.00000000E+0	-9.77631336E+0	7.16220300E+6
166	17/03/2023	15:24:12.676	2.89615573E+0	-2.47400000E+3	2.00000000E+0	-9.77631336E+0	7.16220300E+6
167	17/03/2023	15:24:14.254	4.54556857E+0	2.48500000E+3	2.00000000E+0	-9.77631336E+0	7.16220300E+6
168	17/03/2023	15:24:15.751	5.62434056E+0	-2.50900000E+3	2.00000000E+0	-9.77631336E+0	7.16220300E+6
169	17/03/2023	15:24:17.277	3.52201989E+0	2.50700000E+3	2.00000000E+0	-9.77631336E+0	7.16220300E+6
170	17/03/2023	15:24:18.778	5.23547643E+0	-2.47400000E+3	2.00000000E+0	-9.77631336E+0	7.16220300E+6
171	17/03/2023	15:24:20.288	2.33663624E+0	2.48000000E+3	2.00000000E+0	-9.77631336E+0	7.16220300E+6
172	17/03/2023	15:24:21.769	8.01888457E-1	-2.50600000E+3	2.00000000E+0	-9.77631336E+0	7.16220300E+6
173	17/03/2023	15:24:23.373	4.56320935E+0	2.51100000E+3	2.00000000E+0	-9.77631336E+0	7.16220300E+6
174	17/03/2023	15:24:24.880	2.10155368E+0	-2.49100000E+3	2.00000000E+0	-9.77631336E+0	7.16220300E+6
175	17/03/2023	15:24:26.380	3.46411211E+0	2.46000000E+3	2.00000000E+0	-9.77631336E+0	7.16220300E+6
176	17/03/2023	15:24:27.886	4.71315597E-1	-2.50700000E+3	2.00000000E+0	-9.77631336E+0	7.16220300E+6
177	17/03/2023	15:24:29.389	3.82344711E-1	2.48800000E+3	2.00000000E+0	-9.77631336E+0	7.16220300E+6
178	17/03/2023	15:24:30.903	1.48297593E+0	-2.51100000E+3	2.00000000E+0	-9.77631336E+0	7.16220300E+6
179	17/03/2023	15:24:32.399	6.35835037E-1	2.50000000E+3	2.00000000E+0	-9.77631336E+0	7.16220300E+6
180	17/03/2023	15:24:33.901	5.51734540E+0	-2.50200000E+3	2.00000000E+0	-9.77631336E+0	7.16220300E+6
181	17/03/2023	15:24:35.409	7.73893307E-1	2.51400000E+3	2.00000000E+0	-9.77631336E+0	7.16220300E+6
182	17/03/2023	15:24:36.992	2.18132068E+0	-2.47300000E+3	2.00000000E+0	-9.77631336E+0	7.16220300E+6
183	17/03/2023	15:24:38.496	4.75150549E+0	2.48800000E+3	2.00000000E+0	-9.77631336E+0	7.16220300E+6
184	17/03/2023	15:24:40.001	5.75089397E+0	-2.49700000E+3	2.00000000E+0	-9.77631336E+0	7.16220300E+6
185	17/03/2023	15:24:41.509	3.87330149E+0	2.50600000E+3	2.00000000E+0	-9.77631336E+0	7.16220300E+6
186	17/03/2023	15:24:43.071	6.22911248E+0	-2.52300000E+3	2.00000000E+0	-9.77631336E+0	7.16220300E+6
187	17/03/2023	15:24:44.578	9.37262261E-1	2.51200000E+3	2.00000000E+0	-9.77631336E+0	7.16220300E+6
188	17/03/2023	15:24:46.071	1.64135944E+0	-2.46500000E+3	2.00000000E+0	-9.77631336E+0	7.16220300E+6
189	17/03/2023	15:24:47.600	3.86218013E+0	2.47300000E+3	2.00000000E+0	-9.77631336E+0	7.16220300E+6
190	17/03/2023	15:24:49.091	1.33801474E+0	-2.50400000E+3	2.00000000E+0	-9.77631336E+0	7.16220300E+6
191	17/03/2023	15:24:50.587	5.42645704E-1	2.52300000E+3	2.00000000E+0	-9.77631336E+0	7.16220300E+6
192	17/03/2023	15:24:52.103	1.56542739E+0	-2.51200000E+3	2.00000000E+0	-9.77631336E+0	7.16220300E+6
193	17/03/2023	15:24:53.599	4.65371422E+0	2.50100000E+3	2.00000000E+0	-9.77631336E+0	7.16220300E+6
194	17/03/2023	15:24:55.106	1.75103907E+0	-2.47600000E+3	2.00000000E+0	-9.77631336E+0	7.16220300E+6
195	17/03/2023	15:24:56.616	1.30273318E+0	2.49600000E+3	2.00000000E+0	-9.77631336E+0	7.16220300E+6
196	17/03/2023	15:24:58.111	5.94992798E+0	-2.51100000E+3	2.00000000E+0	-9.77631336E+0	7.16220300E+6
197	17/03/2023	15:24:59.628	4.92254435E+0	2.49600000E+3	2.00000000E+0	-9.77631336E+0	7.16220300E+6
198	17/03/2023	15:25:01.123	2.83211203E+0	-2.48300000E+3	2.00000000E+0	-9.77631336E+0	7.16220300E+6
199	17/03/2023	15:25:02.626	1.54356817E+0	2.48700000E+3	2.00000000E+0	-9.77631336E+0	7.16220300E+6
200	17/03/2023	15:25:04.132	2.21276729E+0	-2.50300000E+3	2.00000000E+0	-9.77631336E+0	7.16220300E+6
201	17/03/2023	15:25:05.647	2.34929158E+0	2.52100000E+3	2.00000000E+0	-9.77631336E+0	7.16220300E+6
202	17/03/2023	15:25:07.155	1.88948084E+0	-2.50100000E+3	2.00000000E+0	-9.77631336E+0	7.16220300E+6
203	17/03/2023	15:25:08.652	2.77497125E+0	2.46300000E+3	2.00000000E+0	-9.77631336E+0	7.16220300E+6
204	17/03/2023	15:25:10.157	5.27420944E+0	-2.50500000E+3	2.00000000E+0	-9.77631336E+0	7.16220300E+6
205	17/03/2023	15:25:11.664	1.46610214E+0	2.51100000E+3	2.00000000E+0	-9.77631336E+0	7.16220300E+6
206	17/03/2023	15:25:13.156	5.81378719E+0	-2.49300000E+3	2.00000000E+0	-9.77631336E+0	7.16220300E+6
207	17/03/2023	15:25:14.671	2.42368964E-1	2.48100000E+3	2.00000000E+0	-9.77631336E+0	7.16220300E+6
208	17/03/2023	15:25:16.251	2.22158768E+0	-2.50000000E+3	2.00000000E+0	-9.77631336E+0	7.16220300E+6
209	17/03/2023	15:25:17.762	3.52508785E+0	2.51800000E+3	2.00000000E+0	-9.77631336E+0	7.16220300E+6
210	17/03/2023	15:25:19.264	5.54649103E+0	-2.48100000E+3	2.00000000E+0	-9.77631336E+0	7.16220300E+6
211	17/03/2023	15:25:20.767	5.52808326E+0	2.49200000E+3	2.00000000E+0	-9.77631336E+0	7.16220300E+6
212	17/03/2023	15:25:22.279	4.83242298E+0	-2.51700000E+3	2.00000000E+0	-9.77631336E+0	7.16220300E+6
213	17/03/2023	15:25:23.755	3.99947141E+0	2.50500000E+3	2.00000000E+0	-9.77631336E+0	7.16220300E+6
214	17/03/2023	15:25:25.334	1.22603414E+0	-2.47400000E+3	2.00000000E+0	-9.77631336E+0	7.16220300E+6
215	17/03/2023	15:25:26.861	4.74000063E+0	2.50100000E+3	2.00000000E+0	-9.77631336E+0	7.16220300E+6
216	17/03/2023	15:25:28.345	6.90291355E-3	-2.52200000E+3	2.00000000E+0	-9.77631336E+0	7.16220300E+6
217	17/03/2023	15:25:29.849	6.60378729E-1	2.48600000E+3	2.00000000E+0	-9.77631336E+0	7.16220300E+6
218	17/03/2023	15:25:31.350	5.10815602E+0	-2.47400000E+3	2.00000000E+0	-9.77631336E+0	7.16220300E+6
219	17/03/2023	15:25:32.863	6.10792800E+0	2.50900000E+3	2.00000000E+0	-9.77631336E+0	7.16220300E+6
220	17/03/2023	15:25:34.362	2.22849059E+0	-2.50700000E+3	2.00000000E+0	-9.77631336E+0	7.16220300E+6
221	17/03/2023	15:25:35.883	3.51396649E+0	2.51000000E+3	2.00000000E+0	-9.77631336E+0	7.16220300E+6
222	17/03/2023	15:25:37.380	5.93650565E-1	-2.50400000E+3	2.00000000E+0	-9.77631336E+0	7.16220300E+6
223	17/03/2023	15:25:38.901	5.78655903E+0	2.48000000E+3	2.00000000E+0	-9.77631336E+0	7.16220300E+6
224	17/03/2023	15:25:40.384	3.08598585E+0	-2.49800000E+3	2.00000000E+0	-9.77631336E+0	7.16220300E+6
225	17/03/2023	15:25:41.895	3.19336451E+0	2.51500000E+3	2.00000000E+0	-9.77631336E+0	7.16220300E+6
226	17/03/2023	15:25:43.388	5.02186960E+0	-2.50800000E+3	2.00000000E+0	-9.77631336E+0	7.16220300E+6
227	17/03/2023	15:25:44.895	6.07494742E+0	2.49200000E+3	2.00000000E+0	-9.77631336E+0	7.16220300E+6
228	17/03/2023	15:25:46.395	4.85926764E+0	-2.47600000E+3	2.00000000E+0	-9.77631336E+0	7.16220300E+6
229	17/03/2023	15:25:47.897	4.27942290E+0	2.49900000E+3	2.00000000E+0	-9.77631336E+0	7.16220300E+6
230	17/03/2023	15:25:49.399	4.46925303E+0	-2.51700000E+3	2.00000000E+0	-9.77631336E+0	7.16220300E+6
231	17/03/2023	15:25:50.909	5.03605893E+0	2.51600000E+3	2.00000000E+0	-9.77631336E+0	7.16220300E+6
232	17/03/2023	15:25:52.404	5.38043761E+0	-2.50000000E+3	2.00000000E+0	-9.77631336E+0	7.16220300E+6
233	17/03/2023	15:25:53.940	1.58306817E+0	2.47600000E+3	2.00000000E+0	-9.77631336E+0	7.16220300E+6
234	17/03/2023	15:25:55.447	5.13960263E+0	-2.50000000E+3	2.00000000E+0	-9.77631336E+0	7.16220300E+6
235	17/03/2023	15:25:56.952	2.17556825E+0	2.48600000E+3	2.00000000E+0	-9.77631336E+0	7.16220300E+6
236	17/03/2023	15:25:58.439	3.29652471E+0	-2.51600000E+3	2.00000000E+0	-9.77631336E+0	7.16220300E+6
237	17/03/2023	15:25:59.982	2.64419938E+0	2.48000000E+3	2.00000000E+0	-9.77631336E+0	7.16220300E+6
238	17/03/2023	15:26:01.535	4.17204425E+0	-2.49600000E+3	2.00000000E+0	-9.77631336E+0	7.16220300E+6
239	17/03/2023	15:26:03.042	3.46641309E+0	2.52000000E+3	2.00000000E+0	-9.77631336E+0	7.16220300E+6
240	17/03/2023	15:26:04.572	1.19650501E+0	-2.50700000E+3	2.00000000E+0	-9.77631336E+0	7.16220300E+6
241	17/03/2023	15:26:06.085	1.41893223E-1	2.49100000E+3	2.00000000E+0	-9.77631336E+0	7.16220300E+6
242	17/03/2023	15:26:07.599	5.00154436E+0	-2.49600000E+3	2.00000000E+0	-9.77631336E+0	7.16220300E+6
