#Iteration	Date	Time	Chirp	Phase	RamanAxis	RatioMean	RatioStdDev
1	10/05/2023	13:49:01.002	0.00000000E+0	-1.56922630E+3	5.00000000E+0	4.91198285E-1	0.00000000E+0
2	10/05/2023	13:49:02.547	0.00000000E+0	-1.56294311E+3	5.00000000E+0	4.82861954E-1	0.00000000E+0
3	10/05/2023	13:49:04.034	0.00000000E+0	-1.55665993E+3	5.00000000E+0	4.60964137E-1	0.00000000E+0
4	10/05/2023	13:49:05.526	0.00000000E+0	-1.55037674E+3	5.00000000E+0	4.75660651E-1	0.00000000E+0
5	10/05/2023	13:49:07.049	0.00000000E+0	-1.54409356E+3	5.00000000E+0	5.50095597E-1	0.00000000E+0
6	10/05/2023	13:49:08.516	0.00000000E+0	-1.53781037E+3	5.00000000E+0	5.17712181E-1	0.00000000E+0
7	10/05/2023	13:49:10.114	0.00000000E+0	-1.53152719E+3	5.00000000E+0	3.98510774E-1	0.00000000E+0
8	10/05/2023	13:49:11.569	0.00000000E+0	-1.52524400E+3	5.00000000E+0	3.87873885E-1	0.00000000E+0
9	10/05/2023	13:49:13.000	0.00000000E+0	-1.51896082E+3	5.00000000E+0	5.65357985E-1	0.00000000E+0
10	10/05/2023	13:49:14.575	0.00000000E+0	-1.51267763E+3	5.00000000E+0	5.97513758E-1	0.00000000E+0
11	10/05/2023	13:49:16.022	0.00000000E+0	-1.50639444E+3	5.00000000E+0	4.32855058E-1	0.00000000E+0
12	10/05/2023	13:49:17.486	0.00000000E+0	-1.50011126E+3	5.00000000E+0	4.74816130E-1	0.00000000E+0
13	10/05/2023	13:49:19.145	0.00000000E+0	-1.49382807E+3	5.00000000E+0	3.51119879E-1	0.00000000E+0
14	10/05/2023	13:49:20.586	0.00000000E+0	-1.48754489E+3	5.00000000E+0	6.30080578E-1	0.00000000E+0
15	10/05/2023	13:49:22.161	0.00000000E+0	-1.48126170E+3	5.00000000E+0	6.03378496E-1	0.00000000E+0
16	10/05/2023	13:49:23.648	0.00000000E+0	-1.47497852E+3	5.00000000E+0	4.15937705E-1	0.00000000E+0
17	10/05/2023	13:49:25.088	0.00000000E+0	-1.46869533E+3	5.00000000E+0	5.00755153E-1	0.00000000E+0
18	10/05/2023	13:49:26.652	0.00000000E+0	-1.46241215E+3	5.00000000E+0	4.52684157E-1	0.00000000E+0
19	10/05/2023	13:49:28.114	0.00000000E+0	-1.45612896E+3	5.00000000E+0	4.32321383E-1	0.00000000E+0
20	10/05/2023	13:49:29.574	0.00000000E+0	-1.44984578E+3	5.00000000E+0	4.21707664E-1	0.00000000E+0
21	10/05/2023	13:49:31.141	0.00000000E+0	-1.44356259E+3	5.00000000E+0	3.87221052E-1	0.00000000E+0
22	10/05/2023	13:49:32.627	0.00000000E+0	-1.43727941E+3	5.00000000E+0	4.85134799E-1	0.00000000E+0
23	10/05/2023	13:49:34.187	0.00000000E+0	-1.43099622E+3	5.00000000E+0	6.26539159E-1	0.00000000E+0
24	10/05/2023	13:49:35.665	0.00000000E+0	-1.42471304E+3	5.00000000E+0	4.90540854E-1	0.00000000E+0
25	10/05/2023	13:49:37.173	0.00000000E+0	-1.41842985E+3	5.00000000E+0	4.96695906E-1	0.00000000E+0
26	10/05/2023	13:49:38.726	0.00000000E+0	-1.41214666E+3	5.00000000E+0	4.42939108E-1	0.00000000E+0
27	10/05/2023	13:49:40.220	0.00000000E+0	-1.40586348E+3	5.00000000E+0	4.81380146E-1	0.00000000E+0
28	10/05/2023	13:49:41.762	0.00000000E+0	-1.39958029E+3	5.00000000E+0	5.77768652E-1	0.00000000E+0
29	10/05/2023	13:49:43.261	0.00000000E+0	-1.39329711E+3	5.00000000E+0	4.71212449E-1	0.00000000E+0
30	10/05/2023	13:49:44.750	0.00000000E+0	-1.38701392E+3	5.00000000E+0	5.57405058E-1	0.00000000E+0
31	10/05/2023	13:49:46.288	0.00000000E+0	-1.38073074E+3	5.00000000E+0	3.58186980E-1	0.00000000E+0
32	10/05/2023	13:49:47.760	0.00000000E+0	-1.37444755E+3	5.00000000E+0	3.36819091E-1	0.00000000E+0
33	10/05/2023	13:49:49.192	0.00000000E+0	-1.36816437E+3	5.00000000E+0	4.06317574E-1	0.00000000E+0
34	10/05/2023	13:49:50.588	0.00000000E+0	-1.36188118E+3	5.00000000E+0	3.73644223E-1	0.00000000E+0
35	10/05/2023	13:49:52.038	0.00000000E+0	-1.35559800E+3	5.00000000E+0	6.58168364E-1	0.00000000E+0
36	10/05/2023	13:49:53.557	0.00000000E+0	-1.34931481E+3	5.00000000E+0	5.84598770E-1	0.00000000E+0
37	10/05/2023	13:49:55.038	0.00000000E+0	-1.34303163E+3	5.00000000E+0	5.22613117E-1	0.00000000E+0
38	10/05/2023	13:49:56.540	0.00000000E+0	-1.33674844E+3	5.00000000E+0	5.66236081E-1	0.00000000E+0
39	10/05/2023	13:49:58.088	0.00000000E+0	-1.33046526E+3	5.00000000E+0	5.58331317E-1	0.00000000E+0
40	10/05/2023	13:49:59.609	0.00000000E+0	-1.32418207E+3	5.00000000E+0	5.19688888E-1	0.00000000E+0
41	10/05/2023	13:50:01.218	0.00000000E+0	-1.31789889E+3	5.00000000E+0	3.78965210E-1	0.00000000E+0
42	10/05/2023	13:50:02.657	0.00000000E+0	-1.31161570E+3	5.00000000E+0	3.96818683E-1	0.00000000E+0
43	10/05/2023	13:50:04.119	0.00000000E+0	-1.30533251E+3	5.00000000E+0	3.84426972E-1	0.00000000E+0
44	10/05/2023	13:50:05.635	0.00000000E+0	-1.29904933E+3	5.00000000E+0	4.69874386E-1	0.00000000E+0
45	10/05/2023	13:50:07.076	0.00000000E+0	-1.29276614E+3	5.00000000E+0	3.16187781E-1	0.00000000E+0
46	10/05/2023	13:50:08.542	0.00000000E+0	-1.28648296E+3	5.00000000E+0	5.06389781E-1	0.00000000E+0
47	10/05/2023	13:50:10.089	0.00000000E+0	-1.28019977E+3	5.00000000E+0	4.68039661E-1	0.00000000E+0
48	10/05/2023	13:50:11.562	0.00000000E+0	-1.27391659E+3	5.00000000E+0	5.91424432E-1	0.00000000E+0
49	10/05/2023	13:50:13.134	0.00000000E+0	-1.26763340E+3	5.00000000E+0	3.80331966E-1	0.00000000E+0
50	10/05/2023	13:50:14.605	0.00000000E+0	-1.26135022E+3	5.00000000E+0	5.31004707E-1	0.00000000E+0
51	10/05/2023	13:50:16.050	0.00000000E+0	-1.25506703E+3	5.00000000E+0	5.25611344E-1	0.00000000E+0
52	10/05/2023	13:50:17.582	0.00000000E+0	-1.24878385E+3	5.00000000E+0	4.44866616E-1	0.00000000E+0
53	10/05/2023	13:50:19.067	0.00000000E+0	-1.24250066E+3	5.00000000E+0	5.92054438E-1	0.00000000E+0
54	10/05/2023	13:50:20.633	0.00000000E+0	-1.23621748E+3	5.00000000E+0	6.26476821E-1	0.00000000E+0
55	10/05/2023	13:50:22.098	0.00000000E+0	-1.22993429E+3	5.00000000E+0	5.92315601E-1	0.00000000E+0
56	10/05/2023	13:50:23.565	0.00000000E+0	-1.22365111E+3	5.00000000E+0	5.07404472E-1	0.00000000E+0
57	10/05/2023	13:50:25.112	0.00000000E+0	-1.21736792E+3	5.00000000E+0	4.38951402E-1	0.00000000E+0
58	10/05/2023	13:50:26.581	0.00000000E+0	-1.21108473E+3	5.00000000E+0	3.91511749E-1	0.00000000E+0
59	10/05/2023	13:50:28.033	0.00000000E+0	-1.20480155E+3	5.00000000E+0	3.90893371E-1	0.00000000E+0
60	10/05/2023	13:50:29.566	0.00000000E+0	-1.19851836E+3	5.00000000E+0	3.70590216E-1	0.00000000E+0
61	10/05/2023	13:50:31.005	0.00000000E+0	-1.19223518E+3	5.00000000E+0	3.33896744E-1	0.00000000E+0
62	10/05/2023	13:50:32.502	0.00000000E+0	-1.18595199E+3	5.00000000E+0	5.48370644E-1	0.00000000E+0
63	10/05/2023	13:50:33.993	0.00000000E+0	-1.17966881E+3	5.00000000E+0	5.15911677E-1	0.00000000E+0
64	10/05/2023	13:50:35.450	0.00000000E+0	-1.17338562E+3	5.00000000E+0	4.38466327E-1	0.00000000E+0
65	10/05/2023	13:50:37.002	0.00000000E+0	-1.16710244E+3	5.00000000E+0	5.92248858E-1	0.00000000E+0
66	10/05/2023	13:50:38.515	0.00000000E+0	-1.16081925E+3	5.00000000E+0	6.14954427E-1	0.00000000E+0
67	10/05/2023	13:50:39.971	0.00000000E+0	-1.15453607E+3	5.00000000E+0	3.86438860E-1	0.00000000E+0
68	10/05/2023	13:50:41.421	0.00000000E+0	-1.14825288E+3	5.00000000E+0	6.02140473E-1	0.00000000E+0
69	10/05/2023	13:50:42.924	0.00000000E+0	-1.14196970E+3	5.00000000E+0	4.54814198E-1	0.00000000E+0
70	10/05/2023	13:50:44.528	0.00000000E+0	-1.13568651E+3	5.00000000E+0	4.49619443E-1	0.00000000E+0
71	10/05/2023	13:50:46.012	0.00000000E+0	-1.12940333E+3	5.00000000E+0	4.68204530E-1	0.00000000E+0
72	10/05/2023	13:50:47.526	0.00000000E+0	-1.12312014E+3	5.00000000E+0	5.81500022E-1	0.00000000E+0
73	10/05/2023	13:50:49.075	0.00000000E+0	-1.11683696E+3	5.00000000E+0	5.24127700E-1	0.00000000E+0
74	10/05/2023	13:50:50.519	0.00000000E+0	-1.11055377E+3	5.00000000E+0	4.02162959E-1	0.00000000E+0
75	10/05/2023	13:50:52.080	0.00000000E+0	-1.10427058E+3	5.00000000E+0	3.98120010E-1	0.00000000E+0
76	10/05/2023	13:50:53.527	0.00000000E+0	-1.09798740E+3	5.00000000E+0	4.17083233E-1	0.00000000E+0
77	10/05/2023	13:50:54.987	0.00000000E+0	-1.09170421E+3	5.00000000E+0	5.08157699E-1	0.00000000E+0
78	10/05/2023	13:50:56.530	0.00000000E+0	-1.08542103E+3	5.00000000E+0	5.04146363E-1	0.00000000E+0
79	10/05/2023	13:50:57.993	0.00000000E+0	-1.07913784E+3	5.00000000E+0	4.14523128E-1	0.00000000E+0
80	10/05/2023	13:50:59.428	0.00000000E+0	-1.07285466E+3	5.00000000E+0	5.83951304E-1	0.00000000E+0
81	10/05/2023	13:51:00.962	0.00000000E+0	-1.06657147E+3	5.00000000E+0	5.19497041E-1	0.00000000E+0
82	10/05/2023	13:51:02.430	0.00000000E+0	-1.06028829E+3	5.00000000E+0	5.23905393E-1	0.00000000E+0
83	10/05/2023	13:51:03.993	0.00000000E+0	-1.05400510E+3	5.00000000E+0	5.36312570E-1	0.00000000E+0
84	10/05/2023	13:51:05.439	0.00000000E+0	-1.04772192E+3	5.00000000E+0	3.93486169E-1	0.00000000E+0
85	10/05/2023	13:51:06.875	0.00000000E+0	-1.04143873E+3	5.00000000E+0	4.85625688E-1	0.00000000E+0
86	10/05/2023	13:51:08.426	0.00000000E+0	-1.03515555E+3	5.00000000E+0	4.81920074E-1	0.00000000E+0
87	10/05/2023	13:51:09.901	0.00000000E+0	-1.02887236E+3	5.00000000E+0	5.28665931E-1	0.00000000E+0
88	10/05/2023	13:51:11.421	0.00000000E+0	-1.02258918E+3	5.00000000E+0	4.96800806E-1	0.00000000E+0
89	10/05/2023	13:51:12.894	0.00000000E+0	-1.01630599E+3	5.00000000E+0	4.95076161E-1	0.00000000E+0
90	10/05/2023	13:51:14.349	0.00000000E+0	-1.01002281E+3	5.00000000E+0	6.19674110E-1	0.00000000E+0
91	10/05/2023	13:51:15.887	0.00000000E+0	-1.00373962E+3	5.00000000E+0	5.10416721E-1	0.00000000E+0
92	10/05/2023	13:51:17.342	0.00000000E+0	-9.97456435E+2	5.00000000E+0	5.94503030E-1	0.00000000E+0
93	10/05/2023	13:51:18.810	0.00000000E+0	-9.91173249E+2	5.00000000E+0	5.11168287E-1	0.00000000E+0
94	10/05/2023	13:51:20.383	0.00000000E+0	-9.84890064E+2	5.00000000E+0	5.42933285E-1	0.00000000E+0
95	10/05/2023	13:51:21.793	0.00000000E+0	-9.78606879E+2	5.00000000E+0	6.89141095E-1	0.00000000E+0
96	10/05/2023	13:51:23.335	0.00000000E+0	-9.72323693E+2	5.00000000E+0	4.50718308E-1	0.00000000E+0
97	10/05/2023	13:51:24.800	0.00000000E+0	-9.66040508E+2	5.00000000E+0	5.91023486E-1	0.00000000E+0
98	10/05/2023	13:51:26.345	0.00000000E+0	-9.59757323E+2	5.00000000E+0	4.24915004E-1	0.00000000E+0
99	10/05/2023	13:51:27.987	0.00000000E+0	-9.53474137E+2	5.00000000E+0	4.63228766E-1	0.00000000E+0
100	10/05/2023	13:51:29.437	0.00000000E+0	-9.47190952E+2	5.00000000E+0	4.60671338E-1	0.00000000E+0
101	10/05/2023	13:51:30.887	0.00000000E+0	-9.40907767E+2	5.00000000E+0	4.52475748E-1	0.00000000E+0
102	10/05/2023	13:51:32.371	0.00000000E+0	-9.34624581E+2	5.00000000E+0	4.78019525E-1	0.00000000E+0
103	10/05/2023	13:51:33.861	0.00000000E+0	-9.28341396E+2	5.00000000E+0	4.55218044E-1	0.00000000E+0
104	10/05/2023	13:51:35.419	0.00000000E+0	-9.22058211E+2	5.00000000E+0	4.71469623E-1	0.00000000E+0
105	10/05/2023	13:51:36.945	0.00000000E+0	-9.15775026E+2	5.00000000E+0	4.55198052E-1	0.00000000E+0
106	10/05/2023	13:51:38.397	0.00000000E+0	-9.09491840E+2	5.00000000E+0	4.80849958E-1	0.00000000E+0
107	10/05/2023	13:51:39.948	0.00000000E+0	-9.03208655E+2	5.00000000E+0	4.74213828E-1	0.00000000E+0
108	10/05/2023	13:51:41.395	0.00000000E+0	-8.96925470E+2	5.00000000E+0	6.40889946E-1	0.00000000E+0
109	10/05/2023	13:51:42.947	0.00000000E+0	-8.90642284E+2	5.00000000E+0	4.82452357E-1	0.00000000E+0
110	10/05/2023	13:51:44.395	0.00000000E+0	-8.84359099E+2	5.00000000E+0	4.80621914E-1	0.00000000E+0
111	10/05/2023	13:51:45.869	0.00000000E+0	-8.78075914E+2	5.00000000E+0	3.72005135E-1	0.00000000E+0
112	10/05/2023	13:51:47.409	0.00000000E+0	-8.71792728E+2	5.00000000E+0	4.81580453E-1	0.00000000E+0
113	10/05/2023	13:51:48.890	0.00000000E+0	-8.65509543E+2	5.00000000E+0	4.83909570E-1	0.00000000E+0
114	10/05/2023	13:51:50.346	0.00000000E+0	-8.59226358E+2	5.00000000E+0	4.80330516E-1	0.00000000E+0
115	10/05/2023	13:51:51.892	0.00000000E+0	-8.52943172E+2	5.00000000E+0	4.64901640E-1	0.00000000E+0
116	10/05/2023	13:51:53.357	0.00000000E+0	-8.46659987E+2	5.00000000E+0	4.86225202E-1	0.00000000E+0
117	10/05/2023	13:51:54.960	0.00000000E+0	-8.40376802E+2	5.00000000E+0	4.78967773E-1	0.00000000E+0
118	10/05/2023	13:51:56.406	0.00000000E+0	-8.34093617E+2	5.00000000E+0	5.48947686E-1	0.00000000E+0
119	10/05/2023	13:51:57.907	0.00000000E+0	-8.27810431E+2	5.00000000E+0	5.70321074E-1	0.00000000E+0
120	10/05/2023	13:51:59.467	0.00000000E+0	-8.21527246E+2	5.00000000E+0	4.99149865E-1	0.00000000E+0
121	10/05/2023	13:52:00.971	0.00000000E+0	-8.15244061E+2	5.00000000E+0	3.62431367E-1	0.00000000E+0
122	10/05/2023	13:52:02.518	0.00000000E+0	-8.08960875E+2	5.00000000E+0	5.00580759E-1	0.00000000E+0
123	10/05/2023	13:52:03.959	0.00000000E+0	-8.02677690E+2	5.00000000E+0	5.90149550E-1	0.00000000E+0
124	10/05/2023	13:52:05.416	0.00000000E+0	-7.96394505E+2	5.00000000E+0	4.32449448E-1	0.00000000E+0
125	10/05/2023	13:52:06.953	0.00000000E+0	-7.90111319E+2	5.00000000E+0	4.65544008E-1	0.00000000E+0
126	10/05/2023	13:52:08.416	0.00000000E+0	-7.83828134E+2	5.00000000E+0	5.58428392E-1	0.00000000E+0
127	10/05/2023	13:52:09.883	0.00000000E+0	-7.77544949E+2	5.00000000E+0	5.60497998E-1	0.00000000E+0
128	10/05/2023	13:52:11.437	0.00000000E+0	-7.71261763E+2	5.00000000E+0	3.95048214E-1	0.00000000E+0
129	10/05/2023	13:52:12.888	0.00000000E+0	-7.64978578E+2	5.00000000E+0	6.06137463E-1	0.00000000E+0
130	10/05/2023	13:52:14.472	0.00000000E+0	-7.58695393E+2	5.00000000E+0	4.77372869E-1	0.00000000E+0
131	10/05/2023	13:52:15.931	0.00000000E+0	-7.52412208E+2	5.00000000E+0	5.96759167E-1	0.00000000E+0
132	10/05/2023	13:52:17.422	0.00000000E+0	-7.46129022E+2	5.00000000E+0	6.15759004E-1	0.00000000E+0
133	10/05/2023	13:52:18.973	0.00000000E+0	-7.39845837E+2	5.00000000E+0	5.09474613E-1	0.00000000E+0
134	10/05/2023	13:52:20.437	0.00000000E+0	-7.33562652E+2	5.00000000E+0	5.57527007E-1	0.00000000E+0
135	10/05/2023	13:52:21.935	0.00000000E+0	-7.27279466E+2	5.00000000E+0	6.49005407E-1	0.00000000E+0
136	10/05/2023	13:52:23.404	0.00000000E+0	-7.20996281E+2	5.00000000E+0	3.58680171E-1	0.00000000E+0
137	10/05/2023	13:52:24.873	0.00000000E+0	-7.14713096E+2	5.00000000E+0	3.88658117E-1	0.00000000E+0
138	10/05/2023	13:52:26.426	0.00000000E+0	-7.08429910E+2	5.00000000E+0	5.24906917E-1	0.00000000E+0
139	10/05/2023	13:52:27.867	0.00000000E+0	-7.02146725E+2	5.00000000E+0	6.30460909E-1	0.00000000E+0
140	10/05/2023	13:52:29.304	0.00000000E+0	-6.95863540E+2	5.00000000E+0	3.48964388E-1	0.00000000E+0
141	10/05/2023	13:52:30.857	0.00000000E+0	-6.89580354E+2	5.00000000E+0	6.47444466E-1	0.00000000E+0
142	10/05/2023	13:52:32.344	0.00000000E+0	-6.83297169E+2	5.00000000E+0	5.79769131E-1	0.00000000E+0
143	10/05/2023	13:52:33.846	0.00000000E+0	-6.77013984E+2	5.00000000E+0	6.02590404E-1	0.00000000E+0
144	10/05/2023	13:52:35.326	0.00000000E+0	-6.70730799E+2	5.00000000E+0	4.17877529E-1	0.00000000E+0
145	10/05/2023	13:52:36.795	0.00000000E+0	-6.64447613E+2	5.00000000E+0	5.93592645E-1	0.00000000E+0
146	10/05/2023	13:52:38.407	0.00000000E+0	-6.58164428E+2	5.00000000E+0	5.20806119E-1	0.00000000E+0
147	10/05/2023	13:52:39.873	0.00000000E+0	-6.51881243E+2	5.00000000E+0	4.46788691E-1	0.00000000E+0
148	10/05/2023	13:52:41.349	0.00000000E+0	-6.45598057E+2	5.00000000E+0	4.14880018E-1	0.00000000E+0
149	10/05/2023	13:52:42.899	0.00000000E+0	-6.39314872E+2	5.00000000E+0	5.45509351E-1	0.00000000E+0
150	10/05/2023	13:52:44.399	0.00000000E+0	-6.33031687E+2	5.00000000E+0	5.64073965E-1	0.00000000E+0
151	10/05/2023	13:52:45.935	0.00000000E+0	-6.26748501E+2	5.00000000E+0	3.73602162E-1	0.00000000E+0
152	10/05/2023	13:52:47.433	0.00000000E+0	-6.20465316E+2	5.00000000E+0	4.05369525E-1	0.00000000E+0
153	10/05/2023	13:52:48.876	0.00000000E+0	-6.14182131E+2	5.00000000E+0	3.38461131E-1	0.00000000E+0
154	10/05/2023	13:52:50.469	0.00000000E+0	-6.07898945E+2	5.00000000E+0	4.78496782E-1	0.00000000E+0
155	10/05/2023	13:52:51.939	0.00000000E+0	-6.01615760E+2	5.00000000E+0	5.09325066E-1	0.00000000E+0
156	10/05/2023	13:52:53.398	0.00000000E+0	-5.95332575E+2	5.00000000E+0	4.76229231E-1	0.00000000E+0
157	10/05/2023	13:52:55.048	0.00000000E+0	-5.89049390E+2	5.00000000E+0	5.25297773E-1	0.00000000E+0
158	10/05/2023	13:52:56.530	0.00000000E+0	-5.82766204E+2	5.00000000E+0	6.42735223E-1	0.00000000E+0
159	10/05/2023	13:52:58.144	0.00000000E+0	-5.76483019E+2	5.00000000E+0	5.40591408E-1	0.00000000E+0
160	10/05/2023	13:52:59.639	0.00000000E+0	-5.70199834E+2	5.00000000E+0	5.89866738E-1	0.00000000E+0
161	10/05/2023	13:53:01.101	0.00000000E+0	-5.63916648E+2	5.00000000E+0	6.01017411E-1	0.00000000E+0
162	10/05/2023	13:53:02.657	0.00000000E+0	-5.57633463E+2	5.00000000E+0	5.63161713E-1	0.00000000E+0
163	10/05/2023	13:53:04.146	0.00000000E+0	-5.51350278E+2	5.00000000E+0	4.64189951E-1	0.00000000E+0
164	10/05/2023	13:53:05.812	0.00000000E+0	-5.45067092E+2	5.00000000E+0	5.61593311E-1	0.00000000E+0
165	10/05/2023	13:53:07.250	0.00000000E+0	-5.38783907E+2	5.00000000E+0	4.89444984E-1	0.00000000E+0
166	10/05/2023	13:53:08.703	0.00000000E+0	-5.32500722E+2	5.00000000E+0	4.48852516E-1	0.00000000E+0
167	10/05/2023	13:53:10.256	0.00000000E+0	-5.26217536E+2	5.00000000E+0	3.66230846E-1	0.00000000E+0
168	10/05/2023	13:53:11.737	0.00000000E+0	-5.19934351E+2	5.00000000E+0	3.51516423E-1	0.00000000E+0
169	10/05/2023	13:53:13.190	0.00000000E+0	-5.13651166E+2	5.00000000E+0	3.17313062E-1	0.00000000E+0
170	10/05/2023	13:53:14.669	0.00000000E+0	-5.07367981E+2	5.00000000E+0	3.76499337E-1	0.00000000E+0
171	10/05/2023	13:53:16.175	0.00000000E+0	-5.01084795E+2	5.00000000E+0	3.85355539E-1	0.00000000E+0
172	10/05/2023	13:53:17.842	0.00000000E+0	-4.94801610E+2	5.00000000E+0	3.92006169E-1	0.00000000E+0
173	10/05/2023	13:53:19.292	0.00000000E+0	-4.88518425E+2	5.00000000E+0	3.81415187E-1	0.00000000E+0
174	10/05/2023	13:53:20.755	0.00000000E+0	-4.82235239E+2	5.00000000E+0	3.56183072E-1	0.00000000E+0
175	10/05/2023	13:53:22.292	0.00000000E+0	-4.75952054E+2	5.00000000E+0	3.09506960E-1	0.00000000E+0
176	10/05/2023	13:53:23.749	0.00000000E+0	-4.69668869E+2	5.00000000E+0	5.02162632E-1	0.00000000E+0
177	10/05/2023	13:53:25.308	0.00000000E+0	-4.63385683E+2	5.00000000E+0	4.42626656E-1	0.00000000E+0
178	10/05/2023	13:53:26.785	0.00000000E+0	-4.57102498E+2	5.00000000E+0	2.84497532E-1	0.00000000E+0
179	10/05/2023	13:53:28.228	0.00000000E+0	-4.50819313E+2	5.00000000E+0	2.74245613E-1	0.00000000E+0
180	10/05/2023	13:53:29.770	0.00000000E+0	-4.44536127E+2	5.00000000E+0	3.26843209E-1	0.00000000E+0
181	10/05/2023	13:53:31.290	0.00000000E+0	-4.38252942E+2	5.00000000E+0	3.49126954E-1	0.00000000E+0
182	10/05/2023	13:53:32.796	0.00000000E+0	-4.31969757E+2	5.00000000E+0	2.96442407E-1	0.00000000E+0
183	10/05/2023	13:53:34.327	0.00000000E+0	-4.25686572E+2	5.00000000E+0	2.65298780E-1	0.00000000E+0
184	10/05/2023	13:53:35.797	0.00000000E+0	-4.19403386E+2	5.00000000E+0	3.21675418E-1	0.00000000E+0
185	10/05/2023	13:53:37.270	0.00000000E+0	-4.13120201E+2	5.00000000E+0	5.66207698E-1	0.00000000E+0
186	10/05/2023	13:53:38.768	0.00000000E+0	-4.06837016E+2	5.00000000E+0	6.36472650E-1	0.00000000E+0
187	10/05/2023	13:53:40.257	0.00000000E+0	-4.00553830E+2	5.00000000E+0	6.09770632E-1	0.00000000E+0
188	10/05/2023	13:53:41.880	0.00000000E+0	-3.94270645E+2	5.00000000E+0	6.64268016E-1	0.00000000E+0
189	10/05/2023	13:53:43.379	0.00000000E+0	-3.87987460E+2	5.00000000E+0	5.64005919E-1	0.00000000E+0
190	10/05/2023	13:53:44.993	0.00000000E+0	-3.81704274E+2	5.00000000E+0	6.74633654E-1	0.00000000E+0
191	10/05/2023	13:53:46.465	0.00000000E+0	-3.75421089E+2	5.00000000E+0	6.39529297E-1	0.00000000E+0
192	10/05/2023	13:53:47.936	0.00000000E+0	-3.69137904E+2	5.00000000E+0	6.38503833E-1	0.00000000E+0
193	10/05/2023	13:53:49.477	0.00000000E+0	-3.62854718E+2	5.00000000E+0	6.38643786E-1	0.00000000E+0
194	10/05/2023	13:53:50.962	0.00000000E+0	-3.56571533E+2	5.00000000E+0	6.32082009E-1	0.00000000E+0
195	10/05/2023	13:53:52.464	0.00000000E+0	-3.50288348E+2	5.00000000E+0	6.23537490E-1	0.00000000E+0
196	10/05/2023	13:53:54.039	0.00000000E+0	-3.44005163E+2	5.00000000E+0	6.10492821E-1	0.00000000E+0
197	10/05/2023	13:53:55.489	0.00000000E+0	-3.37721977E+2	5.00000000E+0	6.60156680E-1	0.00000000E+0
198	10/05/2023	13:53:57.007	0.00000000E+0	-3.31438792E+2	5.00000000E+0	5.94053232E-1	0.00000000E+0
199	10/05/2023	13:53:58.512	0.00000000E+0	-3.25155607E+2	5.00000000E+0	6.70085398E-1	0.00000000E+0
200	10/05/2023	13:53:59.973	0.00000000E+0	-3.18872421E+2	5.00000000E+0	6.29441264E-1	0.00000000E+0
201	10/05/2023	13:54:01.589	0.00000000E+0	-3.12589236E+2	5.00000000E+0	6.12348703E-1	0.00000000E+0
202	10/05/2023	13:54:03.033	0.00000000E+0	-3.06306051E+2	5.00000000E+0	5.04095969E-1	0.00000000E+0
203	10/05/2023	13:54:04.500	0.00000000E+0	-3.00022865E+2	5.00000000E+0	5.79732487E-1	0.00000000E+0
204	10/05/2023	13:54:05.959	0.00000000E+0	-2.93739680E+2	5.00000000E+0	5.88613253E-1	0.00000000E+0
205	10/05/2023	13:54:07.452	0.00000000E+0	-2.87456495E+2	5.00000000E+0	5.72622239E-1	0.00000000E+0
206	10/05/2023	13:54:09.022	0.00000000E+0	-2.81173309E+2	5.00000000E+0	5.79806263E-1	0.00000000E+0
207	10/05/2023	13:54:10.462	0.00000000E+0	-2.74890124E+2	5.00000000E+0	5.14554101E-1	0.00000000E+0
208	10/05/2023	13:54:11.948	0.00000000E+0	-2.68606939E+2	5.00000000E+0	5.29989082E-1	0.00000000E+0
209	10/05/2023	13:54:13.479	0.00000000E+0	-2.62323754E+2	5.00000000E+0	5.01907173E-1	0.00000000E+0
210	10/05/2023	13:54:14.944	0.00000000E+0	-2.56040568E+2	5.00000000E+0	5.48049104E-1	0.00000000E+0
211	10/05/2023	13:54:16.511	0.00000000E+0	-2.49757383E+2	5.00000000E+0	4.96836407E-1	0.00000000E+0
212	10/05/2023	13:54:18.164	0.00000000E+0	-2.43474198E+2	5.00000000E+0	4.95546318E-1	0.00000000E+0
213	10/05/2023	13:54:19.644	0.00000000E+0	-2.37191012E+2	5.00000000E+0	4.64985393E-1	0.00000000E+0
214	10/05/2023	13:54:21.151	0.00000000E+0	-2.30907827E+2	5.00000000E+0	4.41515995E-1	0.00000000E+0
215	10/05/2023	13:54:22.597	0.00000000E+0	-2.24624642E+2	5.00000000E+0	4.03948942E-1	0.00000000E+0
216	10/05/2023	13:54:24.063	0.00000000E+0	-2.18341456E+2	5.00000000E+0	4.24074573E-1	0.00000000E+0
217	10/05/2023	13:54:25.598	0.00000000E+0	-2.12058271E+2	5.00000000E+0	4.55415846E-1	0.00000000E+0
218	10/05/2023	13:54:27.059	0.00000000E+0	-2.05775086E+2	5.00000000E+0	3.85946437E-1	0.00000000E+0
219	10/05/2023	13:54:28.558	0.00000000E+0	-1.99491900E+2	5.00000000E+0	4.64765089E-1	0.00000000E+0
220	10/05/2023	13:54:30.021	0.00000000E+0	-1.93208715E+2	5.00000000E+0	4.11123617E-1	0.00000000E+0
221	10/05/2023	13:54:31.509	0.00000000E+0	-1.86925530E+2	5.00000000E+0	3.84405683E-1	0.00000000E+0
222	10/05/2023	13:54:33.088	0.00000000E+0	-1.80642345E+2	5.00000000E+0	4.93897109E-1	0.00000000E+0
223	10/05/2023	13:54:34.536	0.00000000E+0	-1.74359159E+2	5.00000000E+0	3.24171675E-1	0.00000000E+0
224	10/05/2023	13:54:36.172	0.00000000E+0	-1.68075974E+2	5.00000000E+0	3.00375632E-1	0.00000000E+0
225	10/05/2023	13:54:37.614	0.00000000E+0	-1.61792789E+2	5.00000000E+0	3.38520108E-1	0.00000000E+0
226	10/05/2023	13:54:39.097	0.00000000E+0	-1.55509603E+2	5.00000000E+0	5.30656494E-1	0.00000000E+0
227	10/05/2023	13:54:40.644	0.00000000E+0	-1.49226418E+2	5.00000000E+0	3.23567424E-1	0.00000000E+0
228	10/05/2023	13:54:42.150	0.00000000E+0	-1.42943233E+2	5.00000000E+0	5.00208097E-1	0.00000000E+0
229	10/05/2023	13:54:43.621	0.00000000E+0	-1.36660047E+2	5.00000000E+0	6.04561488E-1	0.00000000E+0
230	10/05/2023	13:54:45.180	0.00000000E+0	-1.30376862E+2	5.00000000E+0	3.33308415E-1	0.00000000E+0
231	10/05/2023	13:54:46.637	0.00000000E+0	-1.24093677E+2	5.00000000E+0	6.26692739E-1	0.00000000E+0
232	10/05/2023	13:54:48.110	0.00000000E+0	-1.17810492E+2	5.00000000E+0	6.17626607E-1	0.00000000E+0
233	10/05/2023	13:54:49.555	0.00000000E+0	-1.11527306E+2	5.00000000E+0	3.33444499E-1	0.00000000E+0
234	10/05/2023	13:54:51.022	0.00000000E+0	-1.05244121E+2	5.00000000E+0	4.00803943E-1	0.00000000E+0
235	10/05/2023	13:54:52.575	0.00000000E+0	-9.89609356E+1	5.00000000E+0	6.55819550E-1	0.00000000E+0
236	10/05/2023	13:54:54.041	0.00000000E+0	-9.26777503E+1	5.00000000E+0	3.75160054E-1	0.00000000E+0
237	10/05/2023	13:54:55.492	0.00000000E+0	-8.63945650E+1	5.00000000E+0	5.77313363E-1	0.00000000E+0
238	10/05/2023	13:54:56.978	0.00000000E+0	-8.01113797E+1	5.00000000E+0	4.80639322E-1	0.00000000E+0
239	10/05/2023	13:54:58.491	0.00000000E+0	-7.38281943E+1	5.00000000E+0	4.29522904E-1	0.00000000E+0
240	10/05/2023	13:55:00.051	0.00000000E+0	-6.75450090E+1	5.00000000E+0	6.50298601E-1	0.00000000E+0
241	10/05/2023	13:55:01.531	0.00000000E+0	-6.12618237E+1	5.00000000E+0	6.13833000E-1	0.00000000E+0
242	10/05/2023	13:55:03.020	0.00000000E+0	-5.49786384E+1	5.00000000E+0	6.37130446E-1	0.00000000E+0
243	10/05/2023	13:55:04.570	0.00000000E+0	-4.86954531E+1	5.00000000E+0	5.07334932E-1	0.00000000E+0
244	10/05/2023	13:55:06.038	0.00000000E+0	-4.24122678E+1	5.00000000E+0	5.81671971E-1	0.00000000E+0
245	10/05/2023	13:55:07.563	0.00000000E+0	-3.61290825E+1	5.00000000E+0	5.49195705E-1	0.00000000E+0
246	10/05/2023	13:55:09.036	0.00000000E+0	-2.98458972E+1	5.00000000E+0	5.74154275E-1	0.00000000E+0
247	10/05/2023	13:55:10.506	0.00000000E+0	-2.35627119E+1	5.00000000E+0	4.62861020E-1	0.00000000E+0
248	10/05/2023	13:55:12.169	0.00000000E+0	-1.72795266E+1	5.00000000E+0	5.73198997E-1	0.00000000E+0
249	10/05/2023	13:55:13.607	0.00000000E+0	-1.09963413E+1	5.00000000E+0	4.33185906E-1	0.00000000E+0
250	10/05/2023	13:55:15.064	0.00000000E+0	-4.71315597E+0	5.00000000E+0	4.23157433E-1	0.00000000E+0
251	10/05/2023	13:55:16.627	0.00000000E+0	1.57002934E+0	5.00000000E+0	3.93752337E-1	0.00000000E+0
252	10/05/2023	13:55:18.069	0.00000000E+0	7.85321464E+0	5.00000000E+0	3.47981968E-1	0.00000000E+0
253	10/05/2023	13:55:19.604	0.00000000E+0	1.41364000E+1	5.00000000E+0	3.87961763E-1	0.00000000E+0
254	10/05/2023	13:55:21.103	0.00000000E+0	2.04195853E+1	5.00000000E+0	3.25886172E-1	0.00000000E+0
255	10/05/2023	13:55:22.534	0.00000000E+0	2.67027706E+1	5.00000000E+0	3.76310263E-1	0.00000000E+0
256	10/05/2023	13:55:24.114	0.00000000E+0	3.29859559E+1	5.00000000E+0	3.06142058E-1	0.00000000E+0
257	10/05/2023	13:55:25.583	0.00000000E+0	3.92691412E+1	5.00000000E+0	3.92887074E-1	0.00000000E+0
258	10/05/2023	13:55:27.139	0.00000000E+0	4.55523265E+1	5.00000000E+0	2.93421803E-1	0.00000000E+0
259	10/05/2023	13:55:28.639	0.00000000E+0	5.18355118E+1	5.00000000E+0	3.23681734E-1	0.00000000E+0
260	10/05/2023	13:55:30.095	0.00000000E+0	5.81186971E+1	5.00000000E+0	6.04670130E-1	0.00000000E+0
261	10/05/2023	13:55:31.675	0.00000000E+0	6.44018824E+1	5.00000000E+0	2.83677261E-1	0.00000000E+0
262	10/05/2023	13:55:33.141	0.00000000E+0	7.06850677E+1	5.00000000E+0	4.95366490E-1	0.00000000E+0
263	10/05/2023	13:55:34.622	0.00000000E+0	7.69682530E+1	5.00000000E+0	3.68559786E-1	0.00000000E+0
264	10/05/2023	13:55:36.198	0.00000000E+0	8.32514383E+1	5.00000000E+0	5.32501950E-1	0.00000000E+0
265	10/05/2023	13:55:37.683	0.00000000E+0	8.95346236E+1	5.00000000E+0	6.22514863E-1	0.00000000E+0
266	10/05/2023	13:55:39.173	0.00000000E+0	9.58178089E+1	5.00000000E+0	6.51516884E-1	0.00000000E+0
267	10/05/2023	13:55:40.661	0.00000000E+0	1.02100994E+2	5.00000000E+0	6.49935299E-1	0.00000000E+0
268	10/05/2023	13:55:42.123	0.00000000E+0	1.08384180E+2	5.00000000E+0	6.34917816E-1	0.00000000E+0
269	10/05/2023	13:55:43.632	0.00000000E+0	1.14667365E+2	5.00000000E+0	6.37700912E-1	0.00000000E+0
270	10/05/2023	13:55:45.077	0.00000000E+0	1.20950550E+2	5.00000000E+0	6.48653481E-1	0.00000000E+0
271	10/05/2023	13:55:46.539	0.00000000E+0	1.27233735E+2	5.00000000E+0	5.97276538E-1	0.00000000E+0
272	10/05/2023	13:55:47.956	0.00000000E+0	1.33516921E+2	5.00000000E+0	6.75304252E-1	0.00000000E+0
273	10/05/2023	13:55:49.439	0.00000000E+0	1.39800106E+2	5.00000000E+0	6.11973312E-1	0.00000000E+0
274	10/05/2023	13:55:50.981	0.00000000E+0	1.46083291E+2	5.00000000E+0	6.55528239E-1	0.00000000E+0
275	10/05/2023	13:55:52.471	0.00000000E+0	1.52366477E+2	5.00000000E+0	6.42164242E-1	0.00000000E+0
276	10/05/2023	13:55:53.910	0.00000000E+0	1.58649662E+2	5.00000000E+0	6.36394427E-1	0.00000000E+0
277	10/05/2023	13:55:55.517	0.00000000E+0	1.64932847E+2	5.00000000E+0	6.44441944E-1	0.00000000E+0
278	10/05/2023	13:55:56.957	0.00000000E+0	1.71216033E+2	5.00000000E+0	4.95758838E-1	0.00000000E+0
279	10/05/2023	13:55:58.549	0.00000000E+0	1.77499218E+2	5.00000000E+0	6.64411545E-1	0.00000000E+0
280	10/05/2023	13:55:59.977	0.00000000E+0	1.83782403E+2	5.00000000E+0	6.46574068E-1	0.00000000E+0
281	10/05/2023	13:56:01.445	0.00000000E+0	1.90065589E+2	5.00000000E+0	6.26607018E-1	0.00000000E+0
282	10/05/2023	13:56:03.046	0.00000000E+0	1.96348774E+2	5.00000000E+0	5.14149278E-1	0.00000000E+0
283	10/05/2023	13:56:04.585	0.00000000E+0	2.02631959E+2	5.00000000E+0	5.17080906E-1	0.00000000E+0
284	10/05/2023	13:56:06.033	0.00000000E+0	2.08915144E+2	5.00000000E+0	6.65088214E-1	0.00000000E+0
285	10/05/2023	13:56:07.623	0.00000000E+0	2.15198330E+2	5.00000000E+0	4.20978755E-1	0.00000000E+0
286	10/05/2023	13:56:09.093	0.00000000E+0	2.21481515E+2	5.00000000E+0	5.43298705E-1	0.00000000E+0
287	10/05/2023	13:56:10.600	0.00000000E+0	2.27764700E+2	5.00000000E+0	5.47497088E-1	0.00000000E+0
288	10/05/2023	13:56:12.040	0.00000000E+0	2.34047886E+2	5.00000000E+0	5.62946942E-1	0.00000000E+0
289	10/05/2023	13:56:13.522	0.00000000E+0	2.40331071E+2	5.00000000E+0	5.52222074E-1	0.00000000E+0
290	10/05/2023	13:56:15.110	0.00000000E+0	2.46614256E+2	5.00000000E+0	5.83722785E-1	0.00000000E+0
291	10/05/2023	13:56:16.594	0.00000000E+0	2.52897442E+2	5.00000000E+0	5.53502305E-1	0.00000000E+0
292	10/05/2023	13:56:18.161	0.00000000E+0	2.59180627E+2	5.00000000E+0	5.54236675E-1	0.00000000E+0
293	10/05/2023	13:56:19.643	0.00000000E+0	2.65463812E+2	5.00000000E+0	4.53632270E-1	0.00000000E+0
294	10/05/2023	13:56:21.109	0.00000000E+0	2.71746998E+2	5.00000000E+0	5.33270125E-1	0.00000000E+0
295	10/05/2023	13:56:22.679	0.00000000E+0	2.78030183E+2	5.00000000E+0	4.90658564E-1	0.00000000E+0
296	10/05/2023	13:56:24.195	0.00000000E+0	2.84313368E+2	5.00000000E+0	4.61741256E-1	0.00000000E+0
297	10/05/2023	13:56:25.657	0.00000000E+0	2.90596553E+2	5.00000000E+0	6.37878722E-1	0.00000000E+0
298	10/05/2023	13:56:27.239	0.00000000E+0	2.96879739E+2	5.00000000E+0	4.68528046E-1	0.00000000E+0
299	10/05/2023	13:56:28.730	0.00000000E+0	3.03162924E+2	5.00000000E+0	4.92971905E-1	0.00000000E+0
300	10/05/2023	13:56:30.256	0.00000000E+0	3.09446109E+2	5.00000000E+0	5.09126628E-1	0.00000000E+0
301	10/05/2023	13:56:31.737	0.00000000E+0	3.15729295E+2	5.00000000E+0	4.18175484E-1	0.00000000E+0
302	10/05/2023	13:56:33.187	0.00000000E+0	3.22012480E+2	5.00000000E+0	4.47091946E-1	0.00000000E+0
303	10/05/2023	13:56:34.745	0.00000000E+0	3.28295665E+2	5.00000000E+0	4.69172521E-1	0.00000000E+0
304	10/05/2023	13:56:36.190	0.00000000E+0	3.34578851E+2	5.00000000E+0	4.93754963E-1	0.00000000E+0
305	10/05/2023	13:56:37.686	0.00000000E+0	3.40862036E+2	5.00000000E+0	4.50783483E-1	0.00000000E+0
306	10/05/2023	13:56:39.172	0.00000000E+0	3.47145221E+2	5.00000000E+0	4.48221164E-1	0.00000000E+0
307	10/05/2023	13:56:40.642	0.00000000E+0	3.53428407E+2	5.00000000E+0	4.84418672E-1	0.00000000E+0
308	10/05/2023	13:56:42.186	0.00000000E+0	3.59711592E+2	5.00000000E+0	4.92683567E-1	0.00000000E+0
309	10/05/2023	13:56:43.724	0.00000000E+0	3.65994777E+2	5.00000000E+0	6.02313805E-1	0.00000000E+0
310	10/05/2023	13:56:45.173	0.00000000E+0	3.72277962E+2	5.00000000E+0	4.64566441E-1	0.00000000E+0
311	10/05/2023	13:56:46.733	0.00000000E+0	3.78561148E+2	5.00000000E+0	5.19890591E-1	0.00000000E+0
312	10/05/2023	13:56:48.178	0.00000000E+0	3.84844333E+2	5.00000000E+0	4.84917076E-1	0.00000000E+0
313	10/05/2023	13:56:49.694	0.00000000E+0	3.91127518E+2	5.00000000E+0	4.47237249E-1	0.00000000E+0
314	10/05/2023	13:56:51.166	0.00000000E+0	3.97410704E+2	5.00000000E+0	4.81869809E-1	0.00000000E+0
315	10/05/2023	13:56:52.633	0.00000000E+0	4.03693889E+2	5.00000000E+0	4.75451111E-1	0.00000000E+0
316	10/05/2023	13:56:54.162	0.00000000E+0	4.09977074E+2	5.00000000E+0	4.87217424E-1	0.00000000E+0
317	10/05/2023	13:56:55.655	0.00000000E+0	4.16260260E+2	5.00000000E+0	5.00104635E-1	0.00000000E+0
318	10/05/2023	13:56:57.129	0.00000000E+0	4.22543445E+2	5.00000000E+0	4.70281840E-1	0.00000000E+0
319	10/05/2023	13:56:58.681	0.00000000E+0	4.28826630E+2	5.00000000E+0	4.97608184E-1	0.00000000E+0
320	10/05/2023	13:57:00.131	0.00000000E+0	4.35109816E+2	5.00000000E+0	4.70970793E-1	0.00000000E+0
321	10/05/2023	13:57:01.694	0.00000000E+0	4.41393001E+2	5.00000000E+0	4.45928276E-1	0.00000000E+0
322	10/05/2023	13:57:03.162	0.00000000E+0	4.47676186E+2	5.00000000E+0	4.78921067E-1	0.00000000E+0
323	10/05/2023	13:57:04.657	0.00000000E+0	4.53959371E+2	5.00000000E+0	4.65937137E-1	0.00000000E+0
324	10/05/2023	13:57:06.169	0.00000000E+0	4.60242557E+2	5.00000000E+0	4.65433627E-1	0.00000000E+0
325	10/05/2023	13:57:07.624	0.00000000E+0	4.66525742E+2	5.00000000E+0	4.94693775E-1	0.00000000E+0
326	10/05/2023	13:57:09.240	0.00000000E+0	4.72808927E+2	5.00000000E+0	4.61090932E-1	0.00000000E+0
327	10/05/2023	13:57:10.729	0.00000000E+0	4.79092113E+2	5.00000000E+0	4.81576310E-1	0.00000000E+0
328	10/05/2023	13:57:12.197	0.00000000E+0	4.85375298E+2	5.00000000E+0	4.84767815E-1	0.00000000E+0
329	10/05/2023	13:57:13.830	0.00000000E+0	4.91658483E+2	5.00000000E+0	4.63570142E-1	0.00000000E+0
330	10/05/2023	13:57:15.323	0.00000000E+0	4.97941669E+2	5.00000000E+0	4.95542722E-1	0.00000000E+0
331	10/05/2023	13:57:16.783	0.00000000E+0	5.04224854E+2	5.00000000E+0	4.75756617E-1	0.00000000E+0
332	10/05/2023	13:57:18.302	0.00000000E+0	5.10508039E+2	5.00000000E+0	4.94918611E-1	0.00000000E+0
333	10/05/2023	13:57:19.736	0.00000000E+0	5.16791225E+2	5.00000000E+0	4.81434906E-1	0.00000000E+0
334	10/05/2023	13:57:21.262	0.00000000E+0	5.23074410E+2	5.00000000E+0	5.94332574E-1	0.00000000E+0
335	10/05/2023	13:57:22.715	0.00000000E+0	5.29357595E+2	5.00000000E+0	4.67740442E-1	0.00000000E+0
336	10/05/2023	13:57:24.173	0.00000000E+0	5.35640780E+2	5.00000000E+0	4.98015307E-1	0.00000000E+0
337	10/05/2023	13:57:25.719	0.00000000E+0	5.41923966E+2	5.00000000E+0	4.84269833E-1	0.00000000E+0
338	10/05/2023	13:57:27.167	0.00000000E+0	5.48207151E+2	5.00000000E+0	4.61558039E-1	0.00000000E+0
339	10/05/2023	13:57:28.653	0.00000000E+0	5.54490336E+2	5.00000000E+0	5.87346248E-1	0.00000000E+0
340	10/05/2023	13:57:30.125	0.00000000E+0	5.60773522E+2	5.00000000E+0	4.80821563E-1	0.00000000E+0
341	10/05/2023	13:57:31.579	0.00000000E+0	5.67056707E+2	5.00000000E+0	4.92857339E-1	0.00000000E+0
342	10/05/2023	13:57:33.087	0.00000000E+0	5.73339892E+2	5.00000000E+0	5.42317817E-1	0.00000000E+0
343	10/05/2023	13:57:34.535	0.00000000E+0	5.79623078E+2	5.00000000E+0	5.29877122E-1	0.00000000E+0
344	10/05/2023	13:57:35.997	0.00000000E+0	5.85906263E+2	5.00000000E+0	4.23086040E-1	0.00000000E+0
345	10/05/2023	13:57:37.531	0.00000000E+0	5.92189448E+2	5.00000000E+0	4.97290332E-1	0.00000000E+0
346	10/05/2023	13:57:38.967	0.00000000E+0	5.98472634E+2	5.00000000E+0	4.74041719E-1	0.00000000E+0
347	10/05/2023	13:57:40.481	0.00000000E+0	6.04755819E+2	5.00000000E+0	5.55746813E-1	0.00000000E+0
348	10/05/2023	13:57:41.954	0.00000000E+0	6.11039004E+2	5.00000000E+0	4.82082503E-1	0.00000000E+0
349	10/05/2023	13:57:43.410	0.00000000E+0	6.17322189E+2	5.00000000E+0	3.93081920E-1	0.00000000E+0
350	10/05/2023	13:57:44.928	0.00000000E+0	6.23605375E+2	5.00000000E+0	4.75251645E-1	0.00000000E+0
351	10/05/2023	13:57:46.417	0.00000000E+0	6.29888560E+2	5.00000000E+0	4.54049223E-1	0.00000000E+0
352	10/05/2023	13:57:47.863	0.00000000E+0	6.36171745E+2	5.00000000E+0	4.52591724E-1	0.00000000E+0
353	10/05/2023	13:57:49.405	0.00000000E+0	6.42454931E+2	5.00000000E+0	4.42397346E-1	0.00000000E+0
354	10/05/2023	13:57:50.877	0.00000000E+0	6.48738116E+2	5.00000000E+0	4.80177680E-1	0.00000000E+0
355	10/05/2023	13:57:52.430	0.00000000E+0	6.55021301E+2	5.00000000E+0	5.14304150E-1	0.00000000E+0
356	10/05/2023	13:57:53.858	0.00000000E+0	6.61304487E+2	5.00000000E+0	4.09313853E-1	0.00000000E+0
357	10/05/2023	13:57:55.349	0.00000000E+0	6.67587672E+2	5.00000000E+0	3.92955683E-1	0.00000000E+0
358	10/05/2023	13:57:56.870	0.00000000E+0	6.73870857E+2	5.00000000E+0	4.78063652E-1	0.00000000E+0
359	10/05/2023	13:57:58.344	0.00000000E+0	6.80154043E+2	5.00000000E+0	5.59983436E-1	0.00000000E+0
360	10/05/2023	13:57:59.833	0.00000000E+0	6.86437228E+2	5.00000000E+0	5.15019674E-1	0.00000000E+0
361	10/05/2023	13:58:01.367	0.00000000E+0	6.92720413E+2	5.00000000E+0	5.16901412E-1	0.00000000E+0
362	10/05/2023	13:58:02.813	0.00000000E+0	6.99003598E+2	5.00000000E+0	4.92527821E-1	0.00000000E+0
363	10/05/2023	13:58:04.383	0.00000000E+0	7.05286784E+2	5.00000000E+0	3.80897663E-1	0.00000000E+0
364	10/05/2023	13:58:05.855	0.00000000E+0	7.11569969E+2	5.00000000E+0	4.68139205E-1	0.00000000E+0
365	10/05/2023	13:58:07.312	0.00000000E+0	7.17853154E+2	5.00000000E+0	3.02995147E-1	0.00000000E+0
366	10/05/2023	13:58:08.845	0.00000000E+0	7.24136340E+2	5.00000000E+0	5.21526405E-1	0.00000000E+0
367	10/05/2023	13:58:10.325	0.00000000E+0	7.30419525E+2	5.00000000E+0	2.81253728E-1	0.00000000E+0
368	10/05/2023	13:58:11.877	0.00000000E+0	7.36702710E+2	5.00000000E+0	5.69814977E-1	0.00000000E+0
369	10/05/2023	13:58:13.343	0.00000000E+0	7.42985896E+2	5.00000000E+0	4.71627278E-1	0.00000000E+0
370	10/05/2023	13:58:14.802	0.00000000E+0	7.49269081E+2	5.00000000E+0	4.54129599E-1	0.00000000E+0
371	10/05/2023	13:58:16.332	0.00000000E+0	7.55552266E+2	5.00000000E+0	4.81959485E-1	0.00000000E+0
372	10/05/2023	13:58:17.787	0.00000000E+0	7.61835452E+2	5.00000000E+0	4.90019117E-1	0.00000000E+0
373	10/05/2023	13:58:19.277	0.00000000E+0	7.68118637E+2	5.00000000E+0	6.10092168E-1	0.00000000E+0
374	10/05/2023	13:58:20.724	0.00000000E+0	7.74401822E+2	5.00000000E+0	6.14132423E-1	0.00000000E+0
375	10/05/2023	13:58:22.183	0.00000000E+0	7.80685007E+2	5.00000000E+0	5.43706064E-1	0.00000000E+0
376	10/05/2023	13:58:23.709	0.00000000E+0	7.86968193E+2	5.00000000E+0	5.13911172E-1	0.00000000E+0
377	10/05/2023	13:58:25.200	0.00000000E+0	7.93251378E+2	5.00000000E+0	4.73857326E-1	0.00000000E+0
378	10/05/2023	13:58:26.651	0.00000000E+0	7.99534563E+2	5.00000000E+0	4.65690851E-1	0.00000000E+0
379	10/05/2023	13:58:28.210	0.00000000E+0	8.05817749E+2	5.00000000E+0	5.19877835E-1	0.00000000E+0
380	10/05/2023	13:58:29.662	0.00000000E+0	8.12100934E+2	5.00000000E+0	3.77234951E-1	0.00000000E+0
381	10/05/2023	13:58:31.453	0.00000000E+0	8.18384119E+2	5.00000000E+0	3.02784321E-1	0.00000000E+0
382	10/05/2023	13:58:32.920	0.00000000E+0	8.24667305E+2	5.00000000E+0	4.89875871E-1	0.00000000E+0
383	10/05/2023	13:58:34.431	0.00000000E+0	8.30950490E+2	5.00000000E+0	3.71511059E-1	0.00000000E+0
384	10/05/2023	13:58:35.963	0.00000000E+0	8.37233675E+2	5.00000000E+0	4.96223638E-1	0.00000000E+0
385	10/05/2023	13:58:37.598	0.00000000E+0	8.43516860E+2	5.00000000E+0	4.71209059E-1	0.00000000E+0
386	10/05/2023	13:58:39.043	0.00000000E+0	8.49800046E+2	5.00000000E+0	6.09465316E-1	0.00000000E+0
387	10/05/2023	13:58:40.590	0.00000000E+0	8.56083231E+2	5.00000000E+0	5.24297055E-1	0.00000000E+0
388	10/05/2023	13:58:42.047	0.00000000E+0	8.62366416E+2	5.00000000E+0	4.79729292E-1	0.00000000E+0
389	10/05/2023	13:58:43.586	0.00000000E+0	8.68649602E+2	5.00000000E+0	4.60693103E-1	0.00000000E+0
390	10/05/2023	13:58:45.034	0.00000000E+0	8.74932787E+2	5.00000000E+0	4.89111217E-1	0.00000000E+0
391	10/05/2023	13:58:46.506	0.00000000E+0	8.81215972E+2	5.00000000E+0	4.90675327E-1	0.00000000E+0
392	10/05/2023	13:58:48.046	0.00000000E+0	8.87499158E+2	5.00000000E+0	4.45209387E-1	0.00000000E+0
393	10/05/2023	13:58:49.518	0.00000000E+0	8.93782343E+2	5.00000000E+0	4.24273365E-1	0.00000000E+0
394	10/05/2023	13:58:51.119	0.00000000E+0	9.00065528E+2	5.00000000E+0	4.64105164E-1	0.00000000E+0
395	10/05/2023	13:58:52.568	0.00000000E+0	9.06348714E+2	5.00000000E+0	4.86470624E-1	0.00000000E+0
396	10/05/2023	13:58:54.007	0.00000000E+0	9.12631899E+2	5.00000000E+0	4.46790474E-1	0.00000000E+0
397	10/05/2023	13:58:55.520	0.00000000E+0	9.18915084E+2	5.00000000E+0	4.12701345E-1	0.00000000E+0
398	10/05/2023	13:58:56.986	0.00000000E+0	9.25198269E+2	5.00000000E+0	5.25096093E-1	0.00000000E+0
399	10/05/2023	13:58:58.444	0.00000000E+0	9.31481455E+2	5.00000000E+0	2.64602256E-1	0.00000000E+0
400	10/05/2023	13:59:00.002	0.00000000E+0	9.37764640E+2	5.00000000E+0	4.69465245E-1	0.00000000E+0
401	10/05/2023	13:59:01.450	0.00000000E+0	9.44047825E+2	5.00000000E+0	4.75703960E-1	0.00000000E+0
402	10/05/2023	13:59:02.967	0.00000000E+0	9.50331011E+2	5.00000000E+0	4.97039682E-1	0.00000000E+0
403	10/05/2023	13:59:04.433	0.00000000E+0	9.56614196E+2	5.00000000E+0	4.42808858E-1	0.00000000E+0
404	10/05/2023	13:59:05.913	0.00000000E+0	9.62897381E+2	5.00000000E+0	4.20587692E-1	0.00000000E+0
405	10/05/2023	13:59:07.454	0.00000000E+0	9.69180567E+2	5.00000000E+0	3.66887693E-1	0.00000000E+0
406	10/05/2023	13:59:08.946	0.00000000E+0	9.75463752E+2	5.00000000E+0	4.11497004E-1	0.00000000E+0
407	10/05/2023	13:59:10.429	0.00000000E+0	9.81746937E+2	5.00000000E+0	5.64741738E-1	0.00000000E+0
408	10/05/2023	13:59:11.874	0.00000000E+0	9.88030123E+2	5.00000000E+0	5.69324163E-1	0.00000000E+0
409	10/05/2023	13:59:13.357	0.00000000E+0	9.94313308E+2	5.00000000E+0	5.91334377E-1	0.00000000E+0
410	10/05/2023	13:59:14.881	0.00000000E+0	1.00059649E+3	5.00000000E+0	5.87381538E-1	0.00000000E+0
411	10/05/2023	13:59:16.323	0.00000000E+0	1.00687968E+3	5.00000000E+0	3.92892969E-1	0.00000000E+0
412	10/05/2023	13:59:17.774	0.00000000E+0	1.01316286E+3	5.00000000E+0	3.46128964E-1	0.00000000E+0
413	10/05/2023	13:59:19.316	0.00000000E+0	1.01944605E+3	5.00000000E+0	5.19160486E-1	0.00000000E+0
414	10/05/2023	13:59:20.793	0.00000000E+0	1.02572923E+3	5.00000000E+0	5.16258545E-1	0.00000000E+0
415	10/05/2023	13:59:22.273	0.00000000E+0	1.03201242E+3	5.00000000E+0	3.85485846E-1	0.00000000E+0
416	10/05/2023	13:59:23.723	0.00000000E+0	1.03829561E+3	5.00000000E+0	5.71035890E-1	0.00000000E+0
417	10/05/2023	13:59:25.175	0.00000000E+0	1.04457879E+3	5.00000000E+0	6.17046013E-1	0.00000000E+0
418	10/05/2023	13:59:26.808	0.00000000E+0	1.05086198E+3	5.00000000E+0	5.87880295E-1	0.00000000E+0
419	10/05/2023	13:59:28.246	0.00000000E+0	1.05714516E+3	5.00000000E+0	5.55617652E-1	0.00000000E+0
420	10/05/2023	13:59:29.736	0.00000000E+0	1.06342835E+3	5.00000000E+0	5.04095890E-1	0.00000000E+0
421	10/05/2023	13:59:31.287	0.00000000E+0	1.06971153E+3	5.00000000E+0	5.57110552E-1	0.00000000E+0
422	10/05/2023	13:59:32.762	0.00000000E+0	1.07599472E+3	5.00000000E+0	4.38646987E-1	0.00000000E+0
423	10/05/2023	13:59:34.301	0.00000000E+0	1.08227790E+3	5.00000000E+0	3.79255699E-1	0.00000000E+0
424	10/05/2023	13:59:35.787	0.00000000E+0	1.08856109E+3	5.00000000E+0	3.92217423E-1	0.00000000E+0
425	10/05/2023	13:59:37.259	0.00000000E+0	1.09484427E+3	5.00000000E+0	4.32395833E-1	0.00000000E+0
426	10/05/2023	13:59:38.833	0.00000000E+0	1.10112746E+3	5.00000000E+0	5.18959922E-1	0.00000000E+0
427	10/05/2023	13:59:40.279	0.00000000E+0	1.10741064E+3	5.00000000E+0	3.28128668E-1	0.00000000E+0
428	10/05/2023	13:59:41.897	0.00000000E+0	1.11369383E+3	5.00000000E+0	4.59246401E-1	0.00000000E+0
429	10/05/2023	13:59:43.388	0.00000000E+0	1.11997701E+3	5.00000000E+0	4.73116184E-1	0.00000000E+0
430	10/05/2023	13:59:44.873	0.00000000E+0	1.12626020E+3	5.00000000E+0	5.27416342E-1	0.00000000E+0
431	10/05/2023	13:59:46.402	0.00000000E+0	1.13254338E+3	5.00000000E+0	2.68483775E-1	0.00000000E+0
432	10/05/2023	13:59:47.911	0.00000000E+0	1.13882657E+3	5.00000000E+0	4.30773812E-1	0.00000000E+0
433	10/05/2023	13:59:49.358	0.00000000E+0	1.14510976E+3	5.00000000E+0	4.54948922E-1	0.00000000E+0
434	10/05/2023	13:59:51.031	0.00000000E+0	1.15139294E+3	5.00000000E+0	5.76703203E-1	0.00000000E+0
435	10/05/2023	13:59:52.485	0.00000000E+0	1.15767613E+3	5.00000000E+0	6.17767093E-1	0.00000000E+0
436	10/05/2023	13:59:54.241	0.00000000E+0	1.16395931E+3	5.00000000E+0	6.48159991E-1	0.00000000E+0
437	10/05/2023	13:59:55.704	0.00000000E+0	1.17024250E+3	5.00000000E+0	5.18149718E-1	0.00000000E+0
438	10/05/2023	13:59:57.181	0.00000000E+0	1.17652568E+3	5.00000000E+0	4.54395094E-1	0.00000000E+0
439	10/05/2023	13:59:58.659	0.00000000E+0	1.18280887E+3	5.00000000E+0	5.00713411E-1	0.00000000E+0
440	10/05/2023	14:00:00.125	0.00000000E+0	1.18909205E+3	5.00000000E+0	6.37700981E-1	0.00000000E+0
441	10/05/2023	14:00:01.617	0.00000000E+0	1.19537524E+3	5.00000000E+0	6.39223042E-1	0.00000000E+0
442	10/05/2023	14:00:03.077	0.00000000E+0	1.20165842E+3	5.00000000E+0	5.53597807E-1	0.00000000E+0
443	10/05/2023	14:00:04.517	0.00000000E+0	1.20794161E+3	5.00000000E+0	5.97316764E-1	0.00000000E+0
444	10/05/2023	14:00:06.047	0.00000000E+0	1.21422479E+3	5.00000000E+0	5.36122046E-1	0.00000000E+0
445	10/05/2023	14:00:07.545	0.00000000E+0	1.22050798E+3	5.00000000E+0	5.52096051E-1	0.00000000E+0
446	10/05/2023	14:00:09.028	0.00000000E+0	1.22679116E+3	5.00000000E+0	4.92158722E-1	0.00000000E+0
447	10/05/2023	14:00:10.555	0.00000000E+0	1.23307435E+3	5.00000000E+0	4.14124607E-1	0.00000000E+0
448	10/05/2023	14:00:12.007	0.00000000E+0	1.23935753E+3	5.00000000E+0	4.23426837E-1	0.00000000E+0
449	10/05/2023	14:00:13.525	0.00000000E+0	1.24564072E+3	5.00000000E+0	4.95822029E-1	0.00000000E+0
450	10/05/2023	14:00:14.990	0.00000000E+0	1.25192391E+3	5.00000000E+0	4.50738669E-1	0.00000000E+0
451	10/05/2023	14:00:16.476	0.00000000E+0	1.25820709E+3	5.00000000E+0	3.67992707E-1	0.00000000E+0
452	10/05/2023	14:00:18.002	0.00000000E+0	1.26449028E+3	5.00000000E+0	4.86231223E-1	0.00000000E+0
453	10/05/2023	14:00:19.481	0.00000000E+0	1.27077346E+3	5.00000000E+0	6.37960298E-1	0.00000000E+0
454	10/05/2023	14:00:20.958	0.00000000E+0	1.27705665E+3	5.00000000E+0	5.76702456E-1	0.00000000E+0
455	10/05/2023	14:00:22.524	0.00000000E+0	1.28333983E+3	5.00000000E+0	6.04521534E-1	0.00000000E+0
456	10/05/2023	14:00:24.002	0.00000000E+0	1.28962302E+3	5.00000000E+0	5.74293076E-1	0.00000000E+0
457	10/05/2023	14:00:25.597	0.00000000E+0	1.29590620E+3	5.00000000E+0	4.85874068E-1	0.00000000E+0
458	10/05/2023	14:00:27.054	0.00000000E+0	1.30218939E+3	5.00000000E+0	6.08517951E-1	0.00000000E+0
459	10/05/2023	14:00:28.705	0.00000000E+0	1.30847257E+3	5.00000000E+0	5.87247003E-1	0.00000000E+0
460	10/05/2023	14:00:30.572	0.00000000E+0	1.31475576E+3	5.00000000E+0	6.56276753E-1	0.00000000E+0
461	10/05/2023	14:00:32.056	0.00000000E+0	1.32103894E+3	5.00000000E+0	3.99950849E-1	0.00000000E+0
462	10/05/2023	14:00:33.615	0.00000000E+0	1.32732213E+3	5.00000000E+0	4.56653776E-1	0.00000000E+0
463	10/05/2023	14:00:35.174	0.00000000E+0	1.33360531E+3	5.00000000E+0	4.27484648E-1	0.00000000E+0
464	10/05/2023	14:00:36.626	0.00000000E+0	1.33988850E+3	5.00000000E+0	6.09125599E-1	0.00000000E+0
465	10/05/2023	14:00:38.215	0.00000000E+0	1.34617169E+3	5.00000000E+0	3.77872232E-1	0.00000000E+0
466	10/05/2023	14:00:39.688	0.00000000E+0	1.35245487E+3	5.00000000E+0	5.73688556E-1	0.00000000E+0
467	10/05/2023	14:00:41.168	0.00000000E+0	1.35873806E+3	5.00000000E+0	5.16316524E-1	0.00000000E+0
468	10/05/2023	14:00:42.705	0.00000000E+0	1.36502124E+3	5.00000000E+0	4.70249112E-1	0.00000000E+0
469	10/05/2023	14:00:44.187	0.00000000E+0	1.37130443E+3	5.00000000E+0	5.99672255E-1	0.00000000E+0
470	10/05/2023	14:00:45.702	0.00000000E+0	1.37758761E+3	5.00000000E+0	5.41880867E-1	0.00000000E+0
471	10/05/2023	14:00:47.157	0.00000000E+0	1.38387080E+3	5.00000000E+0	4.85601443E-1	0.00000000E+0
472	10/05/2023	14:00:48.596	0.00000000E+0	1.39015398E+3	5.00000000E+0	4.75276514E-1	0.00000000E+0
473	10/05/2023	14:00:50.110	0.00000000E+0	1.39643717E+3	5.00000000E+0	4.91524949E-1	0.00000000E+0
474	10/05/2023	14:00:51.564	0.00000000E+0	1.40272035E+3	5.00000000E+0	4.15512414E-1	0.00000000E+0
475	10/05/2023	14:00:53.031	0.00000000E+0	1.40900354E+3	5.00000000E+0	4.65455788E-1	0.00000000E+0
476	10/05/2023	14:00:54.432	0.00000000E+0	1.41528672E+3	5.00000000E+0	4.74454085E-1	0.00000000E+0
477	10/05/2023	14:00:55.908	0.00000000E+0	1.42156991E+3	5.00000000E+0	5.04322986E-1	0.00000000E+0
478	10/05/2023	14:00:57.445	0.00000000E+0	1.42785309E+3	5.00000000E+0	5.28384873E-1	0.00000000E+0
479	10/05/2023	14:00:58.917	0.00000000E+0	1.43413628E+3	5.00000000E+0	4.71639332E-1	0.00000000E+0
480	10/05/2023	14:01:00.389	0.00000000E+0	1.44041946E+3	5.00000000E+0	4.71287728E-1	0.00000000E+0
481	10/05/2023	14:01:01.952	0.00000000E+0	1.44670265E+3	5.00000000E+0	4.84060913E-1	0.00000000E+0
482	10/05/2023	14:01:03.433	0.00000000E+0	1.45298584E+3	5.00000000E+0	4.48229546E-1	0.00000000E+0
483	10/05/2023	14:01:05.060	0.00000000E+0	1.45926902E+3	5.00000000E+0	4.98565235E-1	0.00000000E+0
484	10/05/2023	14:01:06.496	0.00000000E+0	1.46555221E+3	5.00000000E+0	4.83811670E-1	0.00000000E+0
485	10/05/2023	14:01:07.948	0.00000000E+0	1.47183539E+3	5.00000000E+0	4.76747047E-1	0.00000000E+0
486	10/05/2023	14:01:09.473	0.00000000E+0	1.47811858E+3	5.00000000E+0	4.69152164E-1	0.00000000E+0
487	10/05/2023	14:01:10.924	0.00000000E+0	1.48440176E+3	5.00000000E+0	4.87400509E-1	0.00000000E+0
488	10/05/2023	14:01:12.412	0.00000000E+0	1.49068495E+3	5.00000000E+0	4.70837190E-1	0.00000000E+0
489	10/05/2023	14:01:14.010	0.00000000E+0	1.49696813E+3	5.00000000E+0	5.38004724E-1	0.00000000E+0
490	10/05/2023	14:01:15.462	0.00000000E+0	1.50325132E+3	5.00000000E+0	4.50158085E-1	0.00000000E+0
491	10/05/2023	14:01:17.070	0.00000000E+0	1.50953450E+3	5.00000000E+0	4.38984582E-1	0.00000000E+0
492	10/05/2023	14:01:18.563	0.00000000E+0	1.51581769E+3	5.00000000E+0	4.60288047E-1	0.00000000E+0
493	10/05/2023	14:01:20.019	0.00000000E+0	1.52210087E+3	5.00000000E+0	4.79467409E-1	0.00000000E+0
494	10/05/2023	14:01:21.581	0.00000000E+0	1.52838406E+3	5.00000000E+0	6.04982104E-1	0.00000000E+0
495	10/05/2023	14:01:23.018	0.00000000E+0	1.53466724E+3	5.00000000E+0	5.07172842E-1	0.00000000E+0
496	10/05/2023	14:01:24.564	0.00000000E+0	1.54095043E+3	5.00000000E+0	5.10336677E-1	0.00000000E+0
497	10/05/2023	14:01:26.022	0.00000000E+0	1.54723361E+3	5.00000000E+0	5.12202317E-1	0.00000000E+0
498	10/05/2023	14:01:27.476	0.00000000E+0	1.55351680E+3	5.00000000E+0	4.21069297E-1	0.00000000E+0
499	10/05/2023	14:01:29.022	0.00000000E+0	1.55979999E+3	5.00000000E+0	5.69421763E-1	0.00000000E+0
500	10/05/2023	14:01:30.491	0.00000000E+0	1.56608317E+3	5.00000000E+0	6.08536454E-1	0.00000000E+0
