#Iteration	Date	Time	RTPhase	NFringe	AccelAxis	AccelMean	AccelTemp
1	10/05/2023	13:49:01.002	4.45736467E+0	-8.81000000E+2	2.00000000E+0	-9.52665848E+0	7.15786100E+6
2	10/05/2023	13:49:02.547	1.38250019E+0	-8.81000000E+2	2.00000000E+0	-9.52665848E+0	7.15786100E+6
3	10/05/2023	13:49:04.034	3.66429661E+0	-8.81000000E+2	2.00000000E+0	-9.52665848E+0	7.15786100E+6
4	10/05/2023	13:49:05.526	1.17541278E+0	-8.79000000E+2	2.00000000E+0	-9.52665848E+0	7.15786100E+6
5	10/05/2023	13:49:07.049	1.13054384E+0	-8.71000000E+2	2.00000000E+0	-9.52665848E+0	7.15786100E+6
6	10/05/2023	13:49:08.516	4.09572870E-1	-8.77000000E+2	2.00000000E+0	-9.52665848E+0	7.15786100E+6
7	10/05/2023	13:49:10.114	4.74767054E-1	-8.71000000E+2	2.00000000E+0	-9.52665848E+0	7.15786100E+6
8	10/05/2023	13:49:11.569	3.98835005E-2	-8.66000000E+2	2.00000000E+0	-9.52665848E+0	7.15786100E+6
9	10/05/2023	13:49:13.000	1.74375266E+0	-8.72000000E+2	2.00000000E+0	-9.52665848E+0	7.15786100E+6
10	10/05/2023	13:49:14.575	1.97998570E+0	-8.72000000E+2	2.00000000E+0	-9.52665848E+0	7.15786100E+6
11	10/05/2023	13:49:16.022	3.62172864E+0	-8.67000000E+2	2.00000000E+0	-9.52665848E+0	7.15786100E+6
12	10/05/2023	13:49:17.486	1.65900022E+0	-8.86000000E+2	2.00000000E+0	-9.52665848E+0	7.15786100E+6
13	10/05/2023	13:49:19.145	4.15747143E+0	-8.65000000E+2	2.00000000E+0	-9.52665848E+0	7.15786100E+6
14	10/05/2023	13:49:20.586	2.31746148E+0	-8.67000000E+2	2.00000000E+0	-9.52665848E+0	7.15786100E+6
15	10/05/2023	13:49:22.161	6.24330181E-1	-8.60000000E+2	2.00000000E+0	-9.52665848E+0	7.15786100E+6
16	10/05/2023	13:49:23.648	6.20878724E-1	-8.66000000E+2	2.00000000E+0	-9.52665848E+0	7.15786100E+6
17	10/05/2023	13:49:25.088	6.12403480E+0	-8.58000000E+2	2.00000000E+0	-9.52665848E+0	7.15786100E+6
18	10/05/2023	13:49:26.652	3.45145677E-2	-8.71000000E+2	2.00000000E+0	-9.52665848E+0	7.15786100E+6
19	10/05/2023	13:49:28.114	2.64074793E+0	-8.70000000E+2	2.00000000E+0	-9.52665848E+0	7.15786100E+6
20	10/05/2023	13:49:29.574	2.30250516E+0	-8.67000000E+2	2.00000000E+0	-9.52665848E+0	7.15786100E+6
21	10/05/2023	13:49:31.141	3.47293250E+0	-8.59000000E+2	2.00000000E+0	-9.52665848E+0	7.15786100E+6
22	10/05/2023	13:49:32.627	4.09918016E+0	-8.60000000E+2	2.00000000E+0	-9.52665848E+0	7.15786100E+6
23	10/05/2023	13:49:34.187	5.17488419E+0	-8.62000000E+2	2.00000000E+0	-9.52665848E+0	7.15786100E+6
24	10/05/2023	13:49:35.665	5.37200072E+0	-8.55000000E+2	2.00000000E+0	-9.52665848E+0	7.15786100E+6
25	10/05/2023	13:49:37.173	7.09466114E-1	-8.56000000E+2	2.00000000E+0	-9.52665848E+0	7.15786100E+6
26	10/05/2023	13:49:38.726	6.26477754E+0	-8.56000000E+2	2.00000000E+0	-9.52665848E+0	7.15786100E+6
27	10/05/2023	13:49:40.220	4.81554919E+0	-8.50000000E+2	2.00000000E+0	-9.52665848E+0	7.15786100E+6
28	10/05/2023	13:49:41.762	4.15440347E+0	-8.32000000E+2	2.00000000E+0	-9.52665848E+0	7.15786100E+6
29	10/05/2023	13:49:43.261	7.98053505E-1	-8.13000000E+2	2.00000000E+0	-9.52665848E+0	7.15786100E+6
30	10/05/2023	13:49:44.750	6.07111246E+0	-7.90000000E+2	2.00000000E+0	-9.52665848E+0	7.15786100E+6
31	10/05/2023	13:49:46.288	3.52317037E+0	-7.88000000E+2	2.00000000E+0	-9.52665848E+0	7.15786100E+6
32	10/05/2023	13:49:47.760	1.80779636E+0	-8.07000000E+2	2.00000000E+0	-9.52665848E+0	7.15786100E+6
33	10/05/2023	13:49:49.192	3.52470436E+0	-8.31000000E+2	2.00000000E+0	-9.52665848E+0	7.15786100E+6
34	10/05/2023	13:49:50.588	1.64979634E+0	-8.57000000E+2	2.00000000E+0	-9.52665848E+0	7.15786100E+6
35	10/05/2023	13:49:52.038	4.25909766E+0	-8.69000000E+2	2.00000000E+0	-9.52665848E+0	7.15786100E+6
36	10/05/2023	13:49:53.557	5.73248620E+0	-8.79000000E+2	2.00000000E+0	-9.52665848E+0	7.15786100E+6
37	10/05/2023	13:49:55.038	2.07931096E+0	-8.94000000E+2	2.00000000E+0	-9.52665848E+0	7.15786100E+6
38	10/05/2023	13:49:56.540	2.49693723E+0	-9.00000000E+2	2.00000000E+0	-9.52665848E+0	7.15786100E+6
39	10/05/2023	13:49:58.088	2.41103430E+0	-9.04000000E+2	2.00000000E+0	-9.52665848E+0	7.15786100E+6
40	10/05/2023	13:49:59.609	4.70356859E+0	-9.06000000E+2	2.00000000E+0	-9.52665848E+0	7.15786100E+6
41	10/05/2023	13:50:01.218	2.79951494E+0	-9.06000000E+2	2.00000000E+0	-9.52665848E+0	7.15786100E+6
42	10/05/2023	13:50:02.657	8.93543809E-1	-9.03000000E+2	2.00000000E+0	-9.52665848E+0	7.15786100E+6
43	10/05/2023	13:50:04.119	6.15356393E+0	-8.99000000E+2	2.00000000E+0	-9.52665848E+0	7.15786100E+6
44	10/05/2023	13:50:05.635	1.09794675E+0	-8.92000000E+2	2.00000000E+0	-9.52665848E+0	7.15786100E+6
45	10/05/2023	13:50:07.076	6.11636490E+0	-8.80000000E+2	2.00000000E+0	-9.52665848E+0	7.15786100E+6
46	10/05/2023	13:50:08.542	1.04233995E+0	-8.63000000E+2	2.00000000E+0	-9.52665848E+0	7.15786100E+6
47	10/05/2023	13:50:10.089	4.23800542E+0	-8.45000000E+2	2.00000000E+0	-9.52665848E+0	7.15786100E+6
48	10/05/2023	13:50:11.562	3.83456847E+0	-8.22000000E+2	2.00000000E+0	-9.52665848E+0	7.15786100E+6
49	10/05/2023	13:50:13.134	3.28080141E+0	-7.77000000E+2	2.00000000E+0	-9.52665848E+0	7.15786100E+6
50	10/05/2023	13:50:14.605	4.43320448E+0	-7.88000000E+2	2.00000000E+0	-9.52665848E+0	7.15786100E+6
51	10/05/2023	13:50:16.050	5.13883564E+0	-8.36000000E+2	2.00000000E+0	-9.52665848E+0	7.15786100E+6
52	10/05/2023	13:50:17.582	5.82605903E+0	-8.69000000E+2	2.00000000E+0	-9.52665848E+0	7.15786100E+6
53	10/05/2023	13:50:19.067	5.56950075E+0	-8.92000000E+2	2.00000000E+0	-9.52665848E+0	7.15786100E+6
54	10/05/2023	13:50:20.633	3.92545684E+0	-8.97000000E+2	2.00000000E+0	-9.52665848E+0	7.15786100E+6
55	10/05/2023	13:50:22.098	6.04618528E+0	-9.00000000E+2	2.00000000E+0	-9.52665848E+0	7.15786100E+6
56	10/05/2023	13:50:23.565	5.74207358E+0	-9.07000000E+2	2.00000000E+0	-9.52665848E+0	7.15786100E+6
57	10/05/2023	13:50:25.112	4.63990839E+0	-9.08000000E+2	2.00000000E+0	-9.52665848E+0	7.15786100E+6
58	10/05/2023	13:50:26.581	1.63637401E+0	-9.04000000E+2	2.00000000E+0	-9.52665848E+0	7.15786100E+6
59	10/05/2023	13:50:28.033	4.53291323E+0	-9.03000000E+2	2.00000000E+0	-9.52665848E+0	7.15786100E+6
60	10/05/2023	13:50:29.566	2.99586448E+0	-8.97000000E+2	2.00000000E+0	-9.52665848E+0	7.15786100E+6
61	10/05/2023	13:50:31.005	1.47684000E+0	-8.94000000E+2	2.00000000E+0	-9.52665848E+0	7.15786100E+6
62	10/05/2023	13:50:32.502	5.81992311E+0	-8.82000000E+2	2.00000000E+0	-9.52665848E+0	7.15786100E+6
63	10/05/2023	13:50:33.993	1.51020409E+0	-8.68000000E+2	2.00000000E+0	-9.52665848E+0	7.15786100E+6
64	10/05/2023	13:50:35.450	1.88142744E+0	-8.43000000E+2	2.00000000E+0	-9.52665848E+0	7.15786100E+6
65	10/05/2023	13:50:37.002	2.25226729E+0	-8.14000000E+2	2.00000000E+0	-9.52665848E+0	7.15786100E+6
66	10/05/2023	13:50:38.515	5.45905413E+0	-7.88000000E+2	2.00000000E+0	-9.52665848E+0	7.15786100E+6
67	10/05/2023	13:50:39.971	5.99211245E+0	-7.87000000E+2	2.00000000E+0	-9.52665848E+0	7.15786100E+6
68	10/05/2023	13:50:41.421	2.41793722E+0	-7.99000000E+2	2.00000000E+0	-9.52665848E+0	7.15786100E+6
69	10/05/2023	13:50:42.924	5.97102022E-1	-8.25000000E+2	2.00000000E+0	-9.52665848E+0	7.15786100E+6
70	10/05/2023	13:50:44.528	2.34162167E+0	-8.62000000E+2	2.00000000E+0	-9.52665848E+0	7.15786100E+6
71	10/05/2023	13:50:46.012	2.17211680E+0	-8.84000000E+2	2.00000000E+0	-9.52665848E+0	7.15786100E+6
72	10/05/2023	13:50:47.526	4.70625306E+0	-9.02000000E+2	2.00000000E+0	-9.52665848E+0	7.15786100E+6
73	10/05/2023	13:50:49.075	4.57509770E-1	-9.05000000E+2	2.00000000E+0	-9.52665848E+0	7.15786100E+6
74	10/05/2023	13:50:50.519	1.55238856E+0	-9.07000000E+2	2.00000000E+0	-9.52665848E+0	7.15786100E+6
75	10/05/2023	13:50:52.080	3.81309274E+0	-9.03000000E+2	2.00000000E+0	-9.52665848E+0	7.15786100E+6
76	10/05/2023	13:50:53.527	1.84154394E+0	-8.95000000E+2	2.00000000E+0	-9.52665848E+0	7.15786100E+6
77	10/05/2023	13:50:54.987	1.35718950E+0	-8.94000000E+2	2.00000000E+0	-9.52665848E+0	7.15786100E+6
78	10/05/2023	13:50:56.530	1.68546139E+0	-8.69000000E+2	2.00000000E+0	-9.52665848E+0	7.15786100E+6
79	10/05/2023	13:50:57.993	2.22273816E+0	-8.40000000E+2	2.00000000E+0	-9.52665848E+0	7.15786100E+6
80	10/05/2023	13:50:59.428	4.68784529E+0	-8.19000000E+2	2.00000000E+0	-9.52665848E+0	7.15786100E+6
81	10/05/2023	13:51:00.962	4.94248610E+0	-7.92000000E+2	2.00000000E+0	-9.52665848E+0	7.15786100E+6
82	10/05/2023	13:51:02.430	1.81546626E+0	-7.87000000E+2	2.00000000E+0	-9.52665848E+0	7.15786100E+6
83	10/05/2023	13:51:03.993	2.95444700E+0	-8.25000000E+2	2.00000000E+0	-9.52665848E+0	7.15786100E+6
84	10/05/2023	13:51:05.439	4.31048601E+0	-8.58000000E+2	2.00000000E+0	-9.52665848E+0	7.15786100E+6
85	10/05/2023	13:51:06.875	2.09388378E+0	-8.82000000E+2	2.00000000E+0	-9.52665848E+0	7.15786100E+6
86	10/05/2023	13:51:08.426	2.81063630E+0	-9.08000000E+2	2.00000000E+0	-9.52665848E+0	7.15786100E+6
87	10/05/2023	13:51:09.901	5.59212696E+0	-9.06000000E+2	2.00000000E+0	-9.52665848E+0	7.15786100E+6
88	10/05/2023	13:51:11.421	4.80135987E-1	-9.03000000E+2	2.00000000E+0	-9.52665848E+0	7.15786100E+6
89	10/05/2023	13:51:12.894	2.24229642E+0	-8.87000000E+2	2.00000000E+0	-9.52665848E+0	7.15786100E+6
90	10/05/2023	13:51:14.349	2.50460713E+0	-8.51000000E+2	2.00000000E+0	-9.52665848E+0	7.15786100E+6
91	10/05/2023	13:51:15.887	5.33441819E-1	-8.29000000E+2	2.00000000E+0	-9.52665848E+0	7.15786100E+6
92	10/05/2023	13:51:17.342	4.63262198E+0	-7.98000000E+2	2.00000000E+0	-9.52665848E+0	7.15786100E+6
93	10/05/2023	13:51:18.810	6.12633577E+0	-8.29000000E+2	2.00000000E+0	-9.52665848E+0	7.15786100E+6
94	10/05/2023	13:51:20.383	2.01986920E+0	-8.58000000E+2	2.00000000E+0	-9.52665848E+0	7.15786100E+6
95	10/05/2023	13:51:21.793	5.50699103E-1	-8.63000000E+2	2.00000000E+0	-9.52665848E+0	7.15786100E+6
96	10/05/2023	13:51:23.335	3.13545673E+0	-8.84000000E+2	2.00000000E+0	-9.52665848E+0	7.15786100E+6
97	10/05/2023	13:51:24.800	4.23647144E+0	-9.02000000E+2	2.00000000E+0	-9.52665848E+0	7.15786100E+6
98	10/05/2023	13:51:26.345	4.30588407E+0	-8.94000000E+2	2.00000000E+0	-9.52665848E+0	7.15786100E+6
99	10/05/2023	13:51:27.987	4.26369960E+0	-8.79000000E+2	2.00000000E+0	-9.52665848E+0	7.15786100E+6
100	10/05/2023	13:51:29.437	5.12081137E+0	-8.44000000E+2	2.00000000E+0	-9.52665848E+0	7.15786100E+6
101	10/05/2023	13:51:30.887	4.80519482E+0	-7.93000000E+2	2.00000000E+0	-9.52665848E+0	7.15786100E+6
102	10/05/2023	13:51:32.371	2.17825272E+0	-7.41000000E+2	2.00000000E+0	-9.52665848E+0	7.15786100E+6
103	10/05/2023	13:51:33.861	1.69619926E+0	-7.64000000E+2	2.00000000E+0	-9.52665848E+0	7.15786100E+6
104	10/05/2023	13:51:35.419	3.65432573E+0	-8.63000000E+2	2.00000000E+0	-9.52665848E+0	7.15786100E+6
105	10/05/2023	13:51:36.945	5.76968524E+0	-8.92000000E+2	2.00000000E+0	-9.52665848E+0	7.15786100E+6
106	10/05/2023	13:51:38.397	4.39063651E+0	-8.89000000E+2	2.00000000E+0	-9.52665848E+0	7.15786100E+6
107	10/05/2023	13:51:39.948	2.80718484E-1	-8.22000000E+2	2.00000000E+0	-9.52665848E+0	7.15786100E+6
108	10/05/2023	13:51:41.395	1.67357304E+0	-7.54000000E+2	2.00000000E+0	-9.52665848E+0	7.15786100E+6
109	10/05/2023	13:51:42.947	3.60293738E+0	-8.07000000E+2	2.00000000E+0	-9.52665848E+0	7.15786100E+6
110	10/05/2023	13:51:44.395	1.61834973E-1	-8.81000000E+2	2.00000000E+0	-9.52665848E+0	7.15786100E+6
111	10/05/2023	13:51:45.869	2.19627699E+0	-9.05000000E+2	2.00000000E+0	-9.52665848E+0	7.15786100E+6
112	10/05/2023	13:51:47.409	2.63001006E+0	-8.94000000E+2	2.00000000E+0	-9.52665848E+0	7.15786100E+6
113	10/05/2023	13:51:48.890	5.62702503E+0	-8.36000000E+2	2.00000000E+0	-9.52665848E+0	7.15786100E+6
114	10/05/2023	13:51:50.346	9.50684593E-1	-7.75000000E+2	2.00000000E+0	-9.52665848E+0	7.15786100E+6
115	10/05/2023	13:51:51.892	6.13592315E-2	-7.57000000E+2	2.00000000E+0	-9.52665848E+0	7.15786100E+6
116	10/05/2023	13:51:53.357	5.48743277E+0	-8.47000000E+2	2.00000000E+0	-9.52665848E+0	7.15786100E+6
117	10/05/2023	13:51:54.960	4.93443270E+0	-8.92000000E+2	2.00000000E+0	-9.52665848E+0	7.15786100E+6
118	10/05/2023	13:51:56.406	4.39102001E-1	-9.01000000E+2	2.00000000E+0	-9.52665848E+0	7.15786100E+6
119	10/05/2023	13:51:57.907	3.99218500E+0	-9.08000000E+2	2.00000000E+0	-9.52665848E+0	7.15786100E+6
120	10/05/2023	13:51:59.467	3.11743246E+0	-8.99000000E+2	2.00000000E+0	-9.52665848E+0	7.15786100E+6
121	10/05/2023	13:52:00.971	3.61482573E+0	-8.89000000E+2	2.00000000E+0	-9.52665848E+0	7.15786100E+6
122	10/05/2023	13:52:02.518	4.39293748E+0	-8.89000000E+2	2.00000000E+0	-9.52665848E+0	7.15786100E+6
123	10/05/2023	13:52:03.959	5.45598617E+0	-8.60000000E+2	2.00000000E+0	-9.52665848E+0	7.15786100E+6
124	10/05/2023	13:52:05.416	3.93504422E+0	-8.38000000E+2	2.00000000E+0	-9.52665848E+0	7.15786100E+6
125	10/05/2023	13:52:06.953	1.57731575E+0	-8.09000000E+2	2.00000000E+0	-9.52665848E+0	7.15786100E+6
126	10/05/2023	13:52:08.416	3.68193739E+0	-7.86000000E+2	2.00000000E+0	-9.52665848E+0	7.15786100E+6
127	10/05/2023	13:52:09.883	2.86470912E+0	-7.88000000E+2	2.00000000E+0	-9.52665848E+0	7.15786100E+6
128	10/05/2023	13:52:11.437	7.74276803E-1	-8.02000000E+2	2.00000000E+0	-9.52665848E+0	7.15786100E+6
129	10/05/2023	13:52:12.888	1.32267493E+0	-7.98000000E+2	2.00000000E+0	-9.52665848E+0	7.15786100E+6
130	10/05/2023	13:52:14.472	4.13522871E+0	-8.10000000E+2	2.00000000E+0	-9.52665848E+0	7.15786100E+6
131	10/05/2023	13:52:15.931	3.94002965E+0	-8.25000000E+2	2.00000000E+0	-9.52665848E+0	7.15786100E+6
132	10/05/2023	13:52:17.422	8.26432149E-1	-8.02000000E+2	2.00000000E+0	-9.52665848E+0	7.15786100E+6
133	10/05/2023	13:52:18.973	4.55093750E+0	-8.32000000E+2	2.00000000E+0	-9.52665848E+0	7.15786100E+6
134	10/05/2023	13:52:20.437	3.70916555E+0	-8.45000000E+2	2.00000000E+0	-9.52665848E+0	7.15786100E+6
135	10/05/2023	13:52:21.935	4.68822878E+0	-8.17000000E+2	2.00000000E+0	-9.52665848E+0	7.15786100E+6
136	10/05/2023	13:52:23.404	1.93051482E+0	-8.29000000E+2	2.00000000E+0	-9.52665848E+0	7.15786100E+6
137	10/05/2023	13:52:24.873	5.88511729E+0	-8.51000000E+2	2.00000000E+0	-9.52665848E+0	7.15786100E+6
138	10/05/2023	13:52:26.426	5.35589392E+0	-8.60000000E+2	2.00000000E+0	-9.52665848E+0	7.15786100E+6
139	10/05/2023	13:52:27.867	2.52148092E+0	-8.42000000E+2	2.00000000E+0	-9.52665848E+0	7.15786100E+6
140	10/05/2023	13:52:29.304	1.88296142E-1	-8.41000000E+2	2.00000000E+0	-9.52665848E+0	7.15786100E+6
141	10/05/2023	13:52:30.857	5.39922888E+0	-8.58000000E+2	2.00000000E+0	-9.52665848E+0	7.15786100E+6
142	10/05/2023	13:52:32.344	4.60117537E+0	-8.46000000E+2	2.00000000E+0	-9.52665848E+0	7.15786100E+6
143	10/05/2023	13:52:33.846	6.27283094E+0	-8.28000000E+2	2.00000000E+0	-9.52665848E+0	7.15786100E+6
144	10/05/2023	13:52:35.326	4.88572881E+0	-8.55000000E+2	2.00000000E+0	-9.52665848E+0	7.15786100E+6
145	10/05/2023	13:52:36.795	4.26715106E+0	-8.58000000E+2	2.00000000E+0	-9.52665848E+0	7.15786100E+6
146	10/05/2023	13:52:38.407	4.77183074E+0	-8.41000000E+2	2.00000000E+0	-9.52665848E+0	7.15786100E+6
147	10/05/2023	13:52:39.873	4.65256373E+0	-8.40000000E+2	2.00000000E+0	-9.52665848E+0	7.15786100E+6
148	10/05/2023	13:52:41.349	3.99601995E+0	-8.64000000E+2	2.00000000E+0	-9.52665848E+0	7.15786100E+6
149	10/05/2023	13:52:42.899	1.60224293E+0	-8.70000000E+2	2.00000000E+0	-9.52665848E+0	7.15786100E+6
150	10/05/2023	13:52:44.399	4.21154425E+0	-8.51000000E+2	2.00000000E+0	-9.52665848E+0	7.15786100E+6
151	10/05/2023	13:52:45.935	6.07418042E+0	-8.47000000E+2	2.00000000E+0	-9.52665848E+0	7.15786100E+6
152	10/05/2023	13:52:47.433	5.47822889E+0	-8.69000000E+2	2.00000000E+0	-9.52665848E+0	7.15786100E+6
153	10/05/2023	13:52:48.876	1.09334481E+0	-8.83000000E+2	2.00000000E+0	-9.52665848E+0	7.15786100E+6
154	10/05/2023	13:52:50.469	4.40635981E+0	-8.58000000E+2	2.00000000E+0	-9.52665848E+0	7.15786100E+6
155	10/05/2023	13:52:51.939	3.35021404E+0	-8.64000000E+2	2.00000000E+0	-9.52665848E+0	7.15786100E+6
156	10/05/2023	13:52:53.398	5.60133085E+0	-8.80000000E+2	2.00000000E+0	-9.52665848E+0	7.15786100E+6
157	10/05/2023	13:52:55.048	4.03436947E-1	-8.61000000E+2	2.00000000E+0	-9.52665848E+0	7.15786100E+6
158	10/05/2023	13:52:56.530	6.13745713E+0	-8.63000000E+2	2.00000000E+0	-9.52665848E+0	7.15786100E+6
159	10/05/2023	13:52:58.144	1.01166033E+0	-8.80000000E+2	2.00000000E+0	-9.52665848E+0	7.15786100E+6
160	10/05/2023	13:52:59.639	4.81286472E-1	-8.91000000E+2	2.00000000E+0	-9.52665848E+0	7.15786100E+6
161	10/05/2023	13:53:01.101	2.11075756E+0	-8.99000000E+2	2.00000000E+0	-9.52665848E+0	7.15786100E+6
162	10/05/2023	13:53:02.657	2.82866057E+0	-9.04000000E+2	2.00000000E+0	-9.52665848E+0	7.15786100E+6
163	10/05/2023	13:53:04.146	5.15685991E+0	-9.07000000E+2	2.00000000E+0	-9.52665848E+0	7.15786100E+6
164	10/05/2023	13:53:05.812	5.59289395E+0	-9.06000000E+2	2.00000000E+0	-9.52665848E+0	7.15786100E+6
165	10/05/2023	13:53:07.250	3.70954904E+0	-9.07000000E+2	2.00000000E+0	-9.52665848E+0	7.15786100E+6
166	10/05/2023	13:53:08.703	1.20302443E+0	-9.05000000E+2	2.00000000E+0	-9.52665848E+0	7.15786100E+6
167	10/05/2023	13:53:10.256	1.73339829E-1	-9.02000000E+2	2.00000000E+0	-9.52665848E+0	7.15786100E+6
168	10/05/2023	13:53:11.737	3.58644708E+0	-8.96000000E+2	2.00000000E+0	-9.52665848E+0	7.15786100E+6
169	10/05/2023	13:53:13.190	3.14581110E+0	-8.89000000E+2	2.00000000E+0	-9.52665848E+0	7.15786100E+6
170	10/05/2023	13:53:14.669	5.10930651E+0	-8.78000000E+2	2.00000000E+0	-9.52665848E+0	7.15786100E+6
171	10/05/2023	13:53:16.175	2.38265566E+0	-8.72000000E+2	2.00000000E+0	-9.52665848E+0	7.15786100E+6
172	10/05/2023	13:53:17.842	4.22304911E+0	-8.63000000E+2	2.00000000E+0	-9.52665848E+0	7.15786100E+6
173	10/05/2023	13:53:19.292	1.28279143E+0	-8.59000000E+2	2.00000000E+0	-9.52665848E+0	7.15786100E+6
174	10/05/2023	13:53:20.755	5.41188422E+0	-8.56000000E+2	2.00000000E+0	-9.52665848E+0	7.15786100E+6
175	10/05/2023	13:53:22.292	1.89484977E+0	-8.50000000E+2	2.00000000E+0	-9.52665848E+0	7.15786100E+6
176	10/05/2023	13:53:23.749	1.15662151E+0	-8.40000000E+2	2.00000000E+0	-9.52665848E+0	7.15786100E+6
177	10/05/2023	13:53:25.308	6.96427278E-1	-8.28000000E+2	2.00000000E+0	-9.52665848E+0	7.15786100E+6
178	10/05/2023	13:53:26.785	4.90567056E+0	-8.24000000E+2	2.00000000E+0	-9.52665848E+0	7.15786100E+6
179	10/05/2023	13:53:28.228	4.49878216E+0	-8.20000000E+2	2.00000000E+0	-9.52665848E+0	7.15786100E+6
180	10/05/2023	13:53:29.770	1.72802936E+0	-8.11000000E+2	2.00000000E+0	-9.52665848E+0	7.15786100E+6
181	10/05/2023	13:53:31.290	6.26247657E-1	-8.01000000E+2	2.00000000E+0	-9.52665848E+0	7.15786100E+6
182	10/05/2023	13:53:32.796	5.03222397E+0	-7.95000000E+2	2.00000000E+0	-9.52665848E+0	7.15786100E+6
183	10/05/2023	13:53:34.327	6.28548628E-1	-7.82000000E+2	2.00000000E+0	-9.52665848E+0	7.15786100E+6
184	10/05/2023	13:53:35.797	1.05000985E+0	-7.91000000E+2	2.00000000E+0	-9.52665848E+0	7.15786100E+6
185	10/05/2023	13:53:37.270	3.47830144E-1	-7.97000000E+2	2.00000000E+0	-9.52665848E+0	7.15786100E+6
186	10/05/2023	13:53:38.768	3.34177715E+0	-8.06000000E+2	2.00000000E+0	-9.52665848E+0	7.15786100E+6
187	10/05/2023	13:53:40.257	2.40029644E+0	-8.19000000E+2	2.00000000E+0	-9.52665848E+0	7.15786100E+6
188	10/05/2023	13:53:41.880	4.23417047E+0	-8.25000000E+2	2.00000000E+0	-9.52665848E+0	7.15786100E+6
189	10/05/2023	13:53:43.379	5.57640366E+0	-8.35000000E+2	2.00000000E+0	-9.52665848E+0	7.15786100E+6
190	10/05/2023	13:53:44.993	5.77428718E+0	-8.47000000E+2	2.00000000E+0	-9.52665848E+0	7.15786100E+6
191	10/05/2023	13:53:46.465	1.45037883E+0	-8.50000000E+2	2.00000000E+0	-9.52665848E+0	7.15786100E+6
192	10/05/2023	13:53:47.936	3.42231114E+0	-8.56000000E+2	2.00000000E+0	-9.52665848E+0	7.15786100E+6
193	10/05/2023	13:53:49.477	5.55569492E+0	-8.60000000E+2	2.00000000E+0	-9.52665848E+0	7.15786100E+6
194	10/05/2023	13:53:50.962	1.99417502E-1	-8.63000000E+2	2.00000000E+0	-9.52665848E+0	7.15786100E+6
195	10/05/2023	13:53:52.464	7.96519524E-1	-8.67000000E+2	2.00000000E+0	-9.52665848E+0	7.15786100E+6
196	10/05/2023	13:53:54.039	9.53369060E-1	-8.71000000E+2	2.00000000E+0	-9.52665848E+0	7.15786100E+6
197	10/05/2023	13:53:55.489	5.99211245E+0	-8.75000000E+2	2.00000000E+0	-9.52665848E+0	7.15786100E+6
198	10/05/2023	13:53:57.007	3.02961206E+0	-8.77000000E+2	2.00000000E+0	-9.52665848E+0	7.15786100E+6
199	10/05/2023	13:53:58.512	2.54870908E+0	-8.81000000E+2	2.00000000E+0	-9.52665848E+0	7.15786100E+6
200	10/05/2023	13:53:59.973	4.61881615E+0	-8.87000000E+2	2.00000000E+0	-9.52665848E+0	7.15786100E+6
201	10/05/2023	13:54:01.589	1.61528177E+0	-8.88000000E+2	2.00000000E+0	-9.52665848E+0	7.15786100E+6
202	10/05/2023	13:54:03.033	1.37329630E+0	-8.90000000E+2	2.00000000E+0	-9.52665848E+0	7.15786100E+6
203	10/05/2023	13:54:04.500	4.64029188E-1	-8.92000000E+2	2.00000000E+0	-9.52665848E+0	7.15786100E+6
204	10/05/2023	13:54:05.959	5.51044249E+0	-8.97000000E+2	2.00000000E+0	-9.52665848E+0	7.15786100E+6
205	10/05/2023	13:54:07.452	3.51434999E+0	-8.99000000E+2	2.00000000E+0	-9.52665848E+0	7.15786100E+6
206	10/05/2023	13:54:09.022	6.18961248E+0	-9.04000000E+2	2.00000000E+0	-9.52665848E+0	7.15786100E+6
207	10/05/2023	13:54:10.462	3.63668495E+0	-9.03000000E+2	2.00000000E+0	-9.52665848E+0	7.15786100E+6
208	10/05/2023	13:54:11.948	5.77006873E+0	-9.05000000E+2	2.00000000E+0	-9.52665848E+0	7.15786100E+6
209	10/05/2023	13:54:13.479	1.08605840E+0	-9.05000000E+2	2.00000000E+0	-9.52665848E+0	7.15786100E+6
210	10/05/2023	13:54:14.944	4.68746179E+0	-9.07000000E+2	2.00000000E+0	-9.52665848E+0	7.15786100E+6
211	10/05/2023	13:54:16.511	4.68669480E+0	-9.06000000E+2	2.00000000E+0	-9.52665848E+0	7.15786100E+6
212	10/05/2023	13:54:18.164	9.96320522E-1	-9.06000000E+2	2.00000000E+0	-9.52665848E+0	7.15786100E+6
213	10/05/2023	13:54:19.644	2.46434014E+0	-9.07000000E+2	2.00000000E+0	-9.52665848E+0	7.15786100E+6
214	10/05/2023	13:54:21.151	1.50943710E+0	-9.07000000E+2	2.00000000E+0	-9.52665848E+0	7.15786100E+6
215	10/05/2023	13:54:22.597	2.81447125E+0	-9.05000000E+2	2.00000000E+0	-9.52665848E+0	7.15786100E+6
216	10/05/2023	13:54:24.063	3.03574798E+0	-9.05000000E+2	2.00000000E+0	-9.52665848E+0	7.15786100E+6
217	10/05/2023	13:54:25.598	1.57271380E+0	-9.03000000E+2	2.00000000E+0	-9.52665848E+0	7.15786100E+6
218	10/05/2023	13:54:27.059	4.71775791E+0	-9.02000000E+2	2.00000000E+0	-9.52665848E+0	7.15786100E+6
219	10/05/2023	13:54:28.558	7.28640874E-3	-8.99000000E+2	2.00000000E+0	-9.52665848E+0	7.15786100E+6
220	10/05/2023	13:54:30.021	4.79637443E+0	-8.98000000E+2	2.00000000E+0	-9.52665848E+0	7.15786100E+6
221	10/05/2023	13:54:31.509	8.99296237E-1	-8.95000000E+2	2.00000000E+0	-9.52665848E+0	7.15786100E+6
222	10/05/2023	13:54:33.088	3.97684519E-1	-8.93000000E+2	2.00000000E+0	-9.52665848E+0	7.15786100E+6
223	10/05/2023	13:54:34.536	1.96848085E+0	-8.90000000E+2	2.00000000E+0	-9.52665848E+0	7.15786100E+6
224	10/05/2023	13:54:36.172	2.88196641E+0	-8.86000000E+2	2.00000000E+0	-9.52665848E+0	7.15786100E+6
225	10/05/2023	13:54:37.614	2.65033531E+0	-8.80000000E+2	2.00000000E+0	-9.52665848E+0	7.15786100E+6
226	10/05/2023	13:54:39.097	4.09189375E+0	-8.71000000E+2	2.00000000E+0	-9.52665848E+0	7.15786100E+6
227	10/05/2023	13:54:40.644	6.05308819E+0	-8.62000000E+2	2.00000000E+0	-9.52665848E+0	7.15786100E+6
228	10/05/2023	13:54:42.150	2.75656348E+0	-8.53000000E+2	2.00000000E+0	-9.52665848E+0	7.15786100E+6
229	10/05/2023	13:54:43.621	1.69926722E+0	-8.37000000E+2	2.00000000E+0	-9.52665848E+0	7.15786100E+6
230	10/05/2023	13:54:45.180	4.60961227E+0	-8.18000000E+2	2.00000000E+0	-9.52665848E+0	7.15786100E+6
231	10/05/2023	13:54:46.637	5.94340856E+0	-8.00000000E+2	2.00000000E+0	-9.52665848E+0	7.15786100E+6
232	10/05/2023	13:54:48.110	2.06972358E+0	-7.85000000E+2	2.00000000E+0	-9.52665848E+0	7.15786100E+6
233	10/05/2023	13:54:49.555	1.75564101E+0	-7.88000000E+2	2.00000000E+0	-9.52665848E+0	7.15786100E+6
234	10/05/2023	13:54:51.022	3.55078203E+0	-8.06000000E+2	2.00000000E+0	-9.52665848E+0	7.15786100E+6
235	10/05/2023	13:54:52.575	4.64297635E+0	-8.23000000E+2	2.00000000E+0	-9.52665848E+0	7.15786100E+6
236	10/05/2023	13:54:54.041	4.86041813E+0	-8.40000000E+2	2.00000000E+0	-9.52665848E+0	7.15786100E+6
237	10/05/2023	13:54:55.492	2.61850520E+0	-8.54000000E+2	2.00000000E+0	-9.52665848E+0	7.15786100E+6
238	10/05/2023	13:54:56.978	5.10585505E+0	-8.60000000E+2	2.00000000E+0	-9.52665848E+0	7.15786100E+6
239	10/05/2023	13:54:58.491	8.95844780E-1	-8.69000000E+2	2.00000000E+0	-9.52665848E+0	7.15786100E+6
240	10/05/2023	13:55:00.051	3.38971405E+0	-8.78000000E+2	2.00000000E+0	-9.52665848E+0	7.15786100E+6
241	10/05/2023	13:55:01.531	1.16927686E+0	-8.90000000E+2	2.00000000E+0	-9.52665848E+0	7.15786100E+6
242	10/05/2023	13:55:03.020	2.84745184E+0	-8.94000000E+2	2.00000000E+0	-9.52665848E+0	7.15786100E+6
243	10/05/2023	13:55:04.570	5.52309783E+0	-8.98000000E+2	2.00000000E+0	-9.52665848E+0	7.15786100E+6
244	10/05/2023	13:55:06.038	4.34461709E+0	-9.04000000E+2	2.00000000E+0	-9.52665848E+0	7.15786100E+6
245	10/05/2023	13:55:07.563	4.96702979E+0	-9.04000000E+2	2.00000000E+0	-9.52665848E+0	7.15786100E+6
246	10/05/2023	13:55:09.036	2.24996632E+0	-9.06000000E+2	2.00000000E+0	-9.52665848E+0	7.15786100E+6
247	10/05/2023	13:55:10.506	5.03529194E+0	-9.06000000E+2	2.00000000E+0	-9.52665848E+0	7.15786100E+6
248	10/05/2023	13:55:12.169	2.74966056E-1	-9.06000000E+2	2.00000000E+0	-9.52665848E+0	7.15786100E+6
249	10/05/2023	13:55:13.607	1.25556327E+0	-9.06000000E+2	2.00000000E+0	-9.52665848E+0	7.15786100E+6
250	10/05/2023	13:55:15.064	1.55737399E+0	-9.05000000E+2	2.00000000E+0	-9.52665848E+0	7.15786100E+6
251	10/05/2023	13:55:16.627	5.53882113E+0	-9.04000000E+2	2.00000000E+0	-9.52665848E+0	7.15786100E+6
252	10/05/2023	13:55:18.069	3.64703932E+0	-9.00000000E+2	2.00000000E+0	-9.52665848E+0	7.15786100E+6
253	10/05/2023	13:55:19.604	5.23969488E+0	-8.98000000E+2	2.00000000E+0	-9.52665848E+0	7.15786100E+6
254	10/05/2023	13:55:21.103	3.42154415E+0	-8.92000000E+2	2.00000000E+0	-9.52665848E+0	7.15786100E+6
255	10/05/2023	13:55:22.534	1.04770888E+0	-8.88000000E+2	2.00000000E+0	-9.52665848E+0	7.15786100E+6
256	10/05/2023	13:55:24.114	5.90084060E+0	-8.78000000E+2	2.00000000E+0	-9.52665848E+0	7.15786100E+6
257	10/05/2023	13:55:25.583	5.90966099E-1	-8.71000000E+2	2.00000000E+0	-9.52665848E+0	7.15786100E+6
258	10/05/2023	13:55:27.139	2.68331589E+0	-8.62000000E+2	2.00000000E+0	-9.52665848E+0	7.15786100E+6
259	10/05/2023	13:55:28.639	5.13653467E+0	-8.54000000E+2	2.00000000E+0	-9.52665848E+0	7.15786100E+6
260	10/05/2023	13:55:30.095	5.36969975E+0	-8.45000000E+2	2.00000000E+0	-9.52665848E+0	7.15786100E+6
261	10/05/2023	13:55:31.675	2.36769935E+0	-8.23000000E+2	2.00000000E+0	-9.52665848E+0	7.15786100E+6
262	10/05/2023	13:55:33.141	4.05891316E+0	-8.15000000E+2	2.00000000E+0	-9.52665848E+0	7.15786100E+6
263	10/05/2023	13:55:34.622	2.61121880E+0	-8.00000000E+2	2.00000000E+0	-9.52665848E+0	7.15786100E+6
264	10/05/2023	13:55:36.198	3.18377713E+0	-7.89000000E+2	2.00000000E+0	-9.52665848E+0	7.15786100E+6
265	10/05/2023	13:55:37.683	6.09335518E+0	-7.82000000E+2	2.00000000E+0	-9.52665848E+0	7.15786100E+6
266	10/05/2023	13:55:39.173	1.45728175E-2	-7.86000000E+2	2.00000000E+0	-9.52665848E+0	7.15786100E+6
267	10/05/2023	13:55:40.661	4.40329185E+0	-7.94000000E+2	2.00000000E+0	-9.52665848E+0	7.15786100E+6
268	10/05/2023	13:55:42.123	5.64428231E+0	-8.00000000E+2	2.00000000E+0	-9.52665848E+0	7.15786100E+6
269	10/05/2023	13:55:43.632	6.26822899E+0	-8.08000000E+2	2.00000000E+0	-9.52665848E+0	7.15786100E+6
270	10/05/2023	13:55:45.077	6.12135033E+0	-8.15000000E+2	2.00000000E+0	-9.52665848E+0	7.15786100E+6
271	10/05/2023	13:55:46.539	5.20402982E-1	-8.18000000E+2	2.00000000E+0	-9.52665848E+0	7.15786100E+6
272	10/05/2023	13:55:47.956	1.08107296E+0	-8.25000000E+2	2.00000000E+0	-9.52665848E+0	7.15786100E+6
273	10/05/2023	13:55:49.439	1.28931085E+0	-8.30000000E+2	2.00000000E+0	-9.52665848E+0	7.15786100E+6
274	10/05/2023	13:55:50.981	3.94002965E+0	-8.40000000E+2	2.00000000E+0	-9.52665848E+0	7.15786100E+6
275	10/05/2023	13:55:52.471	6.25557365E+0	-8.48000000E+2	2.00000000E+0	-9.52665848E+0	7.15786100E+6
276	10/05/2023	13:55:53.910	2.67602948E+0	-8.52000000E+2	2.00000000E+0	-9.52665848E+0	7.15786100E+6
277	10/05/2023	13:55:55.517	3.10247614E-1	-8.56000000E+2	2.00000000E+0	-9.52665848E+0	7.15786100E+6
278	10/05/2023	13:55:56.957	4.36187437E+0	-8.59000000E+2	2.00000000E+0	-9.52665848E+0	7.15786100E+6
279	10/05/2023	13:55:58.549	3.80810731E-1	-8.63000000E+2	2.00000000E+0	-9.52665848E+0	7.15786100E+6
280	10/05/2023	13:55:59.977	4.70855403E+0	-8.69000000E+2	2.00000000E+0	-9.52665848E+0	7.15786100E+6
281	10/05/2023	13:56:01.445	4.37491321E+0	-8.73000000E+2	2.00000000E+0	-9.52665848E+0	7.15786100E+6
282	10/05/2023	13:56:03.046	3.23401500E+0	-8.77000000E+2	2.00000000E+0	-9.52665848E+0	7.15786100E+6
283	10/05/2023	13:56:04.585	1.86800510E+0	-8.81000000E+2	2.00000000E+0	-9.52665848E+0	7.15786100E+6
284	10/05/2023	13:56:06.033	5.89432118E+0	-8.87000000E+2	2.00000000E+0	-9.52665848E+0	7.15786100E+6
285	10/05/2023	13:56:07.623	1.62448565E+0	-8.90000000E+2	2.00000000E+0	-9.52665848E+0	7.15786100E+6
286	10/05/2023	13:56:09.093	2.25878671E+0	-8.94000000E+2	2.00000000E+0	-9.52665848E+0	7.15786100E+6
287	10/05/2023	13:56:10.600	1.39170407E+0	-8.96000000E+2	2.00000000E+0	-9.52665848E+0	7.15786100E+6
288	10/05/2023	13:56:12.040	4.88611230E+0	-9.00000000E+2	2.00000000E+0	-9.52665848E+0	7.15786100E+6
289	10/05/2023	13:56:13.522	2.12226242E+0	-9.01000000E+2	2.00000000E+0	-9.52665848E+0	7.15786100E+6
290	10/05/2023	13:56:15.110	3.97684519E-1	-9.03000000E+2	2.00000000E+0	-9.52665848E+0	7.15786100E+6
291	10/05/2023	13:56:16.594	1.29544678E+0	-9.05000000E+2	2.00000000E+0	-9.52665848E+0	7.15786100E+6
292	10/05/2023	13:56:18.161	4.66483558E+0	-9.07000000E+2	2.00000000E+0	-9.52665848E+0	7.15786100E+6
293	10/05/2023	13:56:19.643	4.69704917E+0	-9.06000000E+2	2.00000000E+0	-9.52665848E+0	7.15786100E+6
294	10/05/2023	13:56:21.109	1.33839824E+0	-8.96000000E+2	2.00000000E+0	-9.52665848E+0	7.15786100E+6
295	10/05/2023	13:56:22.679	4.17127726E+0	-8.64000000E+2	2.00000000E+0	-9.52665848E+0	7.15786100E+6
296	10/05/2023	13:56:24.195	2.18707311E+0	-8.19000000E+2	2.00000000E+0	-9.52665848E+0	7.15786100E+6
297	10/05/2023	13:56:25.657	5.80841825E+0	-7.79000000E+2	2.00000000E+0	-9.52665848E+0	7.15786100E+6
298	10/05/2023	13:56:27.239	4.63760742E+0	-8.19000000E+2	2.00000000E+0	-9.52665848E+0	7.15786100E+6
299	10/05/2023	13:56:28.730	5.90889399E+0	-8.82000000E+2	2.00000000E+0	-9.52665848E+0	7.15786100E+6
300	10/05/2023	13:56:30.256	4.65064625E+0	-9.04000000E+2	2.00000000E+0	-9.52665848E+0	7.15786100E+6
301	10/05/2023	13:56:31.737	7.66606899E-1	-9.04000000E+2	2.00000000E+0	-9.52665848E+0	7.15786100E+6
302	10/05/2023	13:56:33.187	1.00437392E+0	-9.08000000E+2	2.00000000E+0	-9.52665848E+0	7.15786100E+6
303	10/05/2023	13:56:34.745	1.58191769E+0	-8.80000000E+2	2.00000000E+0	-9.52665848E+0	7.15786100E+6
304	10/05/2023	13:56:36.190	5.72941824E-1	-8.43000000E+2	2.00000000E+0	-9.52665848E+0	7.15786100E+6
305	10/05/2023	13:56:37.686	6.09719014E+0	-7.88000000E+2	2.00000000E+0	-9.52665848E+0	7.15786100E+6
306	10/05/2023	13:56:39.172	6.36985522E-1	-8.01000000E+2	2.00000000E+0	-9.52665848E+0	7.15786100E+6
307	10/05/2023	13:56:40.642	3.83188401E+0	-8.60000000E+2	2.00000000E+0	-9.52665848E+0	7.15786100E+6
308	10/05/2023	13:56:42.186	5.70755902E+0	-9.02000000E+2	2.00000000E+0	-9.52665848E+0	7.15786100E+6
309	10/05/2023	13:56:43.724	3.83456847E+0	-9.06000000E+2	2.00000000E+0	-9.52665848E+0	7.15786100E+6
310	10/05/2023	13:56:45.173	9.28441872E-1	-9.02000000E+2	2.00000000E+0	-9.52665848E+0	7.15786100E+6
311	10/05/2023	13:56:46.733	1.03850499E+0	-8.88000000E+2	2.00000000E+0	-9.52665848E+0	7.15786100E+6
312	10/05/2023	13:56:48.178	1.11827199E+0	-8.49000000E+2	2.00000000E+0	-9.52665848E+0	7.15786100E+6
313	10/05/2023	13:56:49.694	3.97684519E-1	-7.99000000E+2	2.00000000E+0	-9.52665848E+0	7.15786100E+6
314	10/05/2023	13:56:51.166	3.84990828E+0	-7.97000000E+2	2.00000000E+0	-9.52665848E+0	7.15786100E+6
315	10/05/2023	13:56:52.633	3.41617521E+0	-8.56000000E+2	2.00000000E+0	-9.52665848E+0	7.15786100E+6
316	10/05/2023	13:56:54.162	3.05300526E+0	-8.95000000E+2	2.00000000E+0	-9.52665848E+0	7.15786100E+6
317	10/05/2023	13:56:55.655	4.52677731E+0	-9.07000000E+2	2.00000000E+0	-9.52665848E+0	7.15786100E+6
318	10/05/2023	13:56:57.129	3.82459760E+0	-9.07000000E+2	2.00000000E+0	-9.52665848E+0	7.15786100E+6
319	10/05/2023	13:56:58.681	6.26247657E+0	-8.98000000E+2	2.00000000E+0	-9.52665848E+0	7.15786100E+6
320	10/05/2023	13:57:00.131	3.59871893E+0	-8.60000000E+2	2.00000000E+0	-9.52665848E+0	7.15786100E+6
321	10/05/2023	13:57:01.694	3.35443249E+0	-7.87000000E+2	2.00000000E+0	-9.52665848E+0	7.15786100E+6
322	10/05/2023	13:57:03.162	1.91095657E+0	-8.20000000E+2	2.00000000E+0	-9.52665848E+0	7.15786100E+6
323	10/05/2023	13:57:04.657	6.18654452E+0	-8.96000000E+2	2.00000000E+0	-9.52665848E+0	7.15786100E+6
324	10/05/2023	13:57:06.169	2.65877220E+0	-9.08000000E+2	2.00000000E+0	-9.52665848E+0	7.15786100E+6
325	10/05/2023	13:57:07.624	5.70985999E+0	-9.05000000E+2	2.00000000E+0	-9.52665848E+0	7.15786100E+6
326	10/05/2023	13:57:09.240	6.10754451E+0	-9.05000000E+2	2.00000000E+0	-9.52665848E+0	7.15786100E+6
327	10/05/2023	13:57:10.729	3.75480147E+0	-8.85000000E+2	2.00000000E+0	-9.52665848E+0	7.15786100E+6
328	10/05/2023	13:57:12.197	5.37046674E+0	-8.47000000E+2	2.00000000E+0	-9.52665848E+0	7.15786100E+6
329	10/05/2023	13:57:13.830	2.87813145E+0	-7.80000000E+2	2.00000000E+0	-9.52665848E+0	7.15786100E+6
330	10/05/2023	13:57:15.323	2.98896157E+0	-7.57000000E+2	2.00000000E+0	-9.52665848E+0	7.15786100E+6
331	10/05/2023	13:57:16.783	5.71446193E+0	-8.24000000E+2	2.00000000E+0	-9.52665848E+0	7.15786100E+6
332	10/05/2023	13:57:18.302	1.45114583E+0	-8.82000000E+2	2.00000000E+0	-9.52665848E+0	7.15786100E+6
333	10/05/2023	13:57:19.736	5.21515118E+0	-9.06000000E+2	2.00000000E+0	-9.52665848E+0	7.15786100E+6
334	10/05/2023	13:57:21.262	5.85673865E+0	-9.01000000E+2	2.00000000E+0	-9.52665848E+0	7.15786100E+6
335	10/05/2023	13:57:22.715	1.12747588E+0	-9.04000000E+2	2.00000000E+0	-9.52665848E+0	7.15786100E+6
336	10/05/2023	13:57:24.173	4.46004914E+0	-9.01000000E+2	2.00000000E+0	-9.52665848E+0	7.15786100E+6
337	10/05/2023	13:57:25.719	3.08061692E+0	-8.66000000E+2	2.00000000E+0	-9.52665848E+0	7.15786100E+6
338	10/05/2023	13:57:27.167	3.94846655E+0	-8.11000000E+2	2.00000000E+0	-9.52665848E+0	7.15786100E+6
339	10/05/2023	13:57:28.653	4.45084526E+0	-7.52000000E+2	2.00000000E+0	-9.52665848E+0	7.15786100E+6
340	10/05/2023	13:57:30.125	2.06512164E+0	-8.16000000E+2	2.00000000E+0	-9.52665848E+0	7.15786100E+6
341	10/05/2023	13:57:31.579	3.45145677E-1	-8.72000000E+2	2.00000000E+0	-9.52665848E+0	7.15786100E+6
342	10/05/2023	13:57:33.087	2.39301003E+0	-9.00000000E+2	2.00000000E+0	-9.52665848E+0	7.15786100E+6
343	10/05/2023	13:57:34.535	2.46970907E+0	-9.03000000E+2	2.00000000E+0	-9.52665848E+0	7.15786100E+6
344	10/05/2023	13:57:35.997	6.00016585E+0	-9.02000000E+2	2.00000000E+0	-9.52665848E+0	7.15786100E+6
345	10/05/2023	13:57:37.531	5.70870950E+0	-8.96000000E+2	2.00000000E+0	-9.52665848E+0	7.15786100E+6
346	10/05/2023	13:57:38.967	5.96603478E+0	-8.71000000E+2	2.00000000E+0	-9.52665848E+0	7.15786100E+6
347	10/05/2023	13:57:40.481	5.85213671E+0	-8.16000000E+2	2.00000000E+0	-9.52665848E+0	7.15786100E+6
348	10/05/2023	13:57:41.954	1.64481090E+0	-8.55000000E+2	2.00000000E+0	-9.52665848E+0	7.15786100E+6
349	10/05/2023	13:57:43.410	5.62702503E+0	-8.93000000E+2	2.00000000E+0	-9.52665848E+0	7.15786100E+6
350	10/05/2023	13:57:44.928	4.11758793E+0	-8.73000000E+2	2.00000000E+0	-9.52665848E+0	7.15786100E+6
351	10/05/2023	13:57:46.417	2.06588863E+0	-8.22000000E+2	2.00000000E+0	-9.52665848E+0	7.15786100E+6
352	10/05/2023	13:57:47.863	2.22849059E+0	-7.62000000E+2	2.00000000E+0	-9.52665848E+0	7.15786100E+6
353	10/05/2023	13:57:49.405	1.25019434E-1	-7.17000000E+2	2.00000000E+0	-9.52665848E+0	7.15786100E+6
354	10/05/2023	13:57:50.877	5.51581142E+0	-7.95000000E+2	2.00000000E+0	-9.52665848E+0	7.15786100E+6
355	10/05/2023	13:57:52.430	5.43144247E+0	-8.45000000E+2	2.00000000E+0	-9.52665848E+0	7.15786100E+6
356	10/05/2023	13:57:53.858	2.36923333E+0	-8.58000000E+2	2.00000000E+0	-9.52665848E+0	7.15786100E+6
357	10/05/2023	13:57:55.349	3.95651995E+0	-8.62000000E+2	2.00000000E+0	-9.52665848E+0	7.15786100E+6
358	10/05/2023	13:57:56.870	4.18393260E+0	-8.91000000E+2	2.00000000E+0	-9.52665848E+0	7.15786100E+6
359	10/05/2023	13:57:58.344	1.83655850E+0	-9.00000000E+2	2.00000000E+0	-9.52665848E+0	7.15786100E+6
360	10/05/2023	13:57:59.833	1.26476716E+0	-9.07000000E+2	2.00000000E+0	-9.52665848E+0	7.15786100E+6
361	10/05/2023	13:58:01.367	4.39523845E+0	-9.07000000E+2	2.00000000E+0	-9.52665848E+0	7.15786100E+6
362	10/05/2023	13:58:02.813	2.25763622E+0	-8.99000000E+2	2.00000000E+0	-9.52665848E+0	7.15786100E+6
363	10/05/2023	13:58:04.383	5.82490855E+0	-8.90000000E+2	2.00000000E+0	-9.52665848E+0	7.15786100E+6
364	10/05/2023	13:58:05.855	2.51764597E+0	-8.74000000E+2	2.00000000E+0	-9.52665848E+0	7.15786100E+6
365	10/05/2023	13:58:07.312	1.67012158E+0	-8.45000000E+2	2.00000000E+0	-9.52665848E+0	7.15786100E+6
366	10/05/2023	13:58:08.845	2.96288389E+0	-8.16000000E+2	2.00000000E+0	-9.52665848E+0	7.15786100E+6
367	10/05/2023	13:58:10.325	8.12626322E-1	-7.98000000E+2	2.00000000E+0	-9.52665848E+0	7.15786100E+6
368	10/05/2023	13:58:11.877	5.61015124E+0	-7.83000000E+2	2.00000000E+0	-9.52665848E+0	7.15786100E+6
369	10/05/2023	13:58:13.343	5.53000074E+0	-8.11000000E+2	2.00000000E+0	-9.52665848E+0	7.15786100E+6
370	10/05/2023	13:58:14.802	6.19421442E+0	-8.55000000E+2	2.00000000E+0	-9.52665848E+0	7.15786100E+6
371	10/05/2023	13:58:16.332	1.84077695E-2	-8.65000000E+2	2.00000000E+0	-9.52665848E+0	7.15786100E+6
372	10/05/2023	13:58:17.787	4.00829180E+0	-8.89000000E+2	2.00000000E+0	-9.52665848E+0	7.15786100E+6
373	10/05/2023	13:58:19.277	4.72044238E+0	-8.95000000E+2	2.00000000E+0	-9.52665848E+0	7.15786100E+6
374	10/05/2023	13:58:20.724	1.00552441E+0	-9.02000000E+2	2.00000000E+0	-9.52665848E+0	7.15786100E+6
375	10/05/2023	13:58:22.183	8.56728270E-1	-9.03000000E+2	2.00000000E+0	-9.52665848E+0	7.15786100E+6
376	10/05/2023	13:58:23.709	8.63631184E-1	-9.06000000E+2	2.00000000E+0	-9.52665848E+0	7.15786100E+6
377	10/05/2023	13:58:25.200	5.19712691E+0	-9.07000000E+2	2.00000000E+0	-9.52665848E+0	7.15786100E+6
378	10/05/2023	13:58:26.651	5.03068999E+0	-8.98000000E+2	2.00000000E+0	-9.52665848E+0	7.15786100E+6
379	10/05/2023	13:58:28.210	3.10247614E+0	-8.95000000E+2	2.00000000E+0	-9.52665848E+0	7.15786100E+6
380	10/05/2023	13:58:29.662	1.34990309E-1	-8.72000000E+2	2.00000000E+0	-9.52665848E+0	7.15786100E+6
381	10/05/2023	13:58:31.453	4.08882579E+0	-8.45000000E+2	2.00000000E+0	-9.52665848E+0	7.15786100E+6
382	10/05/2023	13:58:32.920	3.92775781E+0	-8.13000000E+2	2.00000000E+0	-9.52665848E+0	7.15786100E+6
383	10/05/2023	13:58:34.431	3.25587422E-1	-8.22000000E+2	2.00000000E+0	-9.52665848E+0	7.15786100E+6
384	10/05/2023	13:58:35.963	3.01427225E-1	-8.57000000E+2	2.00000000E+0	-9.52665848E+0	7.15786100E+6
385	10/05/2023	13:58:37.598	3.51741795E+0	-8.93000000E+2	2.00000000E+0	-9.52665848E+0	7.15786100E+6
386	10/05/2023	13:58:39.043	2.36616537E-1	-8.99000000E+2	2.00000000E+0	-9.52665848E+0	7.15786100E+6
387	10/05/2023	13:58:40.590	5.92806875E+0	-9.04000000E+2	2.00000000E+0	-9.52665848E+0	7.15786100E+6
388	10/05/2023	13:58:42.047	2.29828672E+0	-9.05000000E+2	2.00000000E+0	-9.52665848E+0	7.15786100E+6
389	10/05/2023	13:58:43.586	3.62096165E+0	-9.04000000E+2	2.00000000E+0	-9.52665848E+0	7.15786100E+6
390	10/05/2023	13:58:45.034	4.34193262E+0	-9.06000000E+2	2.00000000E+0	-9.52665848E+0	7.15786100E+6
391	10/05/2023	13:58:46.506	5.53383569E+0	-9.08000000E+2	2.00000000E+0	-9.52665848E+0	7.15786100E+6
392	10/05/2023	13:58:48.046	4.09035977E+0	-9.07000000E+2	2.00000000E+0	-9.52665848E+0	7.15786100E+6
393	10/05/2023	13:58:49.518	3.62402961E-1	-9.02000000E+2	2.00000000E+0	-9.52665848E+0	7.15786100E+6
394	10/05/2023	13:58:51.119	4.51757342E+0	-9.04000000E+2	2.00000000E+0	-9.52665848E+0	7.15786100E+6
395	10/05/2023	13:58:52.568	4.69283073E+0	-8.82000000E+2	2.00000000E+0	-9.52665848E+0	7.15786100E+6
396	10/05/2023	13:58:54.007	1.03773800E+0	-8.57000000E+2	2.00000000E+0	-9.52665848E+0	7.15786100E+6
397	10/05/2023	13:58:55.520	3.99870442E+0	-8.16000000E+2	2.00000000E+0	-9.52665848E+0	7.15786100E+6
398	10/05/2023	13:58:56.986	6.01857362E+0	-7.95000000E+2	2.00000000E+0	-9.52665848E+0	7.15786100E+6
399	10/05/2023	13:58:58.444	1.07071859E+0	-7.77000000E+2	2.00000000E+0	-9.52665848E+0	7.15786100E+6
400	10/05/2023	13:59:00.002	5.72980174E+0	-8.22000000E+2	2.00000000E+0	-9.52665848E+0	7.15786100E+6
401	10/05/2023	13:59:01.450	1.39208757E-1	-8.77000000E+2	2.00000000E+0	-9.52665848E+0	7.15786100E+6
402	10/05/2023	13:59:02.967	2.37191779E+0	-9.07000000E+2	2.00000000E+0	-9.52665848E+0	7.15786100E+6
403	10/05/2023	13:59:04.433	1.61950022E+0	-9.06000000E+2	2.00000000E+0	-9.52665848E+0	7.15786100E+6
404	10/05/2023	13:59:05.913	3.50169464E+0	-9.04000000E+2	2.00000000E+0	-9.52665848E+0	7.15786100E+6
405	10/05/2023	13:59:07.454	3.98528209E+0	-9.02000000E+2	2.00000000E+0	-9.52665848E+0	7.15786100E+6
406	10/05/2023	13:59:08.946	1.01357781E+0	-8.94000000E+2	2.00000000E+0	-9.52665848E+0	7.15786100E+6
407	10/05/2023	13:59:10.429	1.41969922E+0	-8.84000000E+2	2.00000000E+0	-9.52665848E+0	7.15786100E+6
408	10/05/2023	13:59:11.874	3.89707819E+0	-8.68000000E+2	2.00000000E+0	-9.52665848E+0	7.15786100E+6
409	10/05/2023	13:59:13.357	4.81554919E+0	-8.49000000E+2	2.00000000E+0	-9.52665848E+0	7.15786100E+6
410	10/05/2023	13:59:14.881	5.20172885E+0	-8.28000000E+2	2.00000000E+0	-9.52665848E+0	7.15786100E+6
411	10/05/2023	13:59:16.323	1.37406329E+0	-8.10000000E+2	2.00000000E+0	-9.52665848E+0	7.15786100E+6
412	10/05/2023	13:59:17.774	4.17242774E-1	-7.87000000E+2	2.00000000E+0	-9.52665848E+0	7.15786100E+6
413	10/05/2023	13:59:19.316	1.36064096E+0	-7.82000000E+2	2.00000000E+0	-9.52665848E+0	7.15786100E+6
414	10/05/2023	13:59:20.793	6.18424355E+0	-8.26000000E+2	2.00000000E+0	-9.52665848E+0	7.15786100E+6
415	10/05/2023	13:59:22.273	4.68247636E+0	-8.66000000E+2	2.00000000E+0	-9.52665848E+0	7.15786100E+6
416	10/05/2023	13:59:23.723	5.94455905E+0	-8.82000000E+2	2.00000000E+0	-9.52665848E+0	7.15786100E+6
417	10/05/2023	13:59:25.175	5.85213671E+0	-8.93000000E+2	2.00000000E+0	-9.52665848E+0	7.15786100E+6
418	10/05/2023	13:59:26.808	6.14205907E+0	-8.98000000E+2	2.00000000E+0	-9.52665848E+0	7.15786100E+6
419	10/05/2023	13:59:28.246	9.22689444E-1	-9.04000000E+2	2.00000000E+0	-9.52665848E+0	7.15786100E+6
420	10/05/2023	13:59:29.736	1.05691276E+0	-9.06000000E+2	2.00000000E+0	-9.52665848E+0	7.15786100E+6
421	10/05/2023	13:59:31.287	3.21138878E+0	-9.07000000E+2	2.00000000E+0	-9.52665848E+0	7.15786100E+6
422	10/05/2023	13:59:32.762	3.98566558E+0	-9.06000000E+2	2.00000000E+0	-9.52665848E+0	7.15786100E+6
423	10/05/2023	13:59:34.301	5.15801040E-1	-9.03000000E+2	2.00000000E+0	-9.52665848E+0	7.15786100E+6
424	10/05/2023	13:59:35.787	3.48136940E+0	-8.97000000E+2	2.00000000E+0	-9.52665848E+0	7.15786100E+6
425	10/05/2023	13:59:37.259	5.48935025E+0	-8.97000000E+2	2.00000000E+0	-9.52665848E+0	7.15786100E+6
426	10/05/2023	13:59:38.833	1.61298080E+0	-8.91000000E+2	2.00000000E+0	-9.52665848E+0	7.15786100E+6
427	10/05/2023	13:59:40.279	5.89623865E+0	-8.88000000E+2	2.00000000E+0	-9.52665848E+0	7.15786100E+6
428	10/05/2023	13:59:41.897	5.09933563E+0	-8.68000000E+2	2.00000000E+0	-9.52665848E+0	7.15786100E+6
429	10/05/2023	13:59:43.388	5.48206384E+0	-8.30000000E+2	2.00000000E+0	-9.52665848E+0	7.15786100E+6
430	10/05/2023	13:59:44.873	7.66990394E-4	-7.82000000E+2	2.00000000E+0	-9.52665848E+0	7.15786100E+6
431	10/05/2023	13:59:46.402	3.38856356E+0	-7.38000000E+2	2.00000000E+0	-9.52665848E+0	7.15786100E+6
432	10/05/2023	13:59:47.911	2.21123331E+0	-7.66000000E+2	2.00000000E+0	-9.52665848E+0	7.15786100E+6
433	10/05/2023	13:59:49.358	5.58023861E+0	-7.95000000E+2	2.00000000E+0	-9.52665848E+0	7.15786100E+6
434	10/05/2023	13:59:51.031	6.05615615E+0	-8.13000000E+2	2.00000000E+0	-9.52665848E+0	7.15786100E+6
435	10/05/2023	13:59:52.485	5.16184535E+0	-8.22000000E+2	2.00000000E+0	-9.52665848E+0	7.15786100E+6
436	10/05/2023	13:59:54.241	2.52378189E+0	-8.29000000E+2	2.00000000E+0	-9.52665848E+0	7.15786100E+6
437	10/05/2023	13:59:55.704	7.39762235E-1	-8.45000000E+2	2.00000000E+0	-9.52665848E+0	7.15786100E+6
438	10/05/2023	13:59:57.181	5.20134536E+0	-8.54000000E+2	2.00000000E+0	-9.52665848E+0	7.15786100E+6
439	10/05/2023	13:59:58.659	4.16399085E+0	-8.70000000E+2	2.00000000E+0	-9.52665848E+0	7.15786100E+6
440	10/05/2023	14:00:00.125	4.38948602E+0	-8.82000000E+2	2.00000000E+0	-9.52665848E+0	7.15786100E+6
441	10/05/2023	14:00:01.617	5.64773377E+0	-8.94000000E+2	2.00000000E+0	-9.52665848E+0	7.15786100E+6
442	10/05/2023	14:00:03.077	4.17089376E+0	-8.98000000E+2	2.00000000E+0	-9.52665848E+0	7.15786100E+6
443	10/05/2023	14:00:04.517	2.32819934E+0	-9.00000000E+2	2.00000000E+0	-9.52665848E+0	7.15786100E+6
444	10/05/2023	14:00:06.047	4.24835979E+0	-9.06000000E+2	2.00000000E+0	-9.52665848E+0	7.15786100E+6
445	10/05/2023	14:00:07.545	9.22689444E-1	-9.07000000E+2	2.00000000E+0	-9.52665848E+0	7.15786100E+6
446	10/05/2023	14:00:09.028	3.04418487E+0	-9.06000000E+2	2.00000000E+0	-9.52665848E+0	7.15786100E+6
447	10/05/2023	14:00:10.555	4.86578706E+0	-9.06000000E+2	2.00000000E+0	-9.52665848E+0	7.15786100E+6
448	10/05/2023	14:00:12.007	4.28479184E+0	-9.05000000E+2	2.00000000E+0	-9.52665848E+0	7.15786100E+6
449	10/05/2023	14:00:13.525	5.30757353E-1	-9.04000000E+2	2.00000000E+0	-9.52665848E+0	7.15786100E+6
450	10/05/2023	14:00:14.990	4.15747143E+0	-9.03000000E+2	2.00000000E+0	-9.52665848E+0	7.15786100E+6
451	10/05/2023	14:00:16.476	7.77728259E-1	-9.01000000E+2	2.00000000E+0	-9.52665848E+0	7.15786100E+6
452	10/05/2023	14:00:18.002	5.29146673E+0	-8.95000000E+2	2.00000000E+0	-9.52665848E+0	7.15786100E+6
453	10/05/2023	14:00:19.481	5.16222885E+0	-8.87000000E+2	2.00000000E+0	-9.52665848E+0	7.15786100E+6
454	10/05/2023	14:00:20.958	3.66314612E+0	-8.94000000E+2	2.00000000E+0	-9.52665848E+0	7.15786100E+6
455	10/05/2023	14:00:22.524	5.90045710E+0	-9.04000000E+2	2.00000000E+0	-9.52665848E+0	7.15786100E+6
456	10/05/2023	14:00:24.002	5.23049099E+0	-8.97000000E+2	2.00000000E+0	-9.52665848E+0	7.15786100E+6
457	10/05/2023	14:00:25.597	2.36233041E+0	-8.98000000E+2	2.00000000E+0	-9.52665848E+0	7.15786100E+6
458	10/05/2023	14:00:27.054	2.77267027E+0	-9.02000000E+2	2.00000000E+0	-9.52665848E+0	7.15786100E+6
459	10/05/2023	14:00:28.705	4.02554908E+0	-8.91000000E+2	2.00000000E+0	-9.52665848E+0	7.15786100E+6
460	10/05/2023	14:00:30.572	4.65141324E+0	-8.80000000E+2	2.00000000E+0	-9.52665848E+0	7.15786100E+6
461	10/05/2023	14:00:32.056	5.80381631E+0	-8.91000000E+2	2.00000000E+0	-9.52665848E+0	7.15786100E+6
462	10/05/2023	14:00:33.615	3.68155389E+0	-8.71000000E+2	2.00000000E+0	-9.52665848E+0	7.15786100E+6
463	10/05/2023	14:00:35.174	1.57424778E+0	-8.58000000E+2	2.00000000E+0	-9.52665848E+0	7.15786100E+6
464	10/05/2023	14:00:36.626	5.12004437E+0	-8.75000000E+2	2.00000000E+0	-9.52665848E+0	7.15786100E+6
465	10/05/2023	14:00:38.215	3.16805382E+0	-8.46000000E+2	2.00000000E+0	-9.52665848E+0	7.15786100E+6
466	10/05/2023	14:00:39.688	3.76093740E+0	-8.53000000E+2	2.00000000E+0	-9.52665848E+0	7.15786100E+6
467	10/05/2023	14:00:41.168	6.15318044E+0	-8.53000000E+2	2.00000000E+0	-9.52665848E+0	7.15786100E+6
468	10/05/2023	14:00:42.705	5.38388907E+0	-8.29000000E+2	2.00000000E+0	-9.52665848E+0	7.15786100E+6
469	10/05/2023	14:00:44.187	3.76400536E+0	-7.84000000E+2	2.00000000E+0	-9.52665848E+0	7.15786100E+6
470	10/05/2023	14:00:45.702	3.77320924E+0	-8.17000000E+2	2.00000000E+0	-9.52665848E+0	7.15786100E+6
471	10/05/2023	14:00:47.157	1.21261181E+0	-8.52000000E+2	2.00000000E+0	-9.52665848E+0	7.15786100E+6
472	10/05/2023	14:00:48.596	3.16767033E+0	-8.89000000E+2	2.00000000E+0	-9.52665848E+0	7.15786100E+6
473	10/05/2023	14:00:50.110	1.90597113E-1	-9.03000000E+2	2.00000000E+0	-9.52665848E+0	7.15786100E+6
474	10/05/2023	14:00:51.564	2.11919446E+0	-9.08000000E+2	2.00000000E+0	-9.52665848E+0	7.15786100E+6
475	10/05/2023	14:00:53.031	1.36370892E+0	-9.02000000E+2	2.00000000E+0	-9.52665848E+0	7.15786100E+6
476	10/05/2023	14:00:54.432	3.97492772E+0	-8.81000000E+2	2.00000000E+0	-9.52665848E+0	7.15786100E+6
477	10/05/2023	14:00:55.908	1.96119444E+0	-8.45000000E+2	2.00000000E+0	-9.52665848E+0	7.15786100E+6
478	10/05/2023	14:00:57.445	5.46442306E+0	-7.82000000E+2	2.00000000E+0	-9.52665848E+0	7.15786100E+6
479	10/05/2023	14:00:58.917	5.39999587E+0	-8.02000000E+2	2.00000000E+0	-9.52665848E+0	7.15786100E+6
480	10/05/2023	14:01:00.389	8.32184577E-1	-8.62000000E+2	2.00000000E+0	-9.52665848E+0	7.15786100E+6
481	10/05/2023	14:01:01.952	2.98972856E+0	-9.01000000E+2	2.00000000E+0	-9.52665848E+0	7.15786100E+6
482	10/05/2023	14:01:03.433	8.83572934E-1	-9.06000000E+2	2.00000000E+0	-9.52665848E+0	7.15786100E+6
483	10/05/2023	14:01:05.060	2.73393726E+0	-8.96000000E+2	2.00000000E+0	-9.52665848E+0	7.15786100E+6
484	10/05/2023	14:01:06.496	6.71500090E-1	-8.68000000E+2	2.00000000E+0	-9.52665848E+0	7.15786100E+6
485	10/05/2023	14:01:07.948	3.59373349E+0	-8.13000000E+2	2.00000000E+0	-9.52665848E+0	7.15786100E+6
486	10/05/2023	14:01:09.473	4.36839379E+0	-7.72000000E+2	2.00000000E+0	-9.52665848E+0	7.15786100E+6
487	10/05/2023	14:01:10.924	1.71230605E+0	-8.38000000E+2	2.00000000E+0	-9.52665848E+0	7.15786100E+6
488	10/05/2023	14:01:12.412	5.75626291E+0	-8.93000000E+2	2.00000000E+0	-9.52665848E+0	7.15786100E+6
489	10/05/2023	14:01:14.010	1.05652927E+0	-9.06000000E+2	2.00000000E+0	-9.52665848E+0	7.15786100E+6
490	10/05/2023	14:01:15.462	1.49793224E+0	-9.05000000E+2	2.00000000E+0	-9.52665848E+0	7.15786100E+6
491	10/05/2023	14:01:17.070	3.01734021E+0	-8.96000000E+2	2.00000000E+0	-9.52665848E+0	7.15786100E+6
492	10/05/2023	14:01:18.563	3.01810720E-1	-8.85000000E+2	2.00000000E+0	-9.52665848E+0	7.15786100E+6
493	10/05/2023	14:01:20.019	2.00644687E+0	-8.53000000E+2	2.00000000E+0	-9.52665848E+0	7.15786100E+6
494	10/05/2023	14:01:21.581	1.88871385E+0	-8.16000000E+2	2.00000000E+0	-9.52665848E+0	7.15786100E+6
495	10/05/2023	14:01:23.018	5.80765126E+0	-7.79000000E+2	2.00000000E+0	-9.52665848E+0	7.15786100E+6
496	10/05/2023	14:01:24.564	1.43158757E+0	-8.08000000E+2	2.00000000E+0	-9.52665848E+0	7.15786100E+6
497	10/05/2023	14:01:26.022	3.65240826E+0	-8.50000000E+2	2.00000000E+0	-9.52665848E+0	7.15786100E+6
498	10/05/2023	14:01:27.476	3.83993741E+0	-8.75000000E+2	2.00000000E+0	-9.52665848E+0	7.15786100E+6
499	10/05/2023	14:01:29.022	1.33264581E+0	-8.88000000E+2	2.00000000E+0	-9.52665848E+0	7.15786100E+6
500	10/05/2023	14:01:30.491	3.70993254E+0	-8.98000000E+2	2.00000000E+0	-9.52665848E+0	7.15786100E+6
