#Iteration	Date	Time	STSX	STSY	RotationRateX	RotationRateY	FrCntX	FrCntY	TiptiltCmd1	TiptiltCmd2	TiptiltMonitor1	TiptiltMonitor2
1	10/05/2023	13:49:01.002	0.00000E+0	0.00000E+0	8.02716E-2	1.87178E-1	0.00000E+0	0.00000E+0	1.95200E+1	1.35000E+1	1.95195E+1	1.35012E+1
2	10/05/2023	13:49:02.547	0.00000E+0	0.00000E+0	-2.09675E-1	-1.88813E-1	0.00000E+0	0.00000E+0	1.95200E+1	1.35000E+1	1.95204E+1	1.34970E+1
3	10/05/2023	13:49:04.034	0.00000E+0	0.00000E+0	-2.17574E-2	9.55940E-1	0.00000E+0	0.00000E+0	1.95200E+1	1.35000E+1	1.95185E+1	1.34987E+1
4	10/05/2023	13:49:05.526	0.00000E+0	0.00000E+0	-3.96418E-1	-1.27688E+0	0.00000E+0	0.00000E+0	1.95200E+1	1.35000E+1	1.95200E+1	1.35013E+1
5	10/05/2023	13:49:07.049	0.00000E+0	0.00000E+0	2.86907E+1	2.60078E+1	0.00000E+0	0.00000E+0	1.95200E+1	1.35000E+1	1.95211E+1	1.34988E+1
6	10/05/2023	13:49:08.516	0.00000E+0	0.00000E+0	-1.92650E+1	-1.31066E+1	0.00000E+0	0.00000E+0	1.95200E+1	1.35000E+1	1.95187E+1	1.35016E+1
7	10/05/2023	13:49:10.114	0.00000E+0	0.00000E+0	-4.59678E+1	-4.86224E+1	0.00000E+0	0.00000E+0	1.95200E+1	1.35000E+1	1.95211E+1	1.34979E+1
8	10/05/2023	13:49:11.569	0.00000E+0	0.00000E+0	-7.57441E+0	-1.65636E+1	0.00000E+0	0.00000E+0	1.95200E+1	1.35000E+1	1.95195E+1	1.35001E+1
9	10/05/2023	13:49:13.000	0.00000E+0	0.00000E+0	1.83145E+1	9.15257E+0	0.00000E+0	0.00000E+0	1.95200E+1	1.35000E+1	1.95183E+1	1.34998E+1
10	10/05/2023	13:49:14.575	0.00000E+0	0.00000E+0	2.47777E+1	1.51838E+1	0.00000E+0	0.00000E+0	1.95200E+1	1.35000E+1	1.95184E+1	1.35016E+1
11	10/05/2023	13:49:16.022	0.00000E+0	0.00000E+0	5.02936E+1	3.92272E+1	0.00000E+0	0.00000E+0	1.95200E+1	1.35000E+1	1.95222E+1	1.34968E+1
12	10/05/2023	13:49:17.486	0.00000E+0	0.00000E+0	5.47696E+1	5.18312E+1	0.00000E+0	0.00000E+0	1.95200E+1	1.35000E+1	1.95176E+1	1.35003E+1
13	10/05/2023	13:49:19.145	0.00000E+0	0.00000E+0	4.19828E+0	-7.88743E+0	0.00000E+0	0.00000E+0	1.95200E+1	1.35000E+1	1.95196E+1	1.34983E+1
14	10/05/2023	13:49:20.586	0.00000E+0	0.00000E+0	1.67005E+1	5.75175E+0	0.00000E+0	0.00000E+0	1.95200E+1	1.35000E+1	1.95206E+1	1.34981E+1
15	10/05/2023	13:49:22.161	0.00000E+0	0.00000E+0	1.40534E+1	3.76720E+0	0.00000E+0	0.00000E+0	1.95200E+1	1.35000E+1	1.95190E+1	1.35028E+1
16	10/05/2023	13:49:23.648	0.00000E+0	0.00000E+0	-1.04102E+1	-1.68846E+1	0.00000E+0	0.00000E+0	1.95200E+1	1.35000E+1	1.95197E+1	1.35013E+1
17	10/05/2023	13:49:25.088	0.00000E+0	0.00000E+0	-3.45988E+1	-4.53128E+1	0.00000E+0	0.00000E+0	1.95200E+1	1.35000E+1	1.95197E+1	1.35010E+1
18	10/05/2023	13:49:26.652	0.00000E+0	0.00000E+0	-5.84988E+1	-5.83573E+1	0.00000E+0	0.00000E+0	1.95200E+1	1.35000E+1	1.95222E+1	1.35014E+1
19	10/05/2023	13:49:28.114	0.00000E+0	0.00000E+0	-3.93351E+1	-3.94671E+1	0.00000E+0	0.00000E+0	1.95200E+1	1.35000E+1	1.95208E+1	1.35027E+1
20	10/05/2023	13:49:29.574	0.00000E+0	0.00000E+0	-3.12639E+1	-2.99772E+1	0.00000E+0	0.00000E+0	1.95200E+1	1.35000E+1	1.95208E+1	1.35029E+1
21	10/05/2023	13:49:31.141	0.00000E+0	0.00000E+0	-2.60746E+1	-1.94332E+1	0.00000E+0	0.00000E+0	1.95200E+1	1.35000E+1	1.95199E+1	1.34999E+1
22	10/05/2023	13:49:32.627	0.00000E+0	0.00000E+0	1.36540E+1	2.23867E+1	0.00000E+0	0.00000E+0	1.95200E+1	1.35000E+1	1.95186E+1	1.34983E+1
23	10/05/2023	13:49:34.187	0.00000E+0	0.00000E+0	1.02542E+0	7.16652E+0	0.00000E+0	0.00000E+0	1.95200E+1	1.35000E+1	1.95201E+1	1.34993E+1
24	10/05/2023	13:49:35.665	0.00000E+0	0.00000E+0	-7.99203E-1	-1.20406E+0	0.00000E+0	0.00000E+0	1.95200E+1	1.35000E+1	1.95204E+1	1.34988E+1
25	10/05/2023	13:49:37.173	0.00000E+0	0.00000E+0	-3.12222E-1	-7.33836E-2	0.00000E+0	0.00000E+0	1.95200E+1	1.35000E+1	1.95206E+1	1.34980E+1
26	10/05/2023	13:49:38.726	0.00000E+0	0.00000E+0	3.45808E-1	7.80472E-1	0.00000E+0	0.00000E+0	1.95200E+1	1.35000E+1	1.95168E+1	1.34983E+1
27	10/05/2023	13:49:40.220	0.00000E+0	0.00000E+0	2.25366E+1	2.36317E+1	0.00000E+0	0.00000E+0	1.95200E+1	1.35000E+1	1.95192E+1	1.34978E+1
28	10/05/2023	13:49:41.762	0.00000E+0	0.00000E+0	2.40749E+1	2.22173E+1	0.00000E+0	0.00000E+0	1.95200E+1	1.35000E+1	1.95198E+1	1.35006E+1
29	10/05/2023	13:49:43.261	0.00000E+0	0.00000E+0	3.18619E+1	2.99009E+1	0.00000E+0	0.00000E+0	1.95200E+1	1.35000E+1	1.95205E+1	1.34989E+1
30	10/05/2023	13:49:44.750	0.00000E+0	0.00000E+0	1.47879E+1	1.39530E+1	0.00000E+0	0.00000E+0	1.95200E+1	1.35000E+1	1.95197E+1	1.35012E+1
31	10/05/2023	13:49:46.288	0.00000E+0	0.00000E+0	-2.00369E+1	-2.03979E+1	0.00000E+0	0.00000E+0	1.95200E+1	1.35000E+1	1.95224E+1	1.35007E+1
32	10/05/2023	13:49:47.760	0.00000E+0	0.00000E+0	-2.63855E+1	-2.74100E+1	0.00000E+0	0.00000E+0	1.95200E+1	1.35000E+1	1.95199E+1	1.35000E+1
33	10/05/2023	13:49:49.192	0.00000E+0	0.00000E+0	-3.39377E+1	-3.55467E+1	0.00000E+0	0.00000E+0	1.95200E+1	1.35000E+1	1.95191E+1	1.35022E+1
34	10/05/2023	13:49:50.588	0.00000E+0	0.00000E+0	-3.37154E+1	-3.40536E+1	0.00000E+0	0.00000E+0	1.95200E+1	1.35000E+1	1.95182E+1	1.35015E+1
35	10/05/2023	13:49:52.038	0.00000E+0	0.00000E+0	-1.68691E+1	-1.81608E+1	0.00000E+0	0.00000E+0	1.95200E+1	1.35000E+1	1.95183E+1	1.35006E+1
36	10/05/2023	13:49:53.557	0.00000E+0	0.00000E+0	-2.34754E+1	-2.35896E+1	0.00000E+0	0.00000E+0	1.95200E+1	1.35000E+1	1.95204E+1	1.35029E+1
37	10/05/2023	13:49:55.038	0.00000E+0	0.00000E+0	-3.81541E+1	-3.92966E+1	0.00000E+0	0.00000E+0	1.95200E+1	1.35000E+1	1.95217E+1	1.35002E+1
38	10/05/2023	13:49:56.540	0.00000E+0	0.00000E+0	-3.92282E+1	-4.04149E+1	0.00000E+0	0.00000E+0	1.95200E+1	1.35000E+1	1.95203E+1	1.34984E+1
39	10/05/2023	13:49:58.088	0.00000E+0	0.00000E+0	-2.57814E+1	-2.77175E+1	0.00000E+0	0.00000E+0	1.95200E+1	1.35000E+1	1.95195E+1	1.35014E+1
40	10/05/2023	13:49:59.609	0.00000E+0	0.00000E+0	1.06982E+1	1.32150E+1	0.00000E+0	0.00000E+0	1.95200E+1	1.35000E+1	1.95203E+1	1.35006E+1
41	10/05/2023	13:50:01.218	0.00000E+0	0.00000E+0	3.08752E+1	3.37199E+1	0.00000E+0	0.00000E+0	1.95200E+1	1.35000E+1	1.95215E+1	1.35010E+1
42	10/05/2023	13:50:02.657	0.00000E+0	0.00000E+0	1.71977E+1	1.94052E+1	0.00000E+0	0.00000E+0	1.95200E+1	1.35000E+1	1.95221E+1	1.35018E+1
43	10/05/2023	13:50:04.119	0.00000E+0	0.00000E+0	8.70487E+0	8.07880E+0	0.00000E+0	0.00000E+0	1.95200E+1	1.35000E+1	1.95204E+1	1.34990E+1
44	10/05/2023	13:50:05.635	0.00000E+0	0.00000E+0	3.12362E+1	3.35748E+1	0.00000E+0	0.00000E+0	1.95200E+1	1.35000E+1	1.95211E+1	1.34986E+1
45	10/05/2023	13:50:07.076	0.00000E+0	0.00000E+0	1.01365E+1	9.72119E+0	0.00000E+0	0.00000E+0	1.95200E+1	1.35000E+1	1.95209E+1	1.35010E+1
46	10/05/2023	13:50:08.542	0.00000E+0	0.00000E+0	4.01083E+1	3.90689E+1	0.00000E+0	0.00000E+0	1.95200E+1	1.35000E+1	1.95222E+1	1.34986E+1
47	10/05/2023	13:50:10.089	0.00000E+0	0.00000E+0	3.97522E+1	4.03635E+1	0.00000E+0	0.00000E+0	1.95200E+1	1.35000E+1	1.95200E+1	1.35010E+1
48	10/05/2023	13:50:11.562	0.00000E+0	0.00000E+0	2.57511E+1	2.60892E+1	0.00000E+0	0.00000E+0	1.95200E+1	1.35000E+1	1.95200E+1	1.34991E+1
49	10/05/2023	13:50:13.134	0.00000E+0	0.00000E+0	3.54727E+1	3.53275E+1	0.00000E+0	0.00000E+0	1.95200E+1	1.35000E+1	1.95213E+1	1.34994E+1
50	10/05/2023	13:50:14.605	0.00000E+0	0.00000E+0	-4.43477E+1	-4.33085E+1	0.00000E+0	0.00000E+0	1.95200E+1	1.35000E+1	1.95182E+1	1.35021E+1
51	10/05/2023	13:50:16.050	0.00000E+0	0.00000E+0	-4.84123E+1	-4.81452E+1	0.00000E+0	0.00000E+0	1.95200E+1	1.35000E+1	1.95182E+1	1.34999E+1
52	10/05/2023	13:50:17.582	0.00000E+0	0.00000E+0	-5.19058E+1	-5.68548E+1	0.00000E+0	0.00000E+0	1.95200E+1	1.35000E+1	1.95194E+1	1.35004E+1
53	10/05/2023	13:50:19.067	0.00000E+0	0.00000E+0	-2.99965E+1	-2.54113E+1	0.00000E+0	0.00000E+0	1.95200E+1	1.35000E+1	1.95193E+1	1.35009E+1
54	10/05/2023	13:50:20.633	0.00000E+0	0.00000E+0	-1.50563E+1	-1.42650E+1	0.00000E+0	0.00000E+0	1.95200E+1	1.35000E+1	1.95205E+1	1.34999E+1
55	10/05/2023	13:50:22.098	0.00000E+0	0.00000E+0	-3.27377E+1	-3.67973E+1	0.00000E+0	0.00000E+0	1.95200E+1	1.35000E+1	1.95225E+1	1.35013E+1
56	10/05/2023	13:50:23.565	0.00000E+0	0.00000E+0	-4.55228E+1	-4.46124E+1	0.00000E+0	0.00000E+0	1.95200E+1	1.35000E+1	1.95196E+1	1.34973E+1
57	10/05/2023	13:50:25.112	0.00000E+0	0.00000E+0	2.00254E+1	2.13406E+1	0.00000E+0	0.00000E+0	1.95200E+1	1.35000E+1	1.95193E+1	1.34973E+1
58	10/05/2023	13:50:26.581	0.00000E+0	0.00000E+0	3.96188E+1	3.98014E+1	0.00000E+0	0.00000E+0	1.95200E+1	1.35000E+1	1.95205E+1	1.35021E+1
59	10/05/2023	13:50:28.033	0.00000E+0	0.00000E+0	1.83280E+1	1.94278E+1	0.00000E+0	0.00000E+0	1.95200E+1	1.35000E+1	1.95210E+1	1.35000E+1
60	10/05/2023	13:50:29.566	0.00000E+0	0.00000E+0	1.10309E+1	9.81665E+0	0.00000E+0	0.00000E+0	1.95200E+1	1.35000E+1	1.95211E+1	1.34993E+1
61	10/05/2023	13:50:31.005	0.00000E+0	0.00000E+0	2.30488E+1	2.42395E+1	0.00000E+0	0.00000E+0	1.95200E+1	1.35000E+1	1.95195E+1	1.35009E+1
62	10/05/2023	13:50:32.502	0.00000E+0	0.00000E+0	3.93939E+1	3.90827E+1	0.00000E+0	0.00000E+0	1.95200E+1	1.35000E+1	1.95187E+1	1.34998E+1
63	10/05/2023	13:50:33.993	0.00000E+0	0.00000E+0	4.36406E+1	4.60046E+1	0.00000E+0	0.00000E+0	1.95200E+1	1.35000E+1	1.95200E+1	1.34985E+1
64	10/05/2023	13:50:35.450	0.00000E+0	0.00000E+0	4.05281E+1	3.99184E+1	0.00000E+0	0.00000E+0	1.95200E+1	1.35000E+1	1.95179E+1	1.34998E+1
65	10/05/2023	13:50:37.002	0.00000E+0	0.00000E+0	2.51733E+1	2.65968E+1	0.00000E+0	0.00000E+0	1.95200E+1	1.35000E+1	1.95191E+1	1.34993E+1
66	10/05/2023	13:50:38.515	0.00000E+0	0.00000E+0	1.98843E+1	1.95314E+1	0.00000E+0	0.00000E+0	1.95200E+1	1.35000E+1	1.95200E+1	1.35010E+1
67	10/05/2023	13:50:39.971	0.00000E+0	0.00000E+0	-1.89817E+1	-1.89295E+1	0.00000E+0	0.00000E+0	1.95200E+1	1.35000E+1	1.95200E+1	1.34995E+1
68	10/05/2023	13:50:41.421	0.00000E+0	0.00000E+0	-1.44724E+1	-1.53920E+1	0.00000E+0	0.00000E+0	1.95200E+1	1.35000E+1	1.95214E+1	1.34991E+1
69	10/05/2023	13:50:42.924	0.00000E+0	0.00000E+0	-3.53820E+1	-3.62342E+1	0.00000E+0	0.00000E+0	1.95200E+1	1.35000E+1	1.95187E+1	1.35016E+1
70	10/05/2023	13:50:44.528	0.00000E+0	0.00000E+0	-4.59850E+1	-4.60592E+1	0.00000E+0	0.00000E+0	1.95200E+1	1.35000E+1	1.95207E+1	1.35007E+1
71	10/05/2023	13:50:46.012	0.00000E+0	0.00000E+0	-5.77362E+1	-6.13980E+1	0.00000E+0	0.00000E+0	1.95200E+1	1.35000E+1	1.95214E+1	1.35012E+1
72	10/05/2023	13:50:47.526	0.00000E+0	0.00000E+0	-3.68192E+1	-3.75482E+1	0.00000E+0	0.00000E+0	1.95200E+1	1.35000E+1	1.95187E+1	1.35050E+1
73	10/05/2023	13:50:49.075	0.00000E+0	0.00000E+0	-3.59845E+1	-3.85585E+1	0.00000E+0	0.00000E+0	1.95200E+1	1.35000E+1	1.95181E+1	1.35012E+1
74	10/05/2023	13:50:50.519	0.00000E+0	0.00000E+0	2.24138E+1	2.03674E+1	0.00000E+0	0.00000E+0	1.95200E+1	1.35000E+1	1.95214E+1	1.35000E+1
75	10/05/2023	13:50:52.080	0.00000E+0	0.00000E+0	4.31991E+1	3.91220E+1	0.00000E+0	0.00000E+0	1.95200E+1	1.35000E+1	1.95190E+1	1.35010E+1
76	10/05/2023	13:50:53.527	0.00000E+0	0.00000E+0	3.83053E+1	3.78605E+1	0.00000E+0	0.00000E+0	1.95200E+1	1.35000E+1	1.95192E+1	1.34987E+1
77	10/05/2023	13:50:54.987	0.00000E+0	0.00000E+0	4.42620E+1	4.48974E+1	0.00000E+0	0.00000E+0	1.95200E+1	1.35000E+1	1.95219E+1	1.34993E+1
78	10/05/2023	13:50:56.530	0.00000E+0	0.00000E+0	4.50871E+1	4.58562E+1	0.00000E+0	0.00000E+0	1.95200E+1	1.35000E+1	1.95217E+1	1.34999E+1
79	10/05/2023	13:50:57.993	0.00000E+0	0.00000E+0	4.55540E+1	4.76643E+1	0.00000E+0	0.00000E+0	1.95200E+1	1.35000E+1	1.95193E+1	1.35023E+1
80	10/05/2023	13:50:59.428	0.00000E+0	0.00000E+0	2.06607E+1	2.09309E+1	0.00000E+0	0.00000E+0	1.95200E+1	1.35000E+1	1.95196E+1	1.34964E+1
81	10/05/2023	13:51:00.962	0.00000E+0	0.00000E+0	2.81279E+1	2.99842E+1	0.00000E+0	0.00000E+0	1.95200E+1	1.35000E+1	1.95189E+1	1.35000E+1
82	10/05/2023	13:51:02.430	0.00000E+0	0.00000E+0	-3.57982E+1	-3.68807E+1	0.00000E+0	0.00000E+0	1.95200E+1	1.35000E+1	1.95183E+1	1.34992E+1
83	10/05/2023	13:51:03.993	0.00000E+0	0.00000E+0	-4.72683E+1	-4.72046E+1	0.00000E+0	0.00000E+0	1.95200E+1	1.35000E+1	1.95200E+1	1.35003E+1
84	10/05/2023	13:51:05.439	0.00000E+0	0.00000E+0	-3.43362E+1	-3.47972E+1	0.00000E+0	0.00000E+0	1.95200E+1	1.35000E+1	1.95195E+1	1.35009E+1
85	10/05/2023	13:51:06.875	0.00000E+0	0.00000E+0	-8.47563E+1	-8.73455E+1	0.00000E+0	0.00000E+0	1.95200E+1	1.35000E+1	1.95208E+1	1.35015E+1
86	10/05/2023	13:51:08.426	0.00000E+0	0.00000E+0	-9.70141E+1	-9.78949E+1	0.00000E+0	0.00000E+0	1.95200E+1	1.35000E+1	1.95181E+1	1.34996E+1
87	10/05/2023	13:51:09.901	0.00000E+0	0.00000E+0	4.82403E+1	5.23592E+1	0.00000E+0	0.00000E+0	1.95200E+1	1.35000E+1	1.95203E+1	1.34998E+1
88	10/05/2023	13:51:11.421	0.00000E+0	0.00000E+0	5.81223E+1	5.76651E+1	0.00000E+0	0.00000E+0	1.95200E+1	1.35000E+1	1.95186E+1	1.35013E+1
89	10/05/2023	13:51:12.894	0.00000E+0	0.00000E+0	8.05073E+1	8.35022E+1	0.00000E+0	0.00000E+0	1.95200E+1	1.35000E+1	1.95201E+1	1.35008E+1
90	10/05/2023	13:51:14.349	0.00000E+0	0.00000E+0	2.80473E+1	2.71645E+1	0.00000E+0	0.00000E+0	1.95200E+1	1.35000E+1	1.95213E+1	1.34992E+1
91	10/05/2023	13:51:15.887	0.00000E+0	0.00000E+0	5.46192E+1	5.91152E+1	0.00000E+0	0.00000E+0	1.95200E+1	1.35000E+1	1.95187E+1	1.34991E+1
92	10/05/2023	13:51:17.342	0.00000E+0	0.00000E+0	-6.89788E+0	-8.36760E+0	0.00000E+0	0.00000E+0	1.95200E+1	1.35000E+1	1.95185E+1	1.34975E+1
93	10/05/2023	13:51:18.810	0.00000E+0	0.00000E+0	-5.09736E+1	-5.25588E+1	0.00000E+0	0.00000E+0	1.95200E+1	1.35000E+1	1.95193E+1	1.34994E+1
94	10/05/2023	13:51:20.383	0.00000E+0	0.00000E+0	-1.81101E+1	-1.73478E+1	0.00000E+0	0.00000E+0	1.95200E+1	1.35000E+1	1.95195E+1	1.34990E+1
95	10/05/2023	13:51:21.793	0.00000E+0	0.00000E+0	-1.32486E+1	-1.55926E+1	0.00000E+0	0.00000E+0	1.95200E+1	1.35000E+1	1.95178E+1	1.34985E+1
96	10/05/2023	13:51:23.335	0.00000E+0	0.00000E+0	-5.88254E+1	-6.26055E+1	0.00000E+0	0.00000E+0	1.95200E+1	1.35000E+1	1.95222E+1	1.34989E+1
97	10/05/2023	13:51:24.800	0.00000E+0	0.00000E+0	-2.82694E+1	-2.26593E+1	0.00000E+0	0.00000E+0	1.95200E+1	1.35000E+1	1.95177E+1	1.34995E+1
98	10/05/2023	13:51:26.345	0.00000E+0	0.00000E+0	3.78618E+1	3.74068E+1	0.00000E+0	0.00000E+0	1.95200E+1	1.35000E+1	1.95188E+1	1.34999E+1
99	10/05/2023	13:51:27.987	0.00000E+0	0.00000E+0	6.82274E+1	6.90283E+1	0.00000E+0	0.00000E+0	1.95200E+1	1.35000E+1	1.95197E+1	1.35006E+1
100	10/05/2023	13:51:29.437	0.00000E+0	0.00000E+0	5.39614E+1	5.61758E+1	0.00000E+0	0.00000E+0	1.95200E+1	1.35000E+1	1.95221E+1	1.34979E+1
101	10/05/2023	13:51:30.887	0.00000E+0	0.00000E+0	6.37786E+1	6.20617E+1	0.00000E+0	0.00000E+0	1.95200E+1	1.35000E+1	1.95201E+1	1.35012E+1
102	10/05/2023	13:51:32.371	0.00000E+0	0.00000E+0	4.44702E+1	4.42812E+1	0.00000E+0	0.00000E+0	1.95200E+1	1.35000E+1	1.95214E+1	1.34992E+1
103	10/05/2023	13:51:33.861	0.00000E+0	0.00000E+0	-1.08336E+2	-1.13325E+2	0.00000E+0	0.00000E+0	1.95200E+1	1.35000E+1	1.95217E+1	1.35008E+1
104	10/05/2023	13:51:35.419	0.00000E+0	0.00000E+0	-8.23397E+1	-7.93676E+1	0.00000E+0	0.00000E+0	1.95200E+1	1.35000E+1	1.95226E+1	1.34990E+1
105	10/05/2023	13:51:36.945	0.00000E+0	0.00000E+0	-6.50398E+1	-6.72190E+1	0.00000E+0	0.00000E+0	1.95200E+1	1.35000E+1	1.95194E+1	1.35006E+1
106	10/05/2023	13:51:38.397	0.00000E+0	0.00000E+0	7.54351E+1	7.91743E+1	0.00000E+0	0.00000E+0	1.95200E+1	1.35000E+1	1.95192E+1	1.34987E+1
107	10/05/2023	13:51:39.948	0.00000E+0	0.00000E+0	1.03585E+2	1.02311E+2	0.00000E+0	0.00000E+0	1.95200E+1	1.35000E+1	1.95203E+1	1.35007E+1
108	10/05/2023	13:51:41.395	0.00000E+0	0.00000E+0	1.39275E+1	7.60125E+0	0.00000E+0	0.00000E+0	1.95200E+1	1.35000E+1	1.95173E+1	1.34997E+1
109	10/05/2023	13:51:42.947	0.00000E+0	0.00000E+0	-8.73594E+1	-9.24453E+1	0.00000E+0	0.00000E+0	1.95200E+1	1.35000E+1	1.95223E+1	1.35007E+1
110	10/05/2023	13:51:44.395	0.00000E+0	0.00000E+0	-1.27261E+2	-1.33520E+2	0.00000E+0	0.00000E+0	1.95200E+1	1.35000E+1	1.95191E+1	1.35011E+1
111	10/05/2023	13:51:45.869	0.00000E+0	0.00000E+0	1.62035E+1	2.01186E+1	0.00000E+0	0.00000E+0	1.95200E+1	1.35000E+1	1.95212E+1	1.35021E+1
112	10/05/2023	13:51:47.409	0.00000E+0	0.00000E+0	7.61125E+1	8.03373E+1	0.00000E+0	0.00000E+0	1.95200E+1	1.35000E+1	1.95192E+1	1.34986E+1
113	10/05/2023	13:51:48.890	0.00000E+0	0.00000E+0	1.03472E+2	1.03790E+2	0.00000E+0	0.00000E+0	1.95200E+1	1.35000E+1	1.95203E+1	1.34993E+1
114	10/05/2023	13:51:50.346	0.00000E+0	0.00000E+0	5.35310E+1	5.65343E+1	0.00000E+0	0.00000E+0	1.95200E+1	1.35000E+1	1.95199E+1	1.34997E+1
115	10/05/2023	13:51:51.892	0.00000E+0	0.00000E+0	-5.76887E+1	-6.27452E+1	0.00000E+0	0.00000E+0	1.95200E+1	1.35000E+1	1.95210E+1	1.35027E+1
116	10/05/2023	13:51:53.357	0.00000E+0	0.00000E+0	-1.15392E+2	-1.15957E+2	0.00000E+0	0.00000E+0	1.95200E+1	1.35000E+1	1.95204E+1	1.35014E+1
117	10/05/2023	13:51:54.960	0.00000E+0	0.00000E+0	-4.79639E+1	-4.58427E+1	0.00000E+0	0.00000E+0	1.95200E+1	1.35000E+1	1.95171E+1	1.34984E+1
118	10/05/2023	13:51:56.406	0.00000E+0	0.00000E+0	-4.51868E+1	-4.67515E+1	0.00000E+0	0.00000E+0	1.95200E+1	1.35000E+1	1.95185E+1	1.35003E+1
119	10/05/2023	13:51:57.907	0.00000E+0	0.00000E+0	-1.92938E+1	-1.49655E+1	0.00000E+0	0.00000E+0	1.95200E+1	1.35000E+1	1.95212E+1	1.35015E+1
120	10/05/2023	13:51:59.467	0.00000E+0	0.00000E+0	5.62936E+1	5.39641E+1	0.00000E+0	0.00000E+0	1.95200E+1	1.35000E+1	1.95200E+1	1.34989E+1
121	10/05/2023	13:52:00.971	0.00000E+0	0.00000E+0	2.71921E+1	2.78052E+1	0.00000E+0	0.00000E+0	1.95200E+1	1.35000E+1	1.95198E+1	1.34994E+1
122	10/05/2023	13:52:02.518	0.00000E+0	0.00000E+0	2.97400E+1	2.92198E+1	0.00000E+0	0.00000E+0	1.95200E+1	1.35000E+1	1.95187E+1	1.35007E+1
123	10/05/2023	13:52:03.959	0.00000E+0	0.00000E+0	3.30935E+1	3.39484E+1	0.00000E+0	0.00000E+0	1.95200E+1	1.35000E+1	1.95202E+1	1.34990E+1
124	10/05/2023	13:52:05.416	0.00000E+0	0.00000E+0	4.28264E+1	4.40467E+1	0.00000E+0	0.00000E+0	1.95200E+1	1.35000E+1	1.95184E+1	1.35006E+1
125	10/05/2023	13:52:06.953	0.00000E+0	0.00000E+0	3.24539E+1	3.32784E+1	0.00000E+0	0.00000E+0	1.95200E+1	1.35000E+1	1.95187E+1	1.34987E+1
126	10/05/2023	13:52:08.416	0.00000E+0	0.00000E+0	2.51604E+1	2.66370E+1	0.00000E+0	0.00000E+0	1.95200E+1	1.35000E+1	1.95193E+1	1.34974E+1
127	10/05/2023	13:52:09.883	0.00000E+0	0.00000E+0	-1.19288E+1	-1.13969E+1	0.00000E+0	0.00000E+0	1.95200E+1	1.35000E+1	1.95237E+1	1.34989E+1
128	10/05/2023	13:52:11.437	0.00000E+0	0.00000E+0	-2.01630E+1	-2.07631E+1	0.00000E+0	0.00000E+0	1.95200E+1	1.35000E+1	1.95211E+1	1.35027E+1
129	10/05/2023	13:52:12.888	0.00000E+0	0.00000E+0	1.90931E+1	1.89222E+1	0.00000E+0	0.00000E+0	1.95200E+1	1.35000E+1	1.95193E+1	1.35004E+1
130	10/05/2023	13:52:14.472	0.00000E+0	0.00000E+0	-3.60364E+1	-3.73412E+1	0.00000E+0	0.00000E+0	1.95200E+1	1.35000E+1	1.95198E+1	1.34994E+1
131	10/05/2023	13:52:15.931	0.00000E+0	0.00000E+0	2.32941E+1	2.43297E+1	0.00000E+0	0.00000E+0	1.95200E+1	1.35000E+1	1.95199E+1	1.35006E+1
132	10/05/2023	13:52:17.422	0.00000E+0	0.00000E+0	-1.24770E+1	-1.62555E+1	0.00000E+0	0.00000E+0	1.95200E+1	1.35000E+1	1.95216E+1	1.34978E+1
133	10/05/2023	13:52:18.973	0.00000E+0	0.00000E+0	-4.29181E+1	-4.47006E+1	0.00000E+0	0.00000E+0	1.95200E+1	1.35000E+1	1.95185E+1	1.35003E+1
134	10/05/2023	13:52:20.437	0.00000E+0	0.00000E+0	2.55906E+1	2.77416E+1	0.00000E+0	0.00000E+0	1.95200E+1	1.35000E+1	1.95195E+1	1.35007E+1
135	10/05/2023	13:52:21.935	0.00000E+0	0.00000E+0	1.93728E+1	1.65799E+1	0.00000E+0	0.00000E+0	1.95200E+1	1.35000E+1	1.95200E+1	1.34996E+1
136	10/05/2023	13:52:23.404	0.00000E+0	0.00000E+0	-2.43926E+1	-2.51223E+1	0.00000E+0	0.00000E+0	1.95200E+1	1.35000E+1	1.95201E+1	1.34993E+1
137	10/05/2023	13:52:24.873	0.00000E+0	0.00000E+0	-3.27837E+1	-3.19484E+1	0.00000E+0	0.00000E+0	1.95200E+1	1.35000E+1	1.95208E+1	1.35002E+1
138	10/05/2023	13:52:26.426	0.00000E+0	0.00000E+0	2.32038E+1	2.39114E+1	0.00000E+0	0.00000E+0	1.95200E+1	1.35000E+1	1.95203E+1	1.34993E+1
139	10/05/2023	13:52:27.867	0.00000E+0	0.00000E+0	2.59485E+1	2.73712E+1	0.00000E+0	0.00000E+0	1.95200E+1	1.35000E+1	1.95198E+1	1.35014E+1
140	10/05/2023	13:52:29.304	0.00000E+0	0.00000E+0	-3.30311E+1	-3.44961E+1	0.00000E+0	0.00000E+0	1.95200E+1	1.35000E+1	1.95185E+1	1.35008E+1
141	10/05/2023	13:52:30.857	0.00000E+0	0.00000E+0	-1.39251E+1	-1.22639E+1	0.00000E+0	0.00000E+0	1.95200E+1	1.35000E+1	1.95193E+1	1.34995E+1
142	10/05/2023	13:52:32.344	0.00000E+0	0.00000E+0	3.05311E+1	3.01763E+1	0.00000E+0	0.00000E+0	1.95200E+1	1.35000E+1	1.95210E+1	1.34973E+1
143	10/05/2023	13:52:33.846	0.00000E+0	0.00000E+0	-9.32718E+0	-1.29946E+1	0.00000E+0	0.00000E+0	1.95200E+1	1.35000E+1	1.95194E+1	1.34993E+1
144	10/05/2023	13:52:35.326	0.00000E+0	0.00000E+0	-3.96227E+1	-3.80591E+1	0.00000E+0	0.00000E+0	1.95200E+1	1.35000E+1	1.95177E+1	1.35006E+1
145	10/05/2023	13:52:36.795	0.00000E+0	0.00000E+0	3.08293E+1	3.28404E+1	0.00000E+0	0.00000E+0	1.95200E+1	1.35000E+1	1.95196E+1	1.35014E+1
146	10/05/2023	13:52:38.407	0.00000E+0	0.00000E+0	3.19053E+1	3.05433E+1	0.00000E+0	0.00000E+0	1.95200E+1	1.35000E+1	1.95202E+1	1.34966E+1
147	10/05/2023	13:52:39.873	0.00000E+0	0.00000E+0	-4.00263E+1	-4.00911E+1	0.00000E+0	0.00000E+0	1.95200E+1	1.35000E+1	1.95205E+1	1.34998E+1
148	10/05/2023	13:52:41.349	0.00000E+0	0.00000E+0	-3.49057E+1	-3.75053E+1	0.00000E+0	0.00000E+0	1.95200E+1	1.35000E+1	1.95202E+1	1.34997E+1
149	10/05/2023	13:52:42.899	0.00000E+0	0.00000E+0	3.16144E+1	3.30585E+1	0.00000E+0	0.00000E+0	1.95200E+1	1.35000E+1	1.95212E+1	1.35001E+1
150	10/05/2023	13:52:44.399	0.00000E+0	0.00000E+0	2.58676E+1	2.54013E+1	0.00000E+0	0.00000E+0	1.95200E+1	1.35000E+1	1.95184E+1	1.35011E+1
151	10/05/2023	13:52:45.935	0.00000E+0	0.00000E+0	-3.40685E+1	-3.60570E+1	0.00000E+0	0.00000E+0	1.95200E+1	1.35000E+1	1.95211E+1	1.34998E+1
152	10/05/2023	13:52:47.433	0.00000E+0	0.00000E+0	-4.05904E+1	-4.08834E+1	0.00000E+0	0.00000E+0	1.95200E+1	1.35000E+1	1.95202E+1	1.34998E+1
153	10/05/2023	13:52:48.876	0.00000E+0	0.00000E+0	1.56781E+1	2.24933E+1	0.00000E+0	0.00000E+0	1.95200E+1	1.35000E+1	1.95199E+1	1.34977E+1
154	10/05/2023	13:52:50.469	0.00000E+0	0.00000E+0	4.18194E+1	4.33238E+1	0.00000E+0	0.00000E+0	1.95200E+1	1.35000E+1	1.95186E+1	1.35011E+1
155	10/05/2023	13:52:51.939	0.00000E+0	0.00000E+0	-6.39246E+1	-6.87516E+1	0.00000E+0	0.00000E+0	1.95200E+1	1.35000E+1	1.95214E+1	1.35014E+1
156	10/05/2023	13:52:53.398	0.00000E+0	0.00000E+0	5.33507E+1	5.32608E+1	0.00000E+0	0.00000E+0	1.95200E+1	1.35000E+1	1.95202E+1	1.34983E+1
157	10/05/2023	13:52:55.048	0.00000E+0	0.00000E+0	1.97316E-1	1.19031E+0	0.00000E+0	0.00000E+0	1.95200E+1	1.35000E+1	1.95187E+1	1.35009E+1
158	10/05/2023	13:52:56.530	0.00000E+0	0.00000E+0	-1.60202E+1	-1.66187E+1	0.00000E+0	0.00000E+0	1.95200E+1	1.35000E+1	1.95196E+1	1.34984E+1
159	10/05/2023	13:52:58.144	0.00000E+0	0.00000E+0	-2.98193E+1	-2.94970E+1	0.00000E+0	0.00000E+0	1.95200E+1	1.35000E+1	1.95205E+1	1.34999E+1
160	10/05/2023	13:52:59.639	0.00000E+0	0.00000E+0	-3.23140E+1	-3.16276E+1	0.00000E+0	0.00000E+0	1.95200E+1	1.35000E+1	1.95182E+1	1.34999E+1
161	10/05/2023	13:53:01.101	0.00000E+0	0.00000E+0	-2.19767E+1	-2.26257E+1	0.00000E+0	0.00000E+0	1.95200E+1	1.35000E+1	1.95206E+1	1.35006E+1
162	10/05/2023	13:53:02.657	0.00000E+0	0.00000E+0	-2.85992E+1	-2.91277E+1	0.00000E+0	0.00000E+0	1.95200E+1	1.35000E+1	1.95198E+1	1.35003E+1
163	10/05/2023	13:53:04.146	0.00000E+0	0.00000E+0	-2.48270E+1	-2.40442E+1	0.00000E+0	0.00000E+0	1.95200E+1	1.35000E+1	1.95205E+1	1.34993E+1
164	10/05/2023	13:53:05.812	0.00000E+0	0.00000E+0	1.47239E+0	3.19142E+0	0.00000E+0	0.00000E+0	1.95200E+1	1.35000E+1	1.95202E+1	1.35005E+1
165	10/05/2023	13:53:07.250	0.00000E+0	0.00000E+0	3.14681E+0	3.76588E+0	0.00000E+0	0.00000E+0	1.95200E+1	1.35000E+1	1.95208E+1	1.35016E+1
166	10/05/2023	13:53:08.703	0.00000E+0	0.00000E+0	5.69769E+1	5.28624E+1	0.00000E+0	0.00000E+0	1.95200E+1	1.35000E+1	1.95209E+1	1.34997E+1
167	10/05/2023	13:53:10.256	0.00000E+0	0.00000E+0	2.18173E+1	2.14777E+1	0.00000E+0	0.00000E+0	1.95200E+1	1.35000E+1	1.95202E+1	1.35006E+1
168	10/05/2023	13:53:11.737	0.00000E+0	0.00000E+0	1.59670E+1	1.72380E+1	0.00000E+0	0.00000E+0	1.95200E+1	1.35000E+1	1.95195E+1	1.34999E+1
169	10/05/2023	13:53:13.190	0.00000E+0	0.00000E+0	1.98385E+1	2.08722E+1	0.00000E+0	0.00000E+0	1.95200E+1	1.35000E+1	1.95200E+1	1.35002E+1
170	10/05/2023	13:53:14.669	0.00000E+0	0.00000E+0	1.93157E+1	1.80678E+1	0.00000E+0	0.00000E+0	1.95200E+1	1.35000E+1	1.95201E+1	1.35000E+1
171	10/05/2023	13:53:16.175	0.00000E+0	0.00000E+0	2.11529E+1	2.21917E+1	0.00000E+0	0.00000E+0	1.95200E+1	1.35000E+1	1.95209E+1	1.34995E+1
172	10/05/2023	13:53:17.842	0.00000E+0	0.00000E+0	4.19343E+0	4.90540E+0	0.00000E+0	0.00000E+0	1.95200E+1	1.35000E+1	1.95193E+1	1.34983E+1
173	10/05/2023	13:53:19.292	0.00000E+0	0.00000E+0	3.32926E+0	3.76553E+0	0.00000E+0	0.00000E+0	1.95200E+1	1.35000E+1	1.95223E+1	1.35006E+1
174	10/05/2023	13:53:20.755	0.00000E+0	0.00000E+0	4.86148E+0	4.91707E+0	0.00000E+0	0.00000E+0	1.95200E+1	1.35000E+1	1.95223E+1	1.34971E+1
175	10/05/2023	13:53:22.292	0.00000E+0	0.00000E+0	1.23977E+1	1.26717E+1	0.00000E+0	0.00000E+0	1.95200E+1	1.35000E+1	1.95221E+1	1.34981E+1
176	10/05/2023	13:53:23.749	0.00000E+0	0.00000E+0	1.92566E+1	1.90017E+1	0.00000E+0	0.00000E+0	1.95200E+1	1.35000E+1	1.95208E+1	1.35004E+1
177	10/05/2023	13:53:25.308	0.00000E+0	0.00000E+0	4.09293E-1	1.28062E-1	0.00000E+0	0.00000E+0	1.95200E+1	1.35000E+1	1.95190E+1	1.35023E+1
178	10/05/2023	13:53:26.785	0.00000E+0	0.00000E+0	6.74387E+0	6.07002E+0	0.00000E+0	0.00000E+0	1.95200E+1	1.35000E+1	1.95185E+1	1.35012E+1
179	10/05/2023	13:53:28.228	0.00000E+0	0.00000E+0	7.83322E+0	8.04728E+0	0.00000E+0	0.00000E+0	1.95200E+1	1.35000E+1	1.95208E+1	1.35005E+1
180	10/05/2023	13:53:29.770	0.00000E+0	0.00000E+0	1.22579E+1	1.26308E+1	0.00000E+0	0.00000E+0	1.95200E+1	1.35000E+1	1.95192E+1	1.35018E+1
181	10/05/2023	13:53:31.290	0.00000E+0	0.00000E+0	2.00096E+0	1.75715E+0	0.00000E+0	0.00000E+0	1.95200E+1	1.35000E+1	1.95199E+1	1.34991E+1
182	10/05/2023	13:53:32.796	0.00000E+0	0.00000E+0	1.02088E+1	1.08144E+1	0.00000E+0	0.00000E+0	1.95200E+1	1.35000E+1	1.95200E+1	1.35016E+1
183	10/05/2023	13:53:34.327	0.00000E+0	0.00000E+0	7.15365E+0	7.19903E+0	0.00000E+0	0.00000E+0	1.95200E+1	1.35000E+1	1.95214E+1	1.34993E+1
184	10/05/2023	13:53:35.797	0.00000E+0	0.00000E+0	-2.01715E+1	-1.99335E+1	0.00000E+0	0.00000E+0	1.95200E+1	1.35000E+1	1.95192E+1	1.34980E+1
185	10/05/2023	13:53:37.270	0.00000E+0	0.00000E+0	-2.38215E+0	-3.62803E+0	0.00000E+0	0.00000E+0	1.95200E+1	1.35000E+1	1.95191E+1	1.34987E+1
186	10/05/2023	13:53:38.768	0.00000E+0	0.00000E+0	-1.21144E+1	-1.36230E+1	0.00000E+0	0.00000E+0	1.95200E+1	1.35000E+1	1.95208E+1	1.34995E+1
187	10/05/2023	13:53:40.257	0.00000E+0	0.00000E+0	-1.18245E+1	-1.12504E+1	0.00000E+0	0.00000E+0	1.95200E+1	1.35000E+1	1.95221E+1	1.35007E+1
188	10/05/2023	13:53:41.880	0.00000E+0	0.00000E+0	-6.77229E+0	-6.33267E+0	0.00000E+0	0.00000E+0	1.95200E+1	1.35000E+1	1.95215E+1	1.34996E+1
189	10/05/2023	13:53:43.379	0.00000E+0	0.00000E+0	-1.61998E+1	-1.72669E+1	0.00000E+0	0.00000E+0	1.95200E+1	1.35000E+1	1.95194E+1	1.35020E+1
190	10/05/2023	13:53:44.993	0.00000E+0	0.00000E+0	-8.80352E+0	-7.76414E+0	0.00000E+0	0.00000E+0	1.95200E+1	1.35000E+1	1.95202E+1	1.34993E+1
191	10/05/2023	13:53:46.465	0.00000E+0	0.00000E+0	-9.41385E+0	-1.03573E+1	0.00000E+0	0.00000E+0	1.95200E+1	1.35000E+1	1.95199E+1	1.35024E+1
192	10/05/2023	13:53:47.936	0.00000E+0	0.00000E+0	-6.16640E+0	-5.54123E+0	0.00000E+0	0.00000E+0	1.95200E+1	1.35000E+1	1.95208E+1	1.35007E+1
193	10/05/2023	13:53:49.477	0.00000E+0	0.00000E+0	-6.36886E+0	-6.58258E+0	0.00000E+0	0.00000E+0	1.95200E+1	1.35000E+1	1.95213E+1	1.34995E+1
194	10/05/2023	13:53:50.962	0.00000E+0	0.00000E+0	-6.74649E+0	-6.06169E+0	0.00000E+0	0.00000E+0	1.95200E+1	1.35000E+1	1.95232E+1	1.35003E+1
195	10/05/2023	13:53:52.464	0.00000E+0	0.00000E+0	-7.65523E+0	-6.98874E+0	0.00000E+0	0.00000E+0	1.95200E+1	1.35000E+1	1.95190E+1	1.35011E+1
196	10/05/2023	13:53:54.039	0.00000E+0	0.00000E+0	-6.82209E+0	-7.50207E+0	0.00000E+0	0.00000E+0	1.95200E+1	1.35000E+1	1.95206E+1	1.35010E+1
197	10/05/2023	13:53:55.489	0.00000E+0	0.00000E+0	-9.59879E+0	-8.77647E+0	0.00000E+0	0.00000E+0	1.95200E+1	1.35000E+1	1.95222E+1	1.34997E+1
198	10/05/2023	13:53:57.007	0.00000E+0	0.00000E+0	-6.42071E+0	-6.04752E+0	0.00000E+0	0.00000E+0	1.95200E+1	1.35000E+1	1.95209E+1	1.35013E+1
199	10/05/2023	13:53:58.512	0.00000E+0	0.00000E+0	-1.65674E+1	-1.78609E+1	0.00000E+0	0.00000E+0	1.95200E+1	1.35000E+1	1.95194E+1	1.35004E+1
200	10/05/2023	13:53:59.973	0.00000E+0	0.00000E+0	-1.07780E+1	-1.00191E+1	0.00000E+0	0.00000E+0	1.95200E+1	1.35000E+1	1.95205E+1	1.34996E+1
201	10/05/2023	13:54:01.589	0.00000E+0	0.00000E+0	-9.41552E+0	-1.05731E+1	0.00000E+0	0.00000E+0	1.95200E+1	1.35000E+1	1.95191E+1	1.34965E+1
202	10/05/2023	13:54:03.033	0.00000E+0	0.00000E+0	-3.54559E+0	-4.95165E+0	0.00000E+0	0.00000E+0	1.95200E+1	1.35000E+1	1.95207E+1	1.35005E+1
203	10/05/2023	13:54:04.500	0.00000E+0	0.00000E+0	-7.72709E+0	-7.83281E+0	0.00000E+0	0.00000E+0	1.95200E+1	1.35000E+1	1.95196E+1	1.34982E+1
204	10/05/2023	13:54:05.959	0.00000E+0	0.00000E+0	-1.07653E+1	-1.11658E+1	0.00000E+0	0.00000E+0	1.95200E+1	1.35000E+1	1.95190E+1	1.34989E+1
205	10/05/2023	13:54:07.452	0.00000E+0	0.00000E+0	-1.07938E+1	-1.18783E+1	0.00000E+0	0.00000E+0	1.95200E+1	1.35000E+1	1.95198E+1	1.34996E+1
206	10/05/2023	13:54:09.022	0.00000E+0	0.00000E+0	-1.59757E+1	-1.47636E+1	0.00000E+0	0.00000E+0	1.95200E+1	1.35000E+1	1.95186E+1	1.35008E+1
207	10/05/2023	13:54:10.462	0.00000E+0	0.00000E+0	-7.28021E+0	-9.34929E+0	0.00000E+0	0.00000E+0	1.95200E+1	1.35000E+1	1.95206E+1	1.35025E+1
208	10/05/2023	13:54:11.948	0.00000E+0	0.00000E+0	-6.34814E+0	-6.14528E+0	0.00000E+0	0.00000E+0	1.95200E+1	1.35000E+1	1.95206E+1	1.34993E+1
209	10/05/2023	13:54:13.479	0.00000E+0	0.00000E+0	-1.48746E+1	-1.61201E+1	0.00000E+0	0.00000E+0	1.95200E+1	1.35000E+1	1.95197E+1	1.35004E+1
210	10/05/2023	13:54:14.944	0.00000E+0	0.00000E+0	-1.20224E+1	-1.25174E+1	0.00000E+0	0.00000E+0	1.95200E+1	1.35000E+1	1.95192E+1	1.35013E+1
211	10/05/2023	13:54:16.511	0.00000E+0	0.00000E+0	-1.17140E+1	-1.25920E+1	0.00000E+0	0.00000E+0	1.95200E+1	1.35000E+1	1.95185E+1	1.34994E+1
212	10/05/2023	13:54:18.164	0.00000E+0	0.00000E+0	-8.15637E-1	-1.16451E+0	0.00000E+0	0.00000E+0	1.95200E+1	1.35000E+1	1.95183E+1	1.34973E+1
213	10/05/2023	13:54:19.644	0.00000E+0	0.00000E+0	9.49223E+0	8.92285E+0	0.00000E+0	0.00000E+0	1.95200E+1	1.35000E+1	1.95209E+1	1.35007E+1
214	10/05/2023	13:54:21.151	0.00000E+0	0.00000E+0	9.91309E+0	1.02030E+1	0.00000E+0	0.00000E+0	1.95200E+1	1.35000E+1	1.95187E+1	1.35045E+1
215	10/05/2023	13:54:22.597	0.00000E+0	0.00000E+0	1.64418E+1	1.57562E+1	0.00000E+0	0.00000E+0	1.95200E+1	1.35000E+1	1.95200E+1	1.34996E+1
216	10/05/2023	13:54:24.063	0.00000E+0	0.00000E+0	9.67982E+0	9.87846E+0	0.00000E+0	0.00000E+0	1.95200E+1	1.35000E+1	1.95230E+1	1.35009E+1
217	10/05/2023	13:54:25.598	0.00000E+0	0.00000E+0	4.67864E+0	4.58003E+0	0.00000E+0	0.00000E+0	1.95200E+1	1.35000E+1	1.95222E+1	1.34990E+1
218	10/05/2023	13:54:27.059	0.00000E+0	0.00000E+0	1.35694E+1	1.38628E+1	0.00000E+0	0.00000E+0	1.95200E+1	1.35000E+1	1.95190E+1	1.35003E+1
219	10/05/2023	13:54:28.558	0.00000E+0	0.00000E+0	4.04699E+0	5.26461E+0	0.00000E+0	0.00000E+0	1.95200E+1	1.35000E+1	1.95187E+1	1.35003E+1
220	10/05/2023	13:54:30.021	0.00000E+0	0.00000E+0	5.64246E+0	5.55492E+0	0.00000E+0	0.00000E+0	1.95200E+1	1.35000E+1	1.95177E+1	1.35018E+1
221	10/05/2023	13:54:31.509	0.00000E+0	0.00000E+0	8.40063E+0	8.05250E+0	0.00000E+0	0.00000E+0	1.95200E+1	1.35000E+1	1.95211E+1	1.34993E+1
222	10/05/2023	13:54:33.088	0.00000E+0	0.00000E+0	-3.95551E-1	1.03340E-1	0.00000E+0	0.00000E+0	1.95200E+1	1.35000E+1	1.95215E+1	1.35010E+1
223	10/05/2023	13:54:34.536	0.00000E+0	0.00000E+0	1.33812E+1	1.27451E+1	0.00000E+0	0.00000E+0	1.95200E+1	1.35000E+1	1.95190E+1	1.35003E+1
224	10/05/2023	13:54:36.172	0.00000E+0	0.00000E+0	1.41279E+1	1.54444E+1	0.00000E+0	0.00000E+0	1.95200E+1	1.35000E+1	1.95228E+1	1.34999E+1
225	10/05/2023	13:54:37.614	0.00000E+0	0.00000E+0	1.01429E+1	1.16562E+1	0.00000E+0	0.00000E+0	1.95200E+1	1.35000E+1	1.95188E+1	1.34990E+1
226	10/05/2023	13:54:39.097	0.00000E+0	0.00000E+0	2.87814E+1	3.03801E+1	0.00000E+0	0.00000E+0	1.95200E+1	1.35000E+1	1.95233E+1	1.34984E+1
227	10/05/2023	13:54:40.644	0.00000E+0	0.00000E+0	1.39524E+1	1.31118E+1	0.00000E+0	0.00000E+0	1.95200E+1	1.35000E+1	1.95200E+1	1.35019E+1
228	10/05/2023	13:54:42.150	0.00000E+0	0.00000E+0	2.15557E+1	2.16342E+1	0.00000E+0	0.00000E+0	1.95200E+1	1.35000E+1	1.95208E+1	1.34981E+1
229	10/05/2023	13:54:43.621	0.00000E+0	0.00000E+0	3.24197E+1	3.41172E+1	0.00000E+0	0.00000E+0	1.95200E+1	1.35000E+1	1.95188E+1	1.35012E+1
230	10/05/2023	13:54:45.180	0.00000E+0	0.00000E+0	1.24993E+1	1.33928E+1	0.00000E+0	0.00000E+0	1.95200E+1	1.35000E+1	1.95192E+1	1.34984E+1
231	10/05/2023	13:54:46.637	0.00000E+0	0.00000E+0	2.33820E+1	2.39642E+1	0.00000E+0	0.00000E+0	1.95200E+1	1.35000E+1	1.95205E+1	1.34988E+1
232	10/05/2023	13:54:48.110	0.00000E+0	0.00000E+0	1.91792E+1	1.91076E+1	0.00000E+0	0.00000E+0	1.95200E+1	1.35000E+1	1.95211E+1	1.34995E+1
233	10/05/2023	13:54:49.555	0.00000E+0	0.00000E+0	-2.41173E+1	-2.37180E+1	0.00000E+0	0.00000E+0	1.95200E+1	1.35000E+1	1.95191E+1	1.34978E+1
234	10/05/2023	13:54:51.022	0.00000E+0	0.00000E+0	-2.17109E+1	-2.27042E+1	0.00000E+0	0.00000E+0	1.95200E+1	1.35000E+1	1.95196E+1	1.34980E+1
235	10/05/2023	13:54:52.575	0.00000E+0	0.00000E+0	-1.08912E+1	-1.13773E+1	0.00000E+0	0.00000E+0	1.95200E+1	1.35000E+1	1.95173E+1	1.34988E+1
236	10/05/2023	13:54:54.041	0.00000E+0	0.00000E+0	-3.13048E+1	-3.24120E+1	0.00000E+0	0.00000E+0	1.95200E+1	1.35000E+1	1.95210E+1	1.35011E+1
237	10/05/2023	13:54:55.492	0.00000E+0	0.00000E+0	-1.87097E+1	-1.82739E+1	0.00000E+0	0.00000E+0	1.95200E+1	1.35000E+1	1.95203E+1	1.35001E+1
238	10/05/2023	13:54:56.978	0.00000E+0	0.00000E+0	-4.64363E+0	-5.95270E+0	0.00000E+0	0.00000E+0	1.95200E+1	1.35000E+1	1.95182E+1	1.34993E+1
239	10/05/2023	13:54:58.491	0.00000E+0	0.00000E+0	-3.18479E+1	-3.29076E+1	0.00000E+0	0.00000E+0	1.95200E+1	1.35000E+1	1.95206E+1	1.35006E+1
240	10/05/2023	13:55:00.051	0.00000E+0	0.00000E+0	-1.69782E+1	-1.82679E+1	0.00000E+0	0.00000E+0	1.95200E+1	1.35000E+1	1.95184E+1	1.35005E+1
241	10/05/2023	13:55:01.531	0.00000E+0	0.00000E+0	-1.99655E+1	-1.81417E+1	0.00000E+0	0.00000E+0	1.95200E+1	1.35000E+1	1.95199E+1	1.35030E+1
242	10/05/2023	13:55:03.020	0.00000E+0	0.00000E+0	-1.89990E+1	-1.92086E+1	0.00000E+0	0.00000E+0	1.95200E+1	1.35000E+1	1.95191E+1	1.34995E+1
243	10/05/2023	13:55:04.570	0.00000E+0	0.00000E+0	-5.07956E+0	-6.54562E+0	0.00000E+0	0.00000E+0	1.95200E+1	1.35000E+1	1.95199E+1	1.35003E+1
244	10/05/2023	13:55:06.038	0.00000E+0	0.00000E+0	-3.55231E+1	-3.33691E+1	0.00000E+0	0.00000E+0	1.95200E+1	1.35000E+1	1.95178E+1	1.34993E+1
245	10/05/2023	13:55:07.563	0.00000E+0	0.00000E+0	-1.24624E+1	-1.33067E+1	0.00000E+0	0.00000E+0	1.95200E+1	1.35000E+1	1.95188E+1	1.34994E+1
246	10/05/2023	13:55:09.036	0.00000E+0	0.00000E+0	-1.39530E+1	-1.04809E+1	0.00000E+0	0.00000E+0	1.95200E+1	1.35000E+1	1.95217E+1	1.34997E+1
247	10/05/2023	13:55:10.506	0.00000E+0	0.00000E+0	-1.79419E+1	-1.98874E+1	0.00000E+0	0.00000E+0	1.95200E+1	1.35000E+1	1.95182E+1	1.34993E+1
248	10/05/2023	13:55:12.169	0.00000E+0	0.00000E+0	1.90145E+1	1.90208E+1	0.00000E+0	0.00000E+0	1.95200E+1	1.35000E+1	1.95189E+1	1.35004E+1
249	10/05/2023	13:55:13.607	0.00000E+0	0.00000E+0	2.27009E+1	2.40020E+1	0.00000E+0	0.00000E+0	1.95200E+1	1.35000E+1	1.95192E+1	1.35002E+1
250	10/05/2023	13:55:15.064	0.00000E+0	0.00000E+0	1.70110E+1	1.64319E+1	0.00000E+0	0.00000E+0	1.95200E+1	1.35000E+1	1.95201E+1	1.35007E+1
251	10/05/2023	13:55:16.627	0.00000E+0	0.00000E+0	1.10597E+1	1.05629E+1	0.00000E+0	0.00000E+0	1.95200E+1	1.35000E+1	1.95211E+1	1.35013E+1
252	10/05/2023	13:55:18.069	0.00000E+0	0.00000E+0	2.25058E+1	2.29600E+1	0.00000E+0	0.00000E+0	1.95200E+1	1.35000E+1	1.95199E+1	1.34984E+1
253	10/05/2023	13:55:19.604	0.00000E+0	0.00000E+0	1.07513E+1	1.22504E+1	0.00000E+0	0.00000E+0	1.95200E+1	1.35000E+1	1.95211E+1	1.35013E+1
254	10/05/2023	13:55:21.103	0.00000E+0	0.00000E+0	1.59502E+1	1.48612E+1	0.00000E+0	0.00000E+0	1.95200E+1	1.35000E+1	1.95196E+1	1.34994E+1
255	10/05/2023	13:55:22.534	0.00000E+0	0.00000E+0	2.49420E+1	2.66815E+1	0.00000E+0	0.00000E+0	1.95200E+1	1.35000E+1	1.95196E+1	1.35009E+1
256	10/05/2023	13:55:24.114	0.00000E+0	0.00000E+0	1.58307E+1	1.59528E+1	0.00000E+0	0.00000E+0	1.95200E+1	1.35000E+1	1.95197E+1	1.34996E+1
257	10/05/2023	13:55:25.583	0.00000E+0	0.00000E+0	2.08362E+1	2.21695E+1	0.00000E+0	0.00000E+0	1.95200E+1	1.35000E+1	1.95196E+1	1.34989E+1
258	10/05/2023	13:55:27.139	0.00000E+0	0.00000E+0	1.01224E+1	1.16327E+1	0.00000E+0	0.00000E+0	1.95200E+1	1.35000E+1	1.95206E+1	1.34996E+1
259	10/05/2023	13:55:28.639	0.00000E+0	0.00000E+0	1.42668E+1	1.55977E+1	0.00000E+0	0.00000E+0	1.95200E+1	1.35000E+1	1.95174E+1	1.34976E+1
260	10/05/2023	13:55:30.095	0.00000E+0	0.00000E+0	2.66638E+1	2.59210E+1	0.00000E+0	0.00000E+0	1.95200E+1	1.35000E+1	1.95183E+1	1.34993E+1
261	10/05/2023	13:55:31.675	0.00000E+0	0.00000E+0	1.00954E+1	1.16802E+1	0.00000E+0	0.00000E+0	1.95200E+1	1.35000E+1	1.95225E+1	1.35006E+1
262	10/05/2023	13:55:33.141	0.00000E+0	0.00000E+0	1.78260E+1	1.58481E+1	0.00000E+0	0.00000E+0	1.95200E+1	1.35000E+1	1.95187E+1	1.35020E+1
263	10/05/2023	13:55:34.622	0.00000E+0	0.00000E+0	1.13334E+1	1.05809E+1	0.00000E+0	0.00000E+0	1.95200E+1	1.35000E+1	1.95193E+1	1.34996E+1
264	10/05/2023	13:55:36.198	0.00000E+0	0.00000E+0	1.82707E+1	1.78504E+1	0.00000E+0	0.00000E+0	1.95200E+1	1.35000E+1	1.95203E+1	1.35007E+1
265	10/05/2023	13:55:37.683	0.00000E+0	0.00000E+0	-4.79825E+0	-4.88142E+0	0.00000E+0	0.00000E+0	1.95200E+1	1.35000E+1	1.95208E+1	1.34995E+1
266	10/05/2023	13:55:39.173	0.00000E+0	0.00000E+0	-8.82457E+0	-8.66578E+0	0.00000E+0	0.00000E+0	1.95200E+1	1.35000E+1	1.95214E+1	1.34990E+1
267	10/05/2023	13:55:40.661	0.00000E+0	0.00000E+0	-7.74390E+0	-8.04783E+0	0.00000E+0	0.00000E+0	1.95200E+1	1.35000E+1	1.95190E+1	1.34997E+1
268	10/05/2023	13:55:42.123	0.00000E+0	0.00000E+0	-7.89639E+0	-8.54727E+0	0.00000E+0	0.00000E+0	1.95200E+1	1.35000E+1	1.95215E+1	1.35025E+1
269	10/05/2023	13:55:43.632	0.00000E+0	0.00000E+0	-8.83195E+0	-8.86367E+0	0.00000E+0	0.00000E+0	1.95200E+1	1.35000E+1	1.95184E+1	1.35002E+1
270	10/05/2023	13:55:45.077	0.00000E+0	0.00000E+0	-9.18129E+0	-7.98158E+0	0.00000E+0	0.00000E+0	1.95200E+1	1.35000E+1	1.95204E+1	1.34979E+1
271	10/05/2023	13:55:46.539	0.00000E+0	0.00000E+0	-3.94296E+0	-4.02541E+0	0.00000E+0	0.00000E+0	1.95200E+1	1.35000E+1	1.95220E+1	1.34982E+1
272	10/05/2023	13:55:47.956	0.00000E+0	0.00000E+0	-6.58091E+0	-5.52996E+0	0.00000E+0	0.00000E+0	1.95200E+1	1.35000E+1	1.95207E+1	1.34983E+1
273	10/05/2023	13:55:49.439	0.00000E+0	0.00000E+0	-1.64053E+1	-1.80648E+1	0.00000E+0	0.00000E+0	1.95200E+1	1.35000E+1	1.95188E+1	1.34994E+1
274	10/05/2023	13:55:50.981	0.00000E+0	0.00000E+0	-1.02419E+1	-1.10024E+1	0.00000E+0	0.00000E+0	1.95200E+1	1.35000E+1	1.95204E+1	1.34998E+1
275	10/05/2023	13:55:52.471	0.00000E+0	0.00000E+0	-7.71875E+0	-7.33210E+0	0.00000E+0	0.00000E+0	1.95200E+1	1.35000E+1	1.95201E+1	1.34997E+1
276	10/05/2023	13:55:53.910	0.00000E+0	0.00000E+0	-5.03570E+0	-4.22989E+0	0.00000E+0	0.00000E+0	1.95200E+1	1.35000E+1	1.95184E+1	1.35015E+1
277	10/05/2023	13:55:55.517	0.00000E+0	0.00000E+0	-8.24202E+0	-8.67975E+0	0.00000E+0	0.00000E+0	1.95200E+1	1.35000E+1	1.95220E+1	1.34982E+1
278	10/05/2023	13:55:56.957	0.00000E+0	0.00000E+0	-1.03432E+0	-1.74269E+0	0.00000E+0	0.00000E+0	1.95200E+1	1.35000E+1	1.95206E+1	1.35012E+1
279	10/05/2023	13:55:58.549	0.00000E+0	0.00000E+0	-1.07874E+1	-1.18125E+1	0.00000E+0	0.00000E+0	1.95200E+1	1.35000E+1	1.95197E+1	1.35008E+1
280	10/05/2023	13:55:59.977	0.00000E+0	0.00000E+0	-9.75206E+0	-1.01446E+1	0.00000E+0	0.00000E+0	1.95200E+1	1.35000E+1	1.95219E+1	1.35031E+1
281	10/05/2023	13:56:01.445	0.00000E+0	0.00000E+0	-8.47521E+0	-7.97188E+0	0.00000E+0	0.00000E+0	1.95200E+1	1.35000E+1	1.95209E+1	1.35002E+1
282	10/05/2023	13:56:03.046	0.00000E+0	0.00000E+0	-2.39200E+0	-2.35205E+0	0.00000E+0	0.00000E+0	1.95200E+1	1.35000E+1	1.95172E+1	1.34984E+1
283	10/05/2023	13:56:04.585	0.00000E+0	0.00000E+0	-5.40553E+0	-7.68956E+0	0.00000E+0	0.00000E+0	1.95200E+1	1.35000E+1	1.95221E+1	1.35000E+1
284	10/05/2023	13:56:06.033	0.00000E+0	0.00000E+0	-1.24445E+1	-1.27687E+1	0.00000E+0	0.00000E+0	1.95200E+1	1.35000E+1	1.95174E+1	1.35005E+1
285	10/05/2023	13:56:07.623	0.00000E+0	0.00000E+0	-3.83069E+0	-3.86834E+0	0.00000E+0	0.00000E+0	1.95200E+1	1.35000E+1	1.95212E+1	1.35008E+1
286	10/05/2023	13:56:09.093	0.00000E+0	0.00000E+0	-7.72898E+0	-8.48302E+0	0.00000E+0	0.00000E+0	1.95200E+1	1.35000E+1	1.95200E+1	1.34991E+1
287	10/05/2023	13:56:10.600	0.00000E+0	0.00000E+0	-6.42210E+0	-7.04237E+0	0.00000E+0	0.00000E+0	1.95200E+1	1.35000E+1	1.95196E+1	1.34993E+1
288	10/05/2023	13:56:12.040	0.00000E+0	0.00000E+0	-1.27260E+1	-1.46864E+1	0.00000E+0	0.00000E+0	1.95200E+1	1.35000E+1	1.95195E+1	1.34997E+1
289	10/05/2023	13:56:13.522	0.00000E+0	0.00000E+0	-1.23565E+1	-1.45015E+1	0.00000E+0	0.00000E+0	1.95200E+1	1.35000E+1	1.95188E+1	1.35005E+1
290	10/05/2023	13:56:15.110	0.00000E+0	0.00000E+0	-1.14433E+1	-1.17346E+1	0.00000E+0	0.00000E+0	1.95200E+1	1.35000E+1	1.95211E+1	1.34995E+1
291	10/05/2023	13:56:16.594	0.00000E+0	0.00000E+0	-2.47565E+1	-2.30218E+1	0.00000E+0	0.00000E+0	1.95200E+1	1.35000E+1	1.95207E+1	1.34989E+1
292	10/05/2023	13:56:18.161	0.00000E+0	0.00000E+0	-2.07687E+1	-2.05001E+1	0.00000E+0	0.00000E+0	1.95200E+1	1.35000E+1	1.95209E+1	1.35002E+1
293	10/05/2023	13:56:19.643	0.00000E+0	0.00000E+0	5.70921E+1	5.86738E+1	0.00000E+0	0.00000E+0	1.95200E+1	1.35000E+1	1.95204E+1	1.34997E+1
294	10/05/2023	13:56:21.109	0.00000E+0	0.00000E+0	5.84877E+1	5.85136E+1	0.00000E+0	0.00000E+0	1.95200E+1	1.35000E+1	1.95188E+1	1.35019E+1
295	10/05/2023	13:56:22.679	0.00000E+0	0.00000E+0	7.85559E+1	8.07378E+1	0.00000E+0	0.00000E+0	1.95200E+1	1.35000E+1	1.95193E+1	1.34989E+1
296	10/05/2023	13:56:24.195	0.00000E+0	0.00000E+0	6.20921E+1	6.19607E+1	0.00000E+0	0.00000E+0	1.95200E+1	1.35000E+1	1.95194E+1	1.34976E+1
297	10/05/2023	13:56:25.657	0.00000E+0	0.00000E+0	-9.70328E+0	-1.29869E+1	0.00000E+0	0.00000E+0	1.95200E+1	1.35000E+1	1.95179E+1	1.35019E+1
298	10/05/2023	13:56:27.239	0.00000E+0	0.00000E+0	-7.20564E+1	-7.55145E+1	0.00000E+0	0.00000E+0	1.95200E+1	1.35000E+1	1.95196E+1	1.35019E+1
299	10/05/2023	13:56:28.730	0.00000E+0	0.00000E+0	-9.12011E+1	-9.34513E+1	0.00000E+0	0.00000E+0	1.95200E+1	1.35000E+1	1.95201E+1	1.34987E+1
300	10/05/2023	13:56:30.256	0.00000E+0	0.00000E+0	-6.05111E+1	-6.06242E+1	0.00000E+0	0.00000E+0	1.95200E+1	1.35000E+1	1.95201E+1	1.35010E+1
301	10/05/2023	13:56:31.737	0.00000E+0	0.00000E+0	3.24124E+1	3.28935E+1	0.00000E+0	0.00000E+0	1.95200E+1	1.35000E+1	1.95202E+1	1.34996E+1
302	10/05/2023	13:56:33.187	0.00000E+0	0.00000E+0	5.02455E+1	4.76355E+1	0.00000E+0	0.00000E+0	1.95200E+1	1.35000E+1	1.95201E+1	1.34998E+1
303	10/05/2023	13:56:34.745	0.00000E+0	0.00000E+0	7.41505E+1	7.69147E+1	0.00000E+0	0.00000E+0	1.95200E+1	1.35000E+1	1.95191E+1	1.34991E+1
304	10/05/2023	13:56:36.190	0.00000E+0	0.00000E+0	6.80693E+1	6.94528E+1	0.00000E+0	0.00000E+0	1.95200E+1	1.35000E+1	1.95205E+1	1.35016E+1
305	10/05/2023	13:56:37.686	0.00000E+0	0.00000E+0	5.03549E+1	4.46055E+1	0.00000E+0	0.00000E+0	1.95200E+1	1.35000E+1	1.95174E+1	1.34982E+1
306	10/05/2023	13:56:39.172	0.00000E+0	0.00000E+0	-5.84063E+1	-6.03472E+1	0.00000E+0	0.00000E+0	1.95200E+1	1.35000E+1	1.95191E+1	1.35005E+1
307	10/05/2023	13:56:40.642	0.00000E+0	0.00000E+0	-9.19706E+1	-9.26409E+1	0.00000E+0	0.00000E+0	1.95200E+1	1.35000E+1	1.95221E+1	1.34993E+1
308	10/05/2023	13:56:42.186	0.00000E+0	0.00000E+0	-7.94881E+1	-8.07304E+1	0.00000E+0	0.00000E+0	1.95200E+1	1.35000E+1	1.95207E+1	1.34996E+1
309	10/05/2023	13:56:43.724	0.00000E+0	0.00000E+0	1.58121E+1	2.33254E+1	0.00000E+0	0.00000E+0	1.95200E+1	1.35000E+1	1.95198E+1	1.34989E+1
310	10/05/2023	13:56:45.173	0.00000E+0	0.00000E+0	5.74207E+1	5.99981E+1	0.00000E+0	0.00000E+0	1.95200E+1	1.35000E+1	1.95199E+1	1.34994E+1
311	10/05/2023	13:56:46.733	0.00000E+0	0.00000E+0	5.82937E+1	6.08092E+1	0.00000E+0	0.00000E+0	1.95200E+1	1.35000E+1	1.95189E+1	1.35025E+1
312	10/05/2023	13:56:48.178	0.00000E+0	0.00000E+0	7.58908E+1	7.70031E+1	0.00000E+0	0.00000E+0	1.95200E+1	1.35000E+1	1.95186E+1	1.35011E+1
313	10/05/2023	13:56:49.694	0.00000E+0	0.00000E+0	5.69885E+1	5.53263E+1	0.00000E+0	0.00000E+0	1.95200E+1	1.35000E+1	1.95222E+1	1.35014E+1
314	10/05/2023	13:56:51.166	0.00000E+0	0.00000E+0	-4.99233E+1	-5.27512E+1	0.00000E+0	0.00000E+0	1.95200E+1	1.35000E+1	1.95184E+1	1.34980E+1
315	10/05/2023	13:56:52.633	0.00000E+0	0.00000E+0	-8.81720E+1	-8.96983E+1	0.00000E+0	0.00000E+0	1.95200E+1	1.35000E+1	1.95187E+1	1.34991E+1
316	10/05/2023	13:56:54.162	0.00000E+0	0.00000E+0	-8.00067E+1	-7.93002E+1	0.00000E+0	0.00000E+0	1.95200E+1	1.35000E+1	1.95207E+1	1.35021E+1
317	10/05/2023	13:56:55.655	0.00000E+0	0.00000E+0	-5.53542E+1	-5.59596E+1	0.00000E+0	0.00000E+0	1.95200E+1	1.35000E+1	1.95183E+1	1.34993E+1
318	10/05/2023	13:56:57.129	0.00000E+0	0.00000E+0	3.35886E+1	3.55674E+1	0.00000E+0	0.00000E+0	1.95200E+1	1.35000E+1	1.95209E+1	1.34959E+1
319	10/05/2023	13:56:58.681	0.00000E+0	0.00000E+0	8.25769E+1	8.45081E+1	0.00000E+0	0.00000E+0	1.95200E+1	1.35000E+1	1.95217E+1	1.34992E+1
320	10/05/2023	13:57:00.131	0.00000E+0	0.00000E+0	1.00179E+2	1.04004E+2	0.00000E+0	0.00000E+0	1.95200E+1	1.35000E+1	1.95214E+1	1.35011E+1
321	10/05/2023	13:57:01.694	0.00000E+0	0.00000E+0	5.41300E+1	5.05346E+1	0.00000E+0	0.00000E+0	1.95200E+1	1.35000E+1	1.95195E+1	1.34994E+1
322	10/05/2023	13:57:03.162	0.00000E+0	0.00000E+0	-1.16920E+2	-1.21699E+2	0.00000E+0	0.00000E+0	1.95200E+1	1.35000E+1	1.95197E+1	1.34988E+1
323	10/05/2023	13:57:04.657	0.00000E+0	0.00000E+0	-1.23196E+2	-1.19239E+2	0.00000E+0	0.00000E+0	1.95200E+1	1.35000E+1	1.95200E+1	1.35016E+1
324	10/05/2023	13:57:06.169	0.00000E+0	0.00000E+0	-6.38808E+1	-6.15394E+1	0.00000E+0	0.00000E+0	1.95200E+1	1.35000E+1	1.95211E+1	1.35005E+1
325	10/05/2023	13:57:07.624	0.00000E+0	0.00000E+0	3.85629E+1	4.39448E+1	0.00000E+0	0.00000E+0	1.95200E+1	1.35000E+1	1.95191E+1	1.35011E+1
326	10/05/2023	13:57:09.240	0.00000E+0	0.00000E+0	6.05562E+1	6.04195E+1	0.00000E+0	0.00000E+0	1.95200E+1	1.35000E+1	1.95182E+1	1.35003E+1
327	10/05/2023	13:57:10.729	0.00000E+0	0.00000E+0	7.20697E+1	7.43835E+1	0.00000E+0	0.00000E+0	1.95200E+1	1.35000E+1	1.95187E+1	1.34998E+1
328	10/05/2023	13:57:12.197	0.00000E+0	0.00000E+0	6.93803E+1	7.13668E+1	0.00000E+0	0.00000E+0	1.95200E+1	1.35000E+1	1.95194E+1	1.35006E+1
329	10/05/2023	13:57:13.830	0.00000E+0	0.00000E+0	6.20914E+1	6.15433E+1	0.00000E+0	0.00000E+0	1.95200E+1	1.35000E+1	1.95198E+1	1.34994E+1
330	10/05/2023	13:57:15.323	0.00000E+0	0.00000E+0	-4.27064E+1	-4.73829E+1	0.00000E+0	0.00000E+0	1.95200E+1	1.35000E+1	1.95183E+1	1.35014E+1
331	10/05/2023	13:57:16.783	0.00000E+0	0.00000E+0	-9.52689E+1	-9.80140E+1	0.00000E+0	0.00000E+0	1.95200E+1	1.35000E+1	1.95210E+1	1.34999E+1
332	10/05/2023	13:57:18.302	0.00000E+0	0.00000E+0	-8.69716E+1	-9.08461E+1	0.00000E+0	0.00000E+0	1.95200E+1	1.35000E+1	1.95214E+1	1.34987E+1
333	10/05/2023	13:57:19.736	0.00000E+0	0.00000E+0	-1.21339E+2	-1.22816E+2	0.00000E+0	0.00000E+0	1.95200E+1	1.35000E+1	1.95217E+1	1.35004E+1
334	10/05/2023	13:57:21.262	0.00000E+0	0.00000E+0	2.48684E+1	2.84557E+1	0.00000E+0	0.00000E+0	1.95200E+1	1.35000E+1	1.95182E+1	1.34988E+1
335	10/05/2023	13:57:22.715	0.00000E+0	0.00000E+0	5.15652E+1	5.14581E+1	0.00000E+0	0.00000E+0	1.95200E+1	1.35000E+1	1.95209E+1	1.35005E+1
336	10/05/2023	13:57:24.173	0.00000E+0	0.00000E+0	8.30588E+1	8.41347E+1	0.00000E+0	0.00000E+0	1.95200E+1	1.35000E+1	1.95195E+1	1.35021E+1
337	10/05/2023	13:57:25.719	0.00000E+0	0.00000E+0	1.03722E+2	1.05067E+2	0.00000E+0	0.00000E+0	1.95200E+1	1.35000E+1	1.95217E+1	1.35033E+1
338	10/05/2023	13:57:27.167	0.00000E+0	0.00000E+0	7.09597E+1	7.14234E+1	0.00000E+0	0.00000E+0	1.95200E+1	1.35000E+1	1.95189E+1	1.35022E+1
339	10/05/2023	13:57:28.653	0.00000E+0	0.00000E+0	-7.45140E+0	-1.26683E+1	0.00000E+0	0.00000E+0	1.95200E+1	1.35000E+1	1.95198E+1	1.34994E+1
340	10/05/2023	13:57:30.125	0.00000E+0	0.00000E+0	-8.91706E+1	-8.86215E+1	0.00000E+0	0.00000E+0	1.95200E+1	1.35000E+1	1.95186E+1	1.34995E+1
341	10/05/2023	13:57:31.579	0.00000E+0	0.00000E+0	-8.33923E+1	-7.99956E+1	0.00000E+0	0.00000E+0	1.95200E+1	1.35000E+1	1.95223E+1	1.34998E+1
342	10/05/2023	13:57:33.087	0.00000E+0	0.00000E+0	-4.10586E+1	-3.87817E+1	0.00000E+0	0.00000E+0	1.95200E+1	1.35000E+1	1.95190E+1	1.35008E+1
343	10/05/2023	13:57:34.535	0.00000E+0	0.00000E+0	-1.99725E+1	-2.18714E+1	0.00000E+0	0.00000E+0	1.95200E+1	1.35000E+1	1.95199E+1	1.34984E+1
344	10/05/2023	13:57:35.997	0.00000E+0	0.00000E+0	4.59934E+1	4.90639E+1	0.00000E+0	0.00000E+0	1.95200E+1	1.35000E+1	1.95199E+1	1.35001E+1
345	10/05/2023	13:57:37.531	0.00000E+0	0.00000E+0	3.93962E+1	4.04579E+1	0.00000E+0	0.00000E+0	1.95200E+1	1.35000E+1	1.95199E+1	1.35003E+1
346	10/05/2023	13:57:38.967	0.00000E+0	0.00000E+0	1.23864E+2	1.27701E+2	0.00000E+0	0.00000E+0	1.95200E+1	1.35000E+1	1.95201E+1	1.35005E+1
347	10/05/2023	13:57:40.481	0.00000E+0	0.00000E+0	1.19582E+1	5.29513E+0	0.00000E+0	0.00000E+0	1.95200E+1	1.35000E+1	1.95203E+1	1.35013E+1
348	10/05/2023	13:57:41.954	0.00000E+0	0.00000E+0	-1.18610E+2	-1.24043E+2	0.00000E+0	0.00000E+0	1.95200E+1	1.35000E+1	1.95173E+1	1.34976E+1
349	10/05/2023	13:57:43.410	0.00000E+0	0.00000E+0	4.01183E+1	4.27424E+1	0.00000E+0	0.00000E+0	1.95200E+1	1.35000E+1	1.95202E+1	1.34994E+1
350	10/05/2023	13:57:44.928	0.00000E+0	0.00000E+0	6.80473E+1	7.12459E+1	0.00000E+0	0.00000E+0	1.95200E+1	1.35000E+1	1.95219E+1	1.35009E+1
351	10/05/2023	13:57:46.417	0.00000E+0	0.00000E+0	6.97585E+1	7.79245E+1	0.00000E+0	0.00000E+0	1.95200E+1	1.35000E+1	1.95205E+1	1.34987E+1
352	10/05/2023	13:57:47.863	0.00000E+0	0.00000E+0	7.90357E+1	7.93167E+1	0.00000E+0	0.00000E+0	1.95200E+1	1.35000E+1	1.95201E+1	1.35013E+1
353	10/05/2023	13:57:49.405	0.00000E+0	0.00000E+0	-4.32983E+1	-4.77997E+1	0.00000E+0	0.00000E+0	1.95200E+1	1.35000E+1	1.95202E+1	1.35010E+1
354	10/05/2023	13:57:50.877	0.00000E+0	0.00000E+0	-7.51285E+1	-7.60924E+1	0.00000E+0	0.00000E+0	1.95200E+1	1.35000E+1	1.95204E+1	1.35003E+1
355	10/05/2023	13:57:52.430	0.00000E+0	0.00000E+0	-4.76936E+1	-4.72068E+1	0.00000E+0	0.00000E+0	1.95200E+1	1.35000E+1	1.95196E+1	1.34972E+1
356	10/05/2023	13:57:53.858	0.00000E+0	0.00000E+0	-4.55727E-1	-1.53776E+0	0.00000E+0	0.00000E+0	1.95200E+1	1.35000E+1	1.95217E+1	1.35007E+1
357	10/05/2023	13:57:55.349	0.00000E+0	0.00000E+0	-4.26220E+1	-4.66407E+1	0.00000E+0	0.00000E+0	1.95200E+1	1.35000E+1	1.95236E+1	1.34999E+1
358	10/05/2023	13:57:56.870	0.00000E+0	0.00000E+0	-4.23640E+1	-3.99880E+1	0.00000E+0	0.00000E+0	1.95200E+1	1.35000E+1	1.95215E+1	1.34983E+1
359	10/05/2023	13:57:58.344	0.00000E+0	0.00000E+0	-4.03582E+1	-4.30236E+1	0.00000E+0	0.00000E+0	1.95200E+1	1.35000E+1	1.95204E+1	1.34984E+1
360	10/05/2023	13:57:59.833	0.00000E+0	0.00000E+0	-1.35287E+1	-1.11289E+1	0.00000E+0	0.00000E+0	1.95200E+1	1.35000E+1	1.95175E+1	1.34996E+1
361	10/05/2023	13:58:01.367	0.00000E+0	0.00000E+0	8.69229E+0	1.58331E+1	0.00000E+0	0.00000E+0	1.95200E+1	1.35000E+1	1.95205E+1	1.34996E+1
362	10/05/2023	13:58:02.813	0.00000E+0	0.00000E+0	6.90434E+1	7.16166E+1	0.00000E+0	0.00000E+0	1.95200E+1	1.35000E+1	1.95199E+1	1.34995E+1
363	10/05/2023	13:58:04.383	0.00000E+0	0.00000E+0	8.70061E+0	1.12919E+1	0.00000E+0	0.00000E+0	1.95200E+1	1.35000E+1	1.95210E+1	1.35005E+1
364	10/05/2023	13:58:05.855	0.00000E+0	0.00000E+0	6.67678E+1	6.98139E+1	0.00000E+0	0.00000E+0	1.95200E+1	1.35000E+1	1.95191E+1	1.35011E+1
365	10/05/2023	13:58:07.312	0.00000E+0	0.00000E+0	7.06705E+0	8.16141E+0	0.00000E+0	0.00000E+0	1.95200E+1	1.35000E+1	1.95186E+1	1.34994E+1
366	10/05/2023	13:58:08.845	0.00000E+0	0.00000E+0	5.30773E+1	5.08190E+1	0.00000E+0	0.00000E+0	1.95200E+1	1.35000E+1	1.95174E+1	1.35011E+1
367	10/05/2023	13:58:10.325	0.00000E+0	0.00000E+0	1.00244E+1	1.09067E+1	0.00000E+0	0.00000E+0	1.95200E+1	1.35000E+1	1.95210E+1	1.35002E+1
368	10/05/2023	13:58:11.877	0.00000E+0	0.00000E+0	-2.57791E+0	-2.84680E+0	0.00000E+0	0.00000E+0	1.95200E+1	1.35000E+1	1.95209E+1	1.35000E+1
369	10/05/2023	13:58:13.343	0.00000E+0	0.00000E+0	-6.89845E+1	-7.15774E+1	0.00000E+0	0.00000E+0	1.95200E+1	1.35000E+1	1.95209E+1	1.35003E+1
370	10/05/2023	13:58:14.802	0.00000E+0	0.00000E+0	-4.25067E+1	-4.16318E+1	0.00000E+0	0.00000E+0	1.95200E+1	1.35000E+1	1.95207E+1	1.34983E+1
371	10/05/2023	13:58:16.332	0.00000E+0	0.00000E+0	-2.70251E+1	-3.09639E+1	0.00000E+0	0.00000E+0	1.95200E+1	1.35000E+1	1.95190E+1	1.35014E+1
372	10/05/2023	13:58:17.787	0.00000E+0	0.00000E+0	-4.57604E+1	-4.40529E+1	0.00000E+0	0.00000E+0	1.95200E+1	1.35000E+1	1.95202E+1	1.35032E+1
373	10/05/2023	13:58:19.277	0.00000E+0	0.00000E+0	-2.08541E+1	-2.26227E+1	0.00000E+0	0.00000E+0	1.95200E+1	1.35000E+1	1.95210E+1	1.34972E+1
374	10/05/2023	13:58:20.724	0.00000E+0	0.00000E+0	-9.79027E+0	-7.82312E+0	0.00000E+0	0.00000E+0	1.95200E+1	1.35000E+1	1.95201E+1	1.35007E+1
375	10/05/2023	13:58:22.183	0.00000E+0	0.00000E+0	-3.16523E+1	-3.37181E+1	0.00000E+0	0.00000E+0	1.95200E+1	1.35000E+1	1.95174E+1	1.35003E+1
376	10/05/2023	13:58:23.709	0.00000E+0	0.00000E+0	2.33648E+0	4.99235E+0	0.00000E+0	0.00000E+0	1.95200E+1	1.35000E+1	1.95198E+1	1.35029E+1
377	10/05/2023	13:58:25.200	0.00000E+0	0.00000E+0	2.14188E+1	2.29949E+1	0.00000E+0	0.00000E+0	1.95200E+1	1.35000E+1	1.95187E+1	1.35004E+1
378	10/05/2023	13:58:26.651	0.00000E+0	0.00000E+0	4.23811E+1	4.08104E+1	0.00000E+0	0.00000E+0	1.95200E+1	1.35000E+1	1.95207E+1	1.35005E+1
379	10/05/2023	13:58:28.210	0.00000E+0	0.00000E+0	5.80576E+1	6.13864E+1	0.00000E+0	0.00000E+0	1.95200E+1	1.35000E+1	1.95175E+1	1.34993E+1
380	10/05/2023	13:58:29.662	0.00000E+0	0.00000E+0	2.33178E+1	2.71050E+1	0.00000E+0	0.00000E+0	1.95200E+1	1.35000E+1	1.95211E+1	1.34990E+1
381	10/05/2023	13:58:31.453	0.00000E+0	0.00000E+0	1.37200E+1	1.70228E+1	0.00000E+0	0.00000E+0	1.95200E+1	1.35000E+1	1.95214E+1	1.35006E+1
382	10/05/2023	13:58:32.920	0.00000E+0	0.00000E+0	1.25543E+1	1.06516E+1	0.00000E+0	0.00000E+0	1.95200E+1	1.35000E+1	1.95202E+1	1.34997E+1
383	10/05/2023	13:58:34.431	0.00000E+0	0.00000E+0	-2.84832E+1	-2.92629E+1	0.00000E+0	0.00000E+0	1.95200E+1	1.35000E+1	1.95203E+1	1.34988E+1
384	10/05/2023	13:58:35.963	0.00000E+0	0.00000E+0	-6.25263E+1	-6.36098E+1	0.00000E+0	0.00000E+0	1.95200E+1	1.35000E+1	1.95192E+1	1.34989E+1
385	10/05/2023	13:58:37.598	0.00000E+0	0.00000E+0	-6.18326E+1	-6.11475E+1	0.00000E+0	0.00000E+0	1.95200E+1	1.35000E+1	1.95178E+1	1.35004E+1
386	10/05/2023	13:58:39.043	0.00000E+0	0.00000E+0	-1.90133E+1	-1.93452E+1	0.00000E+0	0.00000E+0	1.95200E+1	1.35000E+1	1.95211E+1	1.35005E+1
387	10/05/2023	13:58:40.590	0.00000E+0	0.00000E+0	-1.08363E+1	-9.93969E+0	0.00000E+0	0.00000E+0	1.95200E+1	1.35000E+1	1.95172E+1	1.34970E+1
388	10/05/2023	13:58:42.047	0.00000E+0	0.00000E+0	-6.17096E+1	-5.93716E+1	0.00000E+0	0.00000E+0	1.95200E+1	1.35000E+1	1.95190E+1	1.34991E+1
389	10/05/2023	13:58:43.586	0.00000E+0	0.00000E+0	-1.26807E+1	-8.70466E+0	0.00000E+0	0.00000E+0	1.95200E+1	1.35000E+1	1.95211E+1	1.34992E+1
390	10/05/2023	13:58:45.034	0.00000E+0	0.00000E+0	3.19856E+1	3.09068E+1	0.00000E+0	0.00000E+0	1.95200E+1	1.35000E+1	1.95222E+1	1.34992E+1
391	10/05/2023	13:58:46.506	0.00000E+0	0.00000E+0	-1.03159E+0	7.26204E-1	0.00000E+0	0.00000E+0	1.95200E+1	1.35000E+1	1.95164E+1	1.35012E+1
392	10/05/2023	13:58:48.046	0.00000E+0	0.00000E+0	2.19194E+1	2.31960E+1	0.00000E+0	0.00000E+0	1.95200E+1	1.35000E+1	1.95157E+1	1.35007E+1
393	10/05/2023	13:58:49.518	0.00000E+0	0.00000E+0	3.94195E+1	3.66094E+1	0.00000E+0	0.00000E+0	1.95200E+1	1.35000E+1	1.95200E+1	1.34995E+1
394	10/05/2023	13:58:51.119	0.00000E+0	0.00000E+0	4.24338E+1	4.36899E+1	0.00000E+0	0.00000E+0	1.95200E+1	1.35000E+1	1.95206E+1	1.34996E+1
395	10/05/2023	13:58:52.568	0.00000E+0	0.00000E+0	5.24953E+1	5.19568E+1	0.00000E+0	0.00000E+0	1.95200E+1	1.35000E+1	1.95171E+1	1.34996E+1
396	10/05/2023	13:58:54.007	0.00000E+0	0.00000E+0	4.89736E+1	4.98566E+1	0.00000E+0	0.00000E+0	1.95200E+1	1.35000E+1	1.95204E+1	1.35015E+1
397	10/05/2023	13:58:55.520	0.00000E+0	0.00000E+0	3.62368E+1	3.62776E+1	0.00000E+0	0.00000E+0	1.95200E+1	1.35000E+1	1.95207E+1	1.34992E+1
398	10/05/2023	13:58:56.986	0.00000E+0	0.00000E+0	1.60995E+1	1.55882E+1	0.00000E+0	0.00000E+0	1.95200E+1	1.35000E+1	1.95221E+1	1.35015E+1
399	10/05/2023	13:58:58.444	0.00000E+0	0.00000E+0	-6.65316E-1	-5.79303E+0	0.00000E+0	0.00000E+0	1.95200E+1	1.35000E+1	1.95178E+1	1.35000E+1
400	10/05/2023	13:59:00.002	0.00000E+0	0.00000E+0	-8.97454E+1	-9.18092E+1	0.00000E+0	0.00000E+0	1.95200E+1	1.35000E+1	1.95198E+1	1.35010E+1
401	10/05/2023	13:59:01.450	0.00000E+0	0.00000E+0	-7.67988E+1	-7.93576E+1	0.00000E+0	0.00000E+0	1.95200E+1	1.35000E+1	1.95206E+1	1.35000E+1
402	10/05/2023	13:59:02.967	0.00000E+0	0.00000E+0	-7.49675E+1	-7.93295E+1	0.00000E+0	0.00000E+0	1.95200E+1	1.35000E+1	1.95207E+1	1.35002E+1
403	10/05/2023	13:59:04.433	0.00000E+0	0.00000E+0	1.73441E+1	1.85643E+1	0.00000E+0	0.00000E+0	1.95200E+1	1.35000E+1	1.95197E+1	1.35002E+1
404	10/05/2023	13:59:05.913	0.00000E+0	0.00000E+0	3.87180E+1	3.84247E+1	0.00000E+0	0.00000E+0	1.95200E+1	1.35000E+1	1.95213E+1	1.34973E+1
405	10/05/2023	13:59:07.454	0.00000E+0	0.00000E+0	2.92200E+1	3.15695E+1	0.00000E+0	0.00000E+0	1.95200E+1	1.35000E+1	1.95183E+1	1.34993E+1
406	10/05/2023	13:59:08.946	0.00000E+0	0.00000E+0	2.82168E+1	2.93969E+1	0.00000E+0	0.00000E+0	1.95200E+1	1.35000E+1	1.95201E+1	1.34979E+1
407	10/05/2023	13:59:10.429	0.00000E+0	0.00000E+0	3.73136E+1	3.53477E+1	0.00000E+0	0.00000E+0	1.95200E+1	1.35000E+1	1.95191E+1	1.35002E+1
408	10/05/2023	13:59:11.874	0.00000E+0	0.00000E+0	2.94308E+1	3.05868E+1	0.00000E+0	0.00000E+0	1.95200E+1	1.35000E+1	1.95248E+1	1.35002E+1
409	10/05/2023	13:59:13.357	0.00000E+0	0.00000E+0	2.64897E+1	2.70590E+1	0.00000E+0	0.00000E+0	1.95200E+1	1.35000E+1	1.95206E+1	1.34984E+1
410	10/05/2023	13:59:14.881	0.00000E+0	0.00000E+0	2.87492E+1	2.74584E+1	0.00000E+0	0.00000E+0	1.95200E+1	1.35000E+1	1.95207E+1	1.34995E+1
411	10/05/2023	13:59:16.323	0.00000E+0	0.00000E+0	3.75281E+1	3.87894E+1	0.00000E+0	0.00000E+0	1.95200E+1	1.35000E+1	1.95206E+1	1.35019E+1
412	10/05/2023	13:59:17.774	0.00000E+0	0.00000E+0	1.18106E+1	1.14172E+1	0.00000E+0	0.00000E+0	1.95200E+1	1.35000E+1	1.95230E+1	1.35026E+1
413	10/05/2023	13:59:19.316	0.00000E+0	0.00000E+0	-3.46195E+1	-3.66305E+1	0.00000E+0	0.00000E+0	1.95200E+1	1.35000E+1	1.95209E+1	1.34989E+1
414	10/05/2023	13:59:20.793	0.00000E+0	0.00000E+0	-5.70246E+1	-5.90936E+1	0.00000E+0	0.00000E+0	1.95200E+1	1.35000E+1	1.95190E+1	1.35016E+1
415	10/05/2023	13:59:22.273	0.00000E+0	0.00000E+0	-3.63099E+1	-3.56332E+1	0.00000E+0	0.00000E+0	1.95200E+1	1.35000E+1	1.95203E+1	1.34992E+1
416	10/05/2023	13:59:23.723	0.00000E+0	0.00000E+0	-2.71608E+1	-2.76246E+1	0.00000E+0	0.00000E+0	1.95200E+1	1.35000E+1	1.95211E+1	1.35005E+1
417	10/05/2023	13:59:25.175	0.00000E+0	0.00000E+0	-2.33906E+1	-2.21679E+1	0.00000E+0	0.00000E+0	1.95200E+1	1.35000E+1	1.95195E+1	1.35000E+1
418	10/05/2023	13:59:26.808	0.00000E+0	0.00000E+0	-1.68245E+1	-1.83946E+1	0.00000E+0	0.00000E+0	1.95200E+1	1.35000E+1	1.95209E+1	1.35017E+1
419	10/05/2023	13:59:28.246	0.00000E+0	0.00000E+0	-3.01569E+1	-3.09479E+1	0.00000E+0	0.00000E+0	1.95200E+1	1.35000E+1	1.95220E+1	1.34979E+1
420	10/05/2023	13:59:29.736	0.00000E+0	0.00000E+0	-3.02556E+1	-3.00281E+1	0.00000E+0	0.00000E+0	1.95200E+1	1.35000E+1	1.95205E+1	1.34985E+1
421	10/05/2023	13:59:31.287	0.00000E+0	0.00000E+0	9.01089E+0	1.48390E+1	0.00000E+0	0.00000E+0	1.95200E+1	1.35000E+1	1.95189E+1	1.35019E+1
422	10/05/2023	13:59:32.762	0.00000E+0	0.00000E+0	2.74358E+1	2.78667E+1	0.00000E+0	0.00000E+0	1.95200E+1	1.35000E+1	1.95199E+1	1.35011E+1
423	10/05/2023	13:59:34.301	0.00000E+0	0.00000E+0	1.74601E+1	1.73658E+1	0.00000E+0	0.00000E+0	1.95200E+1	1.35000E+1	1.95179E+1	1.35010E+1
424	10/05/2023	13:59:35.787	0.00000E+0	0.00000E+0	2.45773E+1	2.37840E+1	0.00000E+0	0.00000E+0	1.95200E+1	1.35000E+1	1.95188E+1	1.35000E+1
425	10/05/2023	13:59:37.259	0.00000E+0	0.00000E+0	1.23038E+0	3.77978E-2	0.00000E+0	0.00000E+0	1.95200E+1	1.35000E+1	1.95226E+1	1.35017E+1
426	10/05/2023	13:59:38.833	0.00000E+0	0.00000E+0	3.03536E+0	7.92810E+0	0.00000E+0	0.00000E+0	1.95200E+1	1.35000E+1	1.95204E+1	1.34976E+1
427	10/05/2023	13:59:40.279	0.00000E+0	0.00000E+0	1.93647E+1	2.27566E+1	0.00000E+0	0.00000E+0	1.95200E+1	1.35000E+1	1.95205E+1	1.34978E+1
428	10/05/2023	13:59:41.897	0.00000E+0	0.00000E+0	5.16180E+1	5.20783E+1	0.00000E+0	0.00000E+0	1.95200E+1	1.35000E+1	1.95186E+1	1.35007E+1
429	10/05/2023	13:59:43.388	0.00000E+0	0.00000E+0	6.28363E+1	6.07447E+1	0.00000E+0	0.00000E+0	1.95200E+1	1.35000E+1	1.95192E+1	1.34996E+1
430	10/05/2023	13:59:44.873	0.00000E+0	0.00000E+0	4.89243E+1	4.80863E+1	0.00000E+0	0.00000E+0	1.95200E+1	1.35000E+1	1.95193E+1	1.35004E+1
431	10/05/2023	13:59:46.402	0.00000E+0	0.00000E+0	-2.97185E+0	-8.30238E+0	0.00000E+0	0.00000E+0	1.95200E+1	1.35000E+1	1.95215E+1	1.34997E+1
432	10/05/2023	13:59:47.911	0.00000E+0	0.00000E+0	-2.75210E+1	-2.71672E+1	0.00000E+0	0.00000E+0	1.95200E+1	1.35000E+1	1.95181E+1	1.34978E+1
433	10/05/2023	13:59:49.358	0.00000E+0	0.00000E+0	-2.91286E+1	-2.88401E+1	0.00000E+0	0.00000E+0	1.95200E+1	1.35000E+1	1.95210E+1	1.35011E+1
434	10/05/2023	13:59:51.031	0.00000E+0	0.00000E+0	-1.43805E+1	-1.44347E+1	0.00000E+0	0.00000E+0	1.95200E+1	1.35000E+1	1.95191E+1	1.34989E+1
435	10/05/2023	13:59:52.485	0.00000E+0	0.00000E+0	-5.12082E+0	-4.98963E+0	0.00000E+0	0.00000E+0	1.95200E+1	1.35000E+1	1.95218E+1	1.34995E+1
436	10/05/2023	13:59:54.241	0.00000E+0	0.00000E+0	-1.25260E+1	-1.36609E+1	0.00000E+0	0.00000E+0	1.95200E+1	1.35000E+1	1.95233E+1	1.35000E+1
437	10/05/2023	13:59:55.704	0.00000E+0	0.00000E+0	-1.75831E+1	-1.61975E+1	0.00000E+0	0.00000E+0	1.95200E+1	1.35000E+1	1.95210E+1	1.34991E+1
438	10/05/2023	13:59:57.181	0.00000E+0	0.00000E+0	-2.60829E+1	-2.81285E+1	0.00000E+0	0.00000E+0	1.95200E+1	1.35000E+1	1.95220E+1	1.34999E+1
439	10/05/2023	13:59:58.659	0.00000E+0	0.00000E+0	-2.86575E+1	-2.95282E+1	0.00000E+0	0.00000E+0	1.95200E+1	1.35000E+1	1.95204E+1	1.35018E+1
440	10/05/2023	14:00:00.125	0.00000E+0	0.00000E+0	-1.89890E+1	-2.09184E+1	0.00000E+0	0.00000E+0	1.95200E+1	1.35000E+1	1.95210E+1	1.35016E+1
441	10/05/2023	14:00:01.617	0.00000E+0	0.00000E+0	-1.83778E+1	-1.77979E+1	0.00000E+0	0.00000E+0	1.95200E+1	1.35000E+1	1.95193E+1	1.35018E+1
442	10/05/2023	14:00:03.077	0.00000E+0	0.00000E+0	-8.03203E+0	-7.79600E+0	0.00000E+0	0.00000E+0	1.95200E+1	1.35000E+1	1.95218E+1	1.34981E+1
443	10/05/2023	14:00:04.517	0.00000E+0	0.00000E+0	-2.63983E+1	-2.75426E+1	0.00000E+0	0.00000E+0	1.95200E+1	1.35000E+1	1.95195E+1	1.34992E+1
444	10/05/2023	14:00:06.047	0.00000E+0	0.00000E+0	-2.75517E+1	-2.87803E+1	0.00000E+0	0.00000E+0	1.95200E+1	1.35000E+1	1.95232E+1	1.35005E+1
445	10/05/2023	14:00:07.545	0.00000E+0	0.00000E+0	-2.91825E+0	1.28330E+0	0.00000E+0	0.00000E+0	1.95200E+1	1.35000E+1	1.95190E+1	1.34997E+1
446	10/05/2023	14:00:09.028	0.00000E+0	0.00000E+0	1.27163E+1	1.23965E+1	0.00000E+0	0.00000E+0	1.95200E+1	1.35000E+1	1.95184E+1	1.34966E+1
447	10/05/2023	14:00:10.555	0.00000E+0	0.00000E+0	1.74895E+1	1.81213E+1	0.00000E+0	0.00000E+0	1.95200E+1	1.35000E+1	1.95186E+1	1.35001E+1
448	10/05/2023	14:00:12.007	0.00000E+0	0.00000E+0	4.42530E+0	4.36075E+0	0.00000E+0	0.00000E+0	1.95200E+1	1.35000E+1	1.95205E+1	1.34996E+1
449	10/05/2023	14:00:13.525	0.00000E+0	0.00000E+0	4.63010E+0	4.71317E+0	0.00000E+0	0.00000E+0	1.95200E+1	1.35000E+1	1.95197E+1	1.35001E+1
450	10/05/2023	14:00:14.990	0.00000E+0	0.00000E+0	7.96495E+0	8.75308E+0	0.00000E+0	0.00000E+0	1.95200E+1	1.35000E+1	1.95178E+1	1.35010E+1
451	10/05/2023	14:00:16.476	0.00000E+0	0.00000E+0	1.72379E+1	1.79424E+1	0.00000E+0	0.00000E+0	1.95200E+1	1.35000E+1	1.95185E+1	1.34985E+1
452	10/05/2023	14:00:18.002	0.00000E+0	0.00000E+0	3.82704E+1	3.98853E+1	0.00000E+0	0.00000E+0	1.95200E+1	1.35000E+1	1.95196E+1	1.35007E+1
453	10/05/2023	14:00:19.481	0.00000E+0	0.00000E+0	-1.34860E+1	-1.70311E+1	0.00000E+0	0.00000E+0	1.95200E+1	1.35000E+1	1.95219E+1	1.35004E+1
454	10/05/2023	14:00:20.958	0.00000E+0	0.00000E+0	-2.89027E+1	-3.16574E+1	0.00000E+0	0.00000E+0	1.95200E+1	1.35000E+1	1.95182E+1	1.34992E+1
455	10/05/2023	14:00:22.524	0.00000E+0	0.00000E+0	1.31431E+0	7.38595E+0	0.00000E+0	0.00000E+0	1.95200E+1	1.35000E+1	1.95180E+1	1.34985E+1
456	10/05/2023	14:00:24.002	0.00000E+0	0.00000E+0	-3.27270E+1	-3.77363E+1	0.00000E+0	0.00000E+0	1.95200E+1	1.35000E+1	1.95216E+1	1.35011E+1
457	10/05/2023	14:00:25.597	0.00000E+0	0.00000E+0	1.05706E+2	1.09714E+2	0.00000E+0	0.00000E+0	1.95200E+1	1.35000E+1	1.95155E+1	1.35007E+1
458	10/05/2023	14:00:27.054	0.00000E+0	0.00000E+0	-2.29876E+1	-1.29053E+1	0.00000E+0	0.00000E+0	1.95200E+1	1.35000E+1	1.95178E+1	1.35017E+1
459	10/05/2023	14:00:28.705	0.00000E+0	0.00000E+0	-3.08676E+1	-3.26806E+1	0.00000E+0	0.00000E+0	1.95200E+1	1.35000E+1	1.95203E+1	1.35006E+1
460	10/05/2023	14:00:30.572	0.00000E+0	0.00000E+0	-1.64474E+1	-2.10963E+1	0.00000E+0	0.00000E+0	1.95200E+1	1.35000E+1	1.95195E+1	1.35017E+1
461	10/05/2023	14:00:32.056	0.00000E+0	0.00000E+0	3.49836E+1	4.16793E+1	0.00000E+0	0.00000E+0	1.95200E+1	1.35000E+1	1.95214E+1	1.34983E+1
462	10/05/2023	14:00:33.615	0.00000E+0	0.00000E+0	-3.44612E+1	-3.58014E+1	0.00000E+0	0.00000E+0	1.95200E+1	1.35000E+1	1.95202E+1	1.34987E+1
463	10/05/2023	14:00:35.174	0.00000E+0	0.00000E+0	4.32806E+1	3.54598E+1	0.00000E+0	0.00000E+0	1.95200E+1	1.35000E+1	1.95201E+1	1.35018E+1
464	10/05/2023	14:00:36.626	0.00000E+0	0.00000E+0	1.15126E+1	2.05550E+1	0.00000E+0	0.00000E+0	1.95200E+1	1.35000E+1	1.95196E+1	1.34984E+1
465	10/05/2023	14:00:38.215	0.00000E+0	0.00000E+0	-3.65335E+1	-4.22019E+1	0.00000E+0	0.00000E+0	1.95200E+1	1.35000E+1	1.95181E+1	1.34994E+1
466	10/05/2023	14:00:39.688	0.00000E+0	0.00000E+0	1.95918E+1	1.73489E+1	0.00000E+0	0.00000E+0	1.95200E+1	1.35000E+1	1.95198E+1	1.34992E+1
467	10/05/2023	14:00:41.168	0.00000E+0	0.00000E+0	-6.34304E-1	3.25204E-2	0.00000E+0	0.00000E+0	1.95200E+1	1.35000E+1	1.95210E+1	1.35010E+1
468	10/05/2023	14:00:42.705	0.00000E+0	0.00000E+0	6.44457E+1	5.61648E+1	0.00000E+0	0.00000E+0	1.95200E+1	1.35000E+1	1.95196E+1	1.34994E+1
469	10/05/2023	14:00:44.187	0.00000E+0	0.00000E+0	1.42804E+1	1.26781E+1	0.00000E+0	0.00000E+0	1.95200E+1	1.35000E+1	1.95206E+1	1.35004E+1
470	10/05/2023	14:00:45.702	0.00000E+0	0.00000E+0	-4.70946E+1	-4.58617E+1	0.00000E+0	0.00000E+0	1.95200E+1	1.35000E+1	1.95197E+1	1.34996E+1
471	10/05/2023	14:00:47.157	0.00000E+0	0.00000E+0	-7.42567E+1	-7.70397E+1	0.00000E+0	0.00000E+0	1.95200E+1	1.35000E+1	1.95189E+1	1.34997E+1
472	10/05/2023	14:00:48.596	0.00000E+0	0.00000E+0	-7.27717E+1	-7.55937E+1	0.00000E+0	0.00000E+0	1.95200E+1	1.35000E+1	1.95219E+1	1.35003E+1
473	10/05/2023	14:00:50.110	0.00000E+0	0.00000E+0	-6.47869E+1	-6.42482E+1	0.00000E+0	0.00000E+0	1.95200E+1	1.35000E+1	1.95213E+1	1.34996E+1
474	10/05/2023	14:00:51.564	0.00000E+0	0.00000E+0	3.80296E+1	3.83320E+1	0.00000E+0	0.00000E+0	1.95200E+1	1.35000E+1	1.95188E+1	1.35002E+1
475	10/05/2023	14:00:53.031	0.00000E+0	0.00000E+0	4.99979E+1	5.09558E+1	0.00000E+0	0.00000E+0	1.95200E+1	1.35000E+1	1.95212E+1	1.35007E+1
476	10/05/2023	14:00:54.432	0.00000E+0	0.00000E+0	7.32420E+1	7.56519E+1	0.00000E+0	0.00000E+0	1.95200E+1	1.35000E+1	1.95209E+1	1.34997E+1
477	10/05/2023	14:00:55.908	0.00000E+0	0.00000E+0	6.91527E+1	7.12786E+1	0.00000E+0	0.00000E+0	1.95200E+1	1.35000E+1	1.95197E+1	1.35013E+1
478	10/05/2023	14:00:57.445	0.00000E+0	0.00000E+0	4.56565E+1	4.19776E+1	0.00000E+0	0.00000E+0	1.95200E+1	1.35000E+1	1.95203E+1	1.34997E+1
479	10/05/2023	14:00:58.917	0.00000E+0	0.00000E+0	-6.82936E+1	-7.07390E+1	0.00000E+0	0.00000E+0	1.95200E+1	1.35000E+1	1.95210E+1	1.35009E+1
480	10/05/2023	14:01:00.389	0.00000E+0	0.00000E+0	-8.37334E+1	-8.40729E+1	0.00000E+0	0.00000E+0	1.95200E+1	1.35000E+1	1.95209E+1	1.34999E+1
481	10/05/2023	14:01:01.952	0.00000E+0	0.00000E+0	-9.23331E+1	-9.25393E+1	0.00000E+0	0.00000E+0	1.95200E+1	1.35000E+1	1.95191E+1	1.35017E+1
482	10/05/2023	14:01:03.433	0.00000E+0	0.00000E+0	3.03150E+1	3.32928E+1	0.00000E+0	0.00000E+0	1.95200E+1	1.35000E+1	1.95204E+1	1.34972E+1
483	10/05/2023	14:01:05.060	0.00000E+0	0.00000E+0	7.62375E+1	7.72713E+1	0.00000E+0	0.00000E+0	1.95200E+1	1.35000E+1	1.95215E+1	1.35012E+1
484	10/05/2023	14:01:06.496	0.00000E+0	0.00000E+0	8.55779E+1	8.62767E+1	0.00000E+0	0.00000E+0	1.95200E+1	1.35000E+1	1.95224E+1	1.34983E+1
485	10/05/2023	14:01:07.948	0.00000E+0	0.00000E+0	8.39446E+1	8.59623E+1	0.00000E+0	0.00000E+0	1.95200E+1	1.35000E+1	1.95182E+1	1.35005E+1
486	10/05/2023	14:01:09.473	0.00000E+0	0.00000E+0	-3.16437E+1	-3.64031E+1	0.00000E+0	0.00000E+0	1.95200E+1	1.35000E+1	1.95193E+1	1.34996E+1
487	10/05/2023	14:01:10.924	0.00000E+0	0.00000E+0	-1.05521E+2	-1.09688E+2	0.00000E+0	0.00000E+0	1.95200E+1	1.35000E+1	1.95169E+1	1.35017E+1
488	10/05/2023	14:01:12.412	0.00000E+0	0.00000E+0	-9.39360E+1	-9.21632E+1	0.00000E+0	0.00000E+0	1.95200E+1	1.35000E+1	1.95190E+1	1.35011E+1
489	10/05/2023	14:01:14.010	0.00000E+0	0.00000E+0	-2.96884E+1	-2.75811E+1	0.00000E+0	0.00000E+0	1.95200E+1	1.35000E+1	1.95213E+1	1.35006E+1
490	10/05/2023	14:01:15.462	0.00000E+0	0.00000E+0	4.54398E+1	4.93503E+1	0.00000E+0	0.00000E+0	1.95200E+1	1.35000E+1	1.95201E+1	1.35013E+1
491	10/05/2023	14:01:17.070	0.00000E+0	0.00000E+0	-4.24297E-1	4.83182E-1	0.00000E+0	0.00000E+0	1.95200E+1	1.35000E+1	1.95210E+1	1.35004E+1
492	10/05/2023	14:01:18.563	0.00000E+0	0.00000E+0	6.15452E+1	5.93059E+1	0.00000E+0	0.00000E+0	1.95200E+1	1.35000E+1	1.95212E+1	1.35003E+1
493	10/05/2023	14:01:20.019	0.00000E+0	0.00000E+0	5.75673E+1	5.90952E+1	0.00000E+0	0.00000E+0	1.95200E+1	1.35000E+1	1.95167E+1	1.35003E+1
494	10/05/2023	14:01:21.581	0.00000E+0	0.00000E+0	2.46052E+1	2.54403E+1	0.00000E+0	0.00000E+0	1.95200E+1	1.35000E+1	1.95200E+1	1.35006E+1
495	10/05/2023	14:01:23.018	0.00000E+0	0.00000E+0	2.16813E+1	1.63237E+1	0.00000E+0	0.00000E+0	1.95200E+1	1.35000E+1	1.95175E+1	1.35003E+1
496	10/05/2023	14:01:24.564	0.00000E+0	0.00000E+0	-5.24096E+1	-5.36953E+1	0.00000E+0	0.00000E+0	1.95200E+1	1.35000E+1	1.95211E+1	1.35000E+1
497	10/05/2023	14:01:26.022	0.00000E+0	0.00000E+0	-5.23064E+1	-5.16703E+1	0.00000E+0	0.00000E+0	1.95200E+1	1.35000E+1	1.95183E+1	1.35001E+1
498	10/05/2023	14:01:27.476	0.00000E+0	0.00000E+0	-4.56746E+1	-4.46993E+1	0.00000E+0	0.00000E+0	1.95200E+1	1.35000E+1	1.95184E+1	1.35008E+1
499	10/05/2023	14:01:29.022	0.00000E+0	0.00000E+0	-3.01444E+1	-3.41648E+1	0.00000E+0	0.00000E+0	1.95200E+1	1.35000E+1	1.95189E+1	1.34989E+1
500	10/05/2023	14:01:30.491	0.00000E+0	0.00000E+0	-1.83700E+1	-2.14038E+1	0.00000E+0	0.00000E+0	1.95200E+1	1.35000E+1	1.95184E+1	1.34988E+1
