#Iteration	Date	Time	RTPhase	NFringe	AccelAxis	AccelMean	AccelTemp
1	02/09/2022	17:10:01.415	5.90505904E+0	-6.31000000E+2	2.00000000E+0	-9.80587816E+0	7.15900700E+6
2	02/09/2022	17:10:02.816	5.08591330E+0	-6.30000000E+2	2.00000000E+0	-9.80587816E+0	7.15900700E+6
3	02/09/2022	17:10:04.206	4.68822878E+0	-6.31000000E+2	2.00000000E+0	-9.80587816E+0	7.15900700E+6
4	02/09/2022	17:10:05.809	6.08836975E+0	-6.31000000E+2	2.00000000E+0	-9.80587816E+0	7.15900700E+6
5	02/09/2022	17:10:07.212	5.35282596E+0	-6.31000000E+2	2.00000000E+0	-9.80587816E+0	7.15900700E+6
6	02/09/2022	17:10:08.594	5.79461243E+0	-6.31000000E+2	2.00000000E+0	-9.80587816E+0	7.15900700E+6
7	02/09/2022	17:10:09.989	2.50268966E+0	-6.30000000E+2	2.00000000E+0	-9.80587816E+0	7.15900700E+6
8	02/09/2022	17:10:11.371	4.58660256E+0	-6.31000000E+2	2.00000000E+0	-9.80587816E+0	7.15900700E+6
9	02/09/2022	17:10:12.978	1.49754874E+0	-6.30000000E+2	2.00000000E+0	-9.80587816E+0	7.15900700E+6
10	02/09/2022	17:10:14.389	5.31524343E+0	-6.31000000E+2	2.00000000E+0	-9.80587816E+0	7.15900700E+6
11	02/09/2022	17:10:15.861	5.12963175E+0	-6.30000000E+2	2.00000000E+0	-9.80587816E+0	7.15900700E+6
12	02/09/2022	17:10:17.392	4.22535008E+0	-6.31000000E+2	2.00000000E+0	-9.80587816E+0	7.15900700E+6
13	02/09/2022	17:10:18.760	4.08997628E+0	-6.31000000E+2	2.00000000E+0	-9.80587816E+0	7.15900700E+6
14	02/09/2022	17:10:20.218	5.48398132E+0	-6.31000000E+2	2.00000000E+0	-9.80587816E+0	7.15900700E+6
15	02/09/2022	17:10:21.671	2.27796147E+0	-6.30000000E+2	2.00000000E+0	-9.80587816E+0	7.15900700E+6
16	02/09/2022	17:10:23.043	5.76393281E-1	-6.30000000E+2	2.00000000E+0	-9.80587816E+0	7.15900700E+6
17	02/09/2022	17:10:24.552	4.20234037E+0	-6.31000000E+2	2.00000000E+0	-9.80587816E+0	7.15900700E+6
18	02/09/2022	17:10:25.932	4.39868991E+0	-6.31000000E+2	2.00000000E+0	-9.80587816E+0	7.15900700E+6
19	02/09/2022	17:10:27.318	5.72750077E+0	-6.30000000E+2	2.00000000E+0	-9.80587816E+0	7.15900700E+6
20	02/09/2022	17:10:28.826	5.68608329E+0	-6.30000000E+2	2.00000000E+0	-9.80587816E+0	7.15900700E+6
21	02/09/2022	17:10:30.223	1.49524777E+0	-6.30000000E+2	2.00000000E+0	-9.80587816E+0	7.15900700E+6
22	02/09/2022	17:10:31.650	2.83019455E-1	-6.29000000E+2	2.00000000E+0	-9.80587816E+0	7.15900700E+6
23	02/09/2022	17:10:33.021	6.09067072E+0	-6.30000000E+2	2.00000000E+0	-9.80587816E+0	7.15900700E+6
24	02/09/2022	17:10:34.461	4.69474820E+0	-6.31000000E+2	2.00000000E+0	-9.80587816E+0	7.15900700E+6
25	02/09/2022	17:10:35.938	2.96825282E-1	-6.29000000E+2	2.00000000E+0	-9.80587816E+0	7.15900700E+6
26	02/09/2022	17:10:37.318	7.88082630E-1	-6.30000000E+2	2.00000000E+0	-9.80587816E+0	7.15900700E+6
27	02/09/2022	17:10:38.701	4.77413171E+0	-6.31000000E+2	2.00000000E+0	-9.80587816E+0	7.15900700E+6
28	02/09/2022	17:10:40.090	5.74437456E+0	-6.30000000E+2	2.00000000E+0	-9.80587816E+0	7.15900700E+6
29	02/09/2022	17:10:41.473	2.10960708E+0	-6.30000000E+2	2.00000000E+0	-9.80587816E+0	7.15900700E+6
30	02/09/2022	17:10:43.007	4.85466570E+0	-6.30000000E+2	2.00000000E+0	-9.80587816E+0	7.15900700E+6
31	02/09/2022	17:10:44.418	2.84284990E+0	-6.30000000E+2	2.00000000E+0	-9.80587816E+0	7.15900700E+6
32	02/09/2022	17:10:45.884	6.00438430E+0	-6.30000000E+2	2.00000000E+0	-9.80587816E+0	7.15900700E+6
33	02/09/2022	17:10:47.363	4.55170449E+0	-6.31000000E+2	2.00000000E+0	-9.80587816E+0	7.15900700E+6
34	02/09/2022	17:10:48.746	6.12403480E+0	-6.31000000E+2	2.00000000E+0	-9.80587816E+0	7.15900700E+6
35	02/09/2022	17:10:50.294	5.94532604E+0	-6.31000000E+2	2.00000000E+0	-9.80587816E+0	7.15900700E+6
36	02/09/2022	17:10:51.669	1.65094682E+0	-6.30000000E+2	2.00000000E+0	-9.80587816E+0	7.15900700E+6
37	02/09/2022	17:10:53.057	2.98397613E+0	-6.30000000E+2	2.00000000E+0	-9.80587816E+0	7.15900700E+6
38	02/09/2022	17:10:54.551	3.89631120E-1	-6.29000000E+2	2.00000000E+0	-9.80587816E+0	7.15900700E+6
39	02/09/2022	17:10:55.924	6.25979210E+0	-6.30000000E+2	2.00000000E+0	-9.80587816E+0	7.15900700E+6
40	02/09/2022	17:10:57.400	4.87115599E+0	-6.31000000E+2	2.00000000E+0	-9.80587816E+0	7.15900700E+6
41	02/09/2022	17:10:58.909	3.93657820E+0	-6.31000000E+2	2.00000000E+0	-9.80587816E+0	7.15900700E+6
42	02/09/2022	17:11:00.292	2.15255854E+0	-6.30000000E+2	2.00000000E+0	-9.80587816E+0	7.15900700E+6
43	02/09/2022	17:11:01.765	5.78617553E+0	-6.30000000E+2	2.00000000E+0	-9.80587816E+0	7.15900700E+6
44	02/09/2022	17:11:03.155	9.20388473E-2	-6.30000000E+2	2.00000000E+0	-9.80587816E+0	7.15900700E+6
45	02/09/2022	17:11:04.552	3.30074316E+0	-6.30000000E+2	2.00000000E+0	-9.80587816E+0	7.15900700E+6
46	02/09/2022	17:11:06.013	3.11398100E+0	-6.30000000E+2	2.00000000E+0	-9.80587816E+0	7.15900700E+6
47	02/09/2022	17:11:07.445	4.03436947E+0	-6.31000000E+2	2.00000000E+0	-9.80587816E+0	7.15900700E+6
48	02/09/2022	17:11:08.904	4.90375308E+0	-6.31000000E+2	2.00000000E+0	-9.80587816E+0	7.15900700E+6
49	02/09/2022	17:11:10.411	5.45867063E+0	-6.31000000E+2	2.00000000E+0	-9.80587816E+0	7.15900700E+6
50	02/09/2022	17:11:11.790	2.66797609E+0	-6.30000000E+2	2.00000000E+0	-9.80587816E+0	7.15900700E+6
51	02/09/2022	17:11:13.257	5.54150560E+0	-6.30000000E+2	2.00000000E+0	-9.80587816E+0	7.15900700E+6
52	02/09/2022	17:11:14.634	4.14174813E+0	-6.30000000E+2	2.00000000E+0	-9.80587816E+0	7.15900700E+6
53	02/09/2022	17:11:16.034	3.17572373E+0	-6.30000000E+2	2.00000000E+0	-9.80587816E+0	7.15900700E+6
54	02/09/2022	17:11:17.544	5.48896675E+0	-6.30000000E+2	2.00000000E+0	-9.80587816E+0	7.15900700E+6
55	02/09/2022	17:11:18.911	5.22052012E+0	-6.30000000E+2	2.00000000E+0	-9.80587816E+0	7.15900700E+6
56	02/09/2022	17:11:20.386	1.39745650E+0	-6.30000000E+2	2.00000000E+0	-9.80587816E+0	7.15900700E+6
57	02/09/2022	17:11:21.768	3.84453935E+0	-6.31000000E+2	2.00000000E+0	-9.80587816E+0	7.15900700E+6
58	02/09/2022	17:11:23.128	5.67457843E+0	-6.31000000E+2	2.00000000E+0	-9.80587816E+0	7.15900700E+6
59	02/09/2022	17:11:24.594	3.72297137E+0	-6.31000000E+2	2.00000000E+0	-9.80587816E+0	7.15900700E+6
60	02/09/2022	17:11:25.995	2.48044693E+0	-6.30000000E+2	2.00000000E+0	-9.80587816E+0	7.15900700E+6
61	02/09/2022	17:11:27.418	5.90045710E+0	-6.31000000E+2	2.00000000E+0	-9.80587816E+0	7.15900700E+6
62	02/09/2022	17:11:28.767	4.85581618E+0	-6.30000000E+2	2.00000000E+0	-9.80587816E+0	7.15900700E+6
63	02/09/2022	17:11:30.148	3.13775770E+0	-6.30000000E+2	2.00000000E+0	-9.80587816E+0	7.15900700E+6
64	02/09/2022	17:11:31.633	1.25939823E+0	-6.30000000E+2	2.00000000E+0	-9.80587816E+0	7.15900700E+6
65	02/09/2022	17:11:33.023	3.80235488E+0	-6.30000000E+2	2.00000000E+0	-9.80587816E+0	7.15900700E+6
66	02/09/2022	17:11:34.498	5.66882600E+0	-6.31000000E+2	2.00000000E+0	-9.80587816E+0	7.15900700E+6
67	02/09/2022	17:11:36.011	5.80956874E+0	-6.31000000E+2	2.00000000E+0	-9.80587816E+0	7.15900700E+6
68	02/09/2022	17:11:37.408	5.71752989E+0	-6.31000000E+2	2.00000000E+0	-9.80587816E+0	7.15900700E+6
69	02/09/2022	17:11:38.901	6.01205420E+0	-6.30000000E+2	2.00000000E+0	-9.80587816E+0	7.15900700E+6
70	02/09/2022	17:11:40.298	5.87706389E+0	-6.31000000E+2	2.00000000E+0	-9.80587816E+0	7.15900700E+6
71	02/09/2022	17:11:41.715	8.92776819E-1	-6.30000000E+2	2.00000000E+0	-9.80587816E+0	7.15900700E+6
72	02/09/2022	17:11:43.224	2.93642272E+0	-6.30000000E+2	2.00000000E+0	-9.80587816E+0	7.15900700E+6
73	02/09/2022	17:11:44.608	4.18661707E+0	-6.30000000E+2	2.00000000E+0	-9.80587816E+0	7.15900700E+6
74	02/09/2022	17:11:46.065	6.17619015E+0	-6.30000000E+2	2.00000000E+0	-9.80587816E+0	7.15900700E+6
75	02/09/2022	17:11:47.574	3.66237913E+0	-6.30000000E+2	2.00000000E+0	-9.80587816E+0	7.15900700E+6
76	02/09/2022	17:11:48.956	4.73002976E+0	-6.31000000E+2	2.00000000E+0	-9.80587816E+0	7.15900700E+6
77	02/09/2022	17:11:50.398	1.15432054E-1	-6.29000000E+2	2.00000000E+0	-9.80587816E+0	7.15900700E+6
78	02/09/2022	17:11:51.781	9.31893329E-2	-6.30000000E+2	2.00000000E+0	-9.80587816E+0	7.15900700E+6
79	02/09/2022	17:11:53.175	5.54955900E+0	-6.30000000E+2	2.00000000E+0	-9.80587816E+0	7.15900700E+6
80	02/09/2022	17:11:54.696	1.93933521E+0	-6.30000000E+2	2.00000000E+0	-9.80587816E+0	7.15900700E+6
81	02/09/2022	17:11:56.084	5.94532604E+0	-6.31000000E+2	2.00000000E+0	-9.80587816E+0	7.15900700E+6
82	02/09/2022	17:11:57.469	5.58522405E+0	-6.30000000E+2	2.00000000E+0	-9.80587816E+0	7.15900700E+6
83	02/09/2022	17:11:58.852	5.52194734E+0	-6.31000000E+2	2.00000000E+0	-9.80587816E+0	7.15900700E+6
84	02/09/2022	17:12:00.229	4.19160250E+0	-6.31000000E+2	2.00000000E+0	-9.80587816E+0	7.15900700E+6
85	02/09/2022	17:12:01.719	3.92775781E+0	-6.30000000E+2	2.00000000E+0	-9.80587816E+0	7.15900700E+6
86	02/09/2022	17:12:03.116	3.44340337E+0	-6.30000000E+2	2.00000000E+0	-9.80587816E+0	7.15900700E+6
87	02/09/2022	17:12:04.587	9.16553521E-2	-6.29000000E+2	2.00000000E+0	-9.80587816E+0	7.15900700E+6
88	02/09/2022	17:12:06.093	6.17427267E+0	-6.30000000E+2	2.00000000E+0	-9.80587816E+0	7.15900700E+6
89	02/09/2022	17:12:07.444	5.60669978E-1	-6.30000000E+2	2.00000000E+0	-9.80587816E+0	7.15900700E+6
90	02/09/2022	17:12:08.975	2.92415088E+0	-6.30000000E+2	2.00000000E+0	-9.80587816E+0	7.15900700E+6
91	02/09/2022	17:12:10.364	6.26477754E+0	-6.31000000E+2	2.00000000E+0	-9.80587816E+0	7.15900700E+6
92	02/09/2022	17:12:11.761	4.63262198E-1	-6.30000000E+2	2.00000000E+0	-9.80587816E+0	7.15900700E+6
93	02/09/2022	17:12:13.308	1.74375266E+0	-6.30000000E+2	2.00000000E+0	-9.80587816E+0	7.15900700E+6
94	02/09/2022	17:12:14.688	3.77205876E+0	-6.31000000E+2	2.00000000E+0	-9.80587816E+0	7.15900700E+6
95	02/09/2022	17:12:16.147	2.00184493E-1	-6.30000000E+2	2.00000000E+0	-9.80587816E+0	7.15900700E+6
96	02/09/2022	17:12:17.648	6.17657364E+0	-6.31000000E+2	2.00000000E+0	-9.80587816E+0	7.15900700E+6
97	02/09/2022	17:12:19.029	4.53674818E+0	-6.31000000E+2	2.00000000E+0	-9.80587816E+0	7.15900700E+6
98	02/09/2022	17:12:20.601	4.63952489E+0	-6.30000000E+2	2.00000000E+0	-9.80587816E+0	7.15900700E+6
99	02/09/2022	17:12:22.015	5.89355419E+0	-6.30000000E+2	2.00000000E+0	-9.80587816E+0	7.15900700E+6
100	02/09/2022	17:12:23.412	5.39462694E+0	-6.31000000E+2	2.00000000E+0	-9.80587816E+0	7.15900700E+6
101	02/09/2022	17:12:24.875	5.89278720E+0	-6.31000000E+2	2.00000000E+0	-9.80587816E+0	7.15900700E+6
102	02/09/2022	17:12:26.267	3.99717044E+0	-6.30000000E+2	2.00000000E+0	-9.80587816E+0	7.15900700E+6
103	02/09/2022	17:12:27.788	4.44049089E+0	-6.31000000E+2	2.00000000E+0	-9.80587816E+0	7.15900700E+6
104	02/09/2022	17:12:29.265	5.27037449E+0	-6.30000000E+2	2.00000000E+0	-9.80587816E+0	7.15900700E+6
105	02/09/2022	17:12:30.649	1.34990309E+0	-6.30000000E+2	2.00000000E+0	-9.80587816E+0	7.15900700E+6
106	02/09/2022	17:12:32.197	3.12548586E+0	-6.30000000E+2	2.00000000E+0	-9.80587816E+0	7.15900700E+6
107	02/09/2022	17:12:33.593	2.67948094E+0	-6.30000000E+2	2.00000000E+0	-9.80587816E+0	7.15900700E+6
108	02/09/2022	17:12:35.054	3.56458786E+0	-6.30000000E+2	2.00000000E+0	-9.80587816E+0	7.15900700E+6
109	02/09/2022	17:12:36.536	5.94686002E+0	-6.31000000E+2	2.00000000E+0	-9.80587816E+0	7.15900700E+6
110	02/09/2022	17:12:37.929	4.58468508E+0	-6.30000000E+2	2.00000000E+0	-9.80587816E+0	7.15900700E+6
111	02/09/2022	17:12:39.358	3.88787431E+0	-6.30000000E+2	2.00000000E+0	-9.80587816E+0	7.15900700E+6
112	02/09/2022	17:12:40.742	4.77374821E+0	-6.31000000E+2	2.00000000E+0	-9.80587816E+0	7.15900700E+6
113	02/09/2022	17:12:42.111	5.63622891E+0	-6.31000000E+2	2.00000000E+0	-9.80587816E+0	7.15900700E+6
114	02/09/2022	17:12:43.645	3.89976266E+0	-6.30000000E+2	2.00000000E+0	-9.80587816E+0	7.15900700E+6
115	02/09/2022	17:12:45.026	5.22397157E+0	-6.31000000E+2	2.00000000E+0	-9.80587816E+0	7.15900700E+6
116	02/09/2022	17:12:46.457	2.88810233E+0	-6.30000000E+2	2.00000000E+0	-9.80587816E+0	7.15900700E+6
117	02/09/2022	17:12:47.827	3.24091791E+0	-6.30000000E+2	2.00000000E+0	-9.80587816E+0	7.15900700E+6
118	02/09/2022	17:12:49.201	5.53728715E+0	-6.30000000E+2	2.00000000E+0	-9.80587816E+0	7.15900700E+6
119	02/09/2022	17:12:50.711	4.76070938E+0	-6.30000000E+2	2.00000000E+0	-9.80587816E+0	7.15900700E+6
120	02/09/2022	17:12:52.097	4.39255399E+0	-6.31000000E+2	2.00000000E+0	-9.80587816E+0	7.15900700E+6
121	02/09/2022	17:12:53.538	4.67864140E-2	-6.29000000E+2	2.00000000E+0	-9.80587816E+0	7.15900700E+6
122	02/09/2022	17:12:55.053	1.99647600E+0	-6.30000000E+2	2.00000000E+0	-9.80587816E+0	7.15900700E+6
123	02/09/2022	17:12:56.435	3.89976266E+0	-6.31000000E+2	2.00000000E+0	-9.80587816E+0	7.15900700E+6
124	02/09/2022	17:12:57.963	5.34592305E+0	-6.30000000E+2	2.00000000E+0	-9.80587816E+0	7.15900700E+6
125	02/09/2022	17:12:59.357	4.09956366E+0	-6.31000000E+2	2.00000000E+0	-9.80587816E+0	7.15900700E+6
126	02/09/2022	17:13:00.748	5.90122409E+0	-6.30000000E+2	2.00000000E+0	-9.80587816E+0	7.15900700E+6
127	02/09/2022	17:13:02.270	4.71814141E+0	-6.31000000E+2	2.00000000E+0	-9.80587816E+0	7.15900700E+6
128	02/09/2022	17:13:03.634	1.31960697E+0	-6.30000000E+2	2.00000000E+0	-9.80587816E+0	7.15900700E+6
129	02/09/2022	17:13:05.101	5.05446670E+0	-6.31000000E+2	2.00000000E+0	-9.80587816E+0	7.15900700E+6
130	02/09/2022	17:13:06.611	4.17511221E+0	-6.31000000E+2	2.00000000E+0	-9.80587816E+0	7.15900700E+6
131	02/09/2022	17:13:08.030	4.88649580E+0	-6.31000000E+2	2.00000000E+0	-9.80587816E+0	7.15900700E+6
132	02/09/2022	17:13:09.494	1.00897586E+0	-6.30000000E+2	2.00000000E+0	-9.80587816E+0	7.15900700E+6
133	02/09/2022	17:13:10.919	5.10662204E+0	-6.30000000E+2	2.00000000E+0	-9.80587816E+0	7.15900700E+6
134	02/09/2022	17:13:12.313	3.32873831E+0	-6.31000000E+2	2.00000000E+0	-9.80587816E+0	7.15900700E+6
135	02/09/2022	17:13:13.872	8.23364188E-1	-6.30000000E+2	2.00000000E+0	-9.80587816E+0	7.15900700E+6
136	02/09/2022	17:13:15.247	4.54940352E+0	-6.30000000E+2	2.00000000E+0	-9.80587816E+0	7.15900700E+6
137	02/09/2022	17:13:16.625	2.33932070E-2	-6.29000000E+2	2.00000000E+0	-9.80587816E+0	7.15900700E+6
138	02/09/2022	17:13:18.034	5.48321433E+0	-6.30000000E+2	2.00000000E+0	-9.80587816E+0	7.15900700E+6
139	02/09/2022	17:13:19.442	1.64941284E+0	-6.30000000E+2	2.00000000E+0	-9.80587816E+0	7.15900700E+6
140	02/09/2022	17:13:20.972	1.23408754E+0	-6.30000000E+2	2.00000000E+0	-9.80587816E+0	7.15900700E+6
141	02/09/2022	17:13:22.361	1.86340316E+0	-6.30000000E+2	2.00000000E+0	-9.80587816E+0	7.15900700E+6
142	02/09/2022	17:13:23.743	5.86517554E+0	-6.30000000E+2	2.00000000E+0	-9.80587816E+0	7.15900700E+6
143	02/09/2022	17:13:25.255	2.94140816E+0	-6.30000000E+2	2.00000000E+0	-9.80587816E+0	7.15900700E+6
144	02/09/2022	17:13:26.654	4.22074814E+0	-6.30000000E+2	2.00000000E+0	-9.80587816E+0	7.15900700E+6
145	02/09/2022	17:13:28.156	2.29023332E+0	-6.30000000E+2	2.00000000E+0	-9.80587816E+0	7.15900700E+6
146	02/09/2022	17:13:29.549	1.10216520E+0	-6.30000000E+2	2.00000000E+0	-9.80587816E+0	7.15900700E+6
147	02/09/2022	17:13:30.915	2.18668961E+0	-6.30000000E+2	2.00000000E+0	-9.80587816E+0	7.15900700E+6
148	02/09/2022	17:13:32.441	8.14160303E-1	-6.30000000E+2	2.00000000E+0	-9.80587816E+0	7.15900700E+6
149	02/09/2022	17:13:33.810	5.24007837E+0	-6.31000000E+2	2.00000000E+0	-9.80587816E+0	7.15900700E+6
150	02/09/2022	17:13:35.227	2.24728185E-1	-6.30000000E+2	2.00000000E+0	-9.80587816E+0	7.15900700E+6
151	02/09/2022	17:13:36.722	4.63914140E+0	-6.31000000E+2	2.00000000E+0	-9.80587816E+0	7.15900700E+6
152	02/09/2022	17:13:38.095	3.31800044E+0	-6.31000000E+2	2.00000000E+0	-9.80587816E+0	7.15900700E+6
153	02/09/2022	17:13:39.647	5.42262209E-1	-6.30000000E+2	2.00000000E+0	-9.80587816E+0	7.15900700E+6
154	02/09/2022	17:13:41.023	3.07409750E+0	-6.30000000E+2	2.00000000E+0	-9.80587816E+0	7.15900700E+6
155	02/09/2022	17:13:42.437	3.59756844E+0	-6.30000000E+2	2.00000000E+0	-9.80587816E+0	7.15900700E+6
156	02/09/2022	17:13:43.937	6.13553966E+0	-6.31000000E+2	2.00000000E+0	-9.80587816E+0	7.15900700E+6
157	02/09/2022	17:13:45.325	5.00844727E+0	-6.30000000E+2	2.00000000E+0	-9.80587816E+0	7.15900700E+6
158	02/09/2022	17:13:46.876	4.84546181E+0	-6.30000000E+2	2.00000000E+0	-9.80587816E+0	7.15900700E+6
159	02/09/2022	17:13:48.271	3.27121403E-1	-6.30000000E+2	2.00000000E+0	-9.80587816E+0	7.15900700E+6
160	02/09/2022	17:13:49.635	4.38641806E+0	-6.31000000E+2	2.00000000E+0	-9.80587816E+0	7.15900700E+6
161	02/09/2022	17:13:51.150	2.76001493E+0	-6.30000000E+2	2.00000000E+0	-9.80587816E+0	7.15900700E+6
162	02/09/2022	17:13:52.540	4.06658307E+0	-6.30000000E+2	2.00000000E+0	-9.80587816E+0	7.15900700E+6
163	02/09/2022	17:13:54.035	4.84277735E+0	-6.30000000E+2	2.00000000E+0	-9.80587816E+0	7.15900700E+6
164	02/09/2022	17:13:55.548	5.15877739E+0	-6.30000000E+2	2.00000000E+0	-9.80587816E+0	7.15900700E+6
165	02/09/2022	17:13:56.944	1.07071859E+0	-6.30000000E+2	2.00000000E+0	-9.80587816E+0	7.15900700E+6
166	02/09/2022	17:13:58.403	8.78587496E-1	-6.30000000E+2	2.00000000E+0	-9.80587816E+0	7.15900700E+6
167	02/09/2022	17:13:59.793	3.97224325E+0	-6.30000000E+2	2.00000000E+0	-9.80587816E+0	7.15900700E+6
168	02/09/2022	17:14:01.163	1.99685949E+0	-6.30000000E+2	2.00000000E+0	-9.80587816E+0	7.15900700E+6
169	02/09/2022	17:14:02.697	3.59296650E+0	-6.30000000E+2	2.00000000E+0	-9.80587816E+0	7.15900700E+6
170	02/09/2022	17:14:04.084	7.59320490E-1	-6.30000000E+2	2.00000000E+0	-9.80587816E+0	7.15900700E+6
171	02/09/2022	17:14:05.553	4.06735006E+0	-6.31000000E+2	2.00000000E+0	-9.80587816E+0	7.15900700E+6
172	02/09/2022	17:14:06.902	5.10470457E+0	-6.30000000E+2	2.00000000E+0	-9.80587816E+0	7.15900700E+6
173	02/09/2022	17:14:08.283	3.42844706E-1	-6.30000000E+2	2.00000000E+0	-9.80587816E+0	7.15900700E+6
174	02/09/2022	17:14:09.787	1.50215069E+0	-6.30000000E+2	2.00000000E+0	-9.80587816E+0	7.15900700E+6
175	02/09/2022	17:14:11.196	3.41080628E+0	-6.30000000E+2	2.00000000E+0	-9.80587816E+0	7.15900700E+6
176	02/09/2022	17:14:12.573	1.03812150E+0	-6.30000000E+2	2.00000000E+0	-9.80587816E+0	7.15900700E+6
177	02/09/2022	17:14:14.147	2.27834497E+0	-6.30000000E+2	2.00000000E+0	-9.80587816E+0	7.15900700E+6
178	02/09/2022	17:14:15.512	1.72189343E+0	-6.30000000E+2	2.00000000E+0	-9.80587816E+0	7.15900700E+6
179	02/09/2022	17:14:17.037	3.12701984E+0	-6.30000000E+2	2.00000000E+0	-9.80587816E+0	7.15900700E+6
180	02/09/2022	17:14:18.427	5.05868514E+0	-6.31000000E+2	2.00000000E+0	-9.80587816E+0	7.15900700E+6
181	02/09/2022	17:14:19.789	4.03973840E+0	-6.31000000E+2	2.00000000E+0	-9.80587816E+0	7.15900700E+6
182	02/09/2022	17:14:21.268	5.82529204E+0	-6.30000000E+2	2.00000000E+0	-9.80587816E+0	7.15900700E+6
183	02/09/2022	17:14:22.678	3.10861207E+0	-6.30000000E+2	2.00000000E+0	-9.80587816E+0	7.15900700E+6
184	02/09/2022	17:14:24.061	5.10738903E+0	-6.30000000E+2	2.00000000E+0	-9.80587816E+0	7.15900700E+6
185	02/09/2022	17:14:25.563	5.97025323E+0	-6.30000000E+2	2.00000000E+0	-9.80587816E+0	7.15900700E+6
186	02/09/2022	17:14:26.956	4.47538895E+0	-6.31000000E+2	2.00000000E+0	-9.80587816E+0	7.15900700E+6
187	02/09/2022	17:14:28.446	1.90865560E+0	-6.30000000E+2	2.00000000E+0	-9.80587816E+0	7.15900700E+6
188	02/09/2022	17:14:29.812	2.65301977E+0	-6.30000000E+2	2.00000000E+0	-9.80587816E+0	7.15900700E+6
189	02/09/2022	17:14:31.208	2.98244215E+0	-6.30000000E+2	2.00000000E+0	-9.80587816E+0	7.15900700E+6
190	02/09/2022	17:14:32.693	1.29467978E+0	-6.30000000E+2	2.00000000E+0	-9.80587816E+0	7.15900700E+6
191	02/09/2022	17:14:34.088	4.17012677E+0	-6.30000000E+2	2.00000000E+0	-9.80587816E+0	7.15900700E+6
192	02/09/2022	17:14:35.476	5.40689878E+0	-6.31000000E+2	2.00000000E+0	-9.80587816E+0	7.15900700E+6
193	02/09/2022	17:14:36.892	5.69682115E+0	-6.31000000E+2	2.00000000E+0	-9.80587816E+0	7.15900700E+6
194	02/09/2022	17:14:38.260	5.80343282E+0	-6.31000000E+2	2.00000000E+0	-9.80587816E+0	7.15900700E+6
195	02/09/2022	17:14:39.727	3.37475773E+0	-6.31000000E+2	2.00000000E+0	-9.80587816E+0	7.15900700E+6
196	02/09/2022	17:14:41.124	5.23662691E+0	-6.30000000E+2	2.00000000E+0	-9.80587816E+0	7.15900700E+6
197	02/09/2022	17:14:42.583	5.01266572E+0	-6.30000000E+2	2.00000000E+0	-9.80587816E+0	7.15900700E+6
198	02/09/2022	17:14:44.072	2.97592273E-1	-6.30000000E+2	2.00000000E+0	-9.80587816E+0	7.15900700E+6
199	02/09/2022	17:14:45.469	1.36524290E-1	-6.30000000E+2	2.00000000E+0	-9.80587816E+0	7.15900700E+6
200	02/09/2022	17:14:46.951	2.66644210E+0	-6.30000000E+2	2.00000000E+0	-9.80587816E+0	7.15900700E+6
201	02/09/2022	17:14:48.332	5.69183571E+0	-6.30000000E+2	2.00000000E+0	-9.80587816E+0	7.15900700E+6
202	02/09/2022	17:14:49.744	5.60669978E-1	-6.29000000E+2	2.00000000E+0	-9.80587816E+0	7.15900700E+6
203	02/09/2022	17:14:51.208	3.96073839E+0	-6.30000000E+2	2.00000000E+0	-9.80587816E+0	7.15900700E+6
204	02/09/2022	17:14:52.602	1.09487879E+0	-6.30000000E+2	2.00000000E+0	-9.80587816E+0	7.15900700E+6
205	02/09/2022	17:14:53.987	6.01665615E+0	-6.30000000E+2	2.00000000E+0	-9.80587816E+0	7.15900700E+6
206	02/09/2022	17:14:55.472	5.33096673E+0	-6.31000000E+2	2.00000000E+0	-9.80587816E+0	7.15900700E+6
207	02/09/2022	17:14:56.832	4.24605882E+0	-6.31000000E+2	2.00000000E+0	-9.80587816E+0	7.15900700E+6
208	02/09/2022	17:14:58.325	4.64949577E+0	-6.30000000E+2	2.00000000E+0	-9.80587816E+0	7.15900700E+6
209	02/09/2022	17:14:59.726	4.85006376E+0	-6.30000000E+2	2.00000000E+0	-9.80587816E+0	7.15900700E+6
210	02/09/2022	17:15:01.116	2.11689349E-1	-6.30000000E+2	2.00000000E+0	-9.80587816E+0	7.15900700E+6
211	02/09/2022	17:15:02.627	4.88151036E+0	-6.31000000E+2	2.00000000E+0	-9.80587816E+0	7.15900700E+6
212	02/09/2022	17:15:04.013	2.17441777E+0	-6.30000000E+2	2.00000000E+0	-9.80587816E+0	7.15900700E+6
213	02/09/2022	17:15:05.504	4.28517533E+0	-6.31000000E+2	2.00000000E+0	-9.80587816E+0	7.15900700E+6
214	02/09/2022	17:15:06.942	5.86632603E+0	-6.30000000E+2	2.00000000E+0	-9.80587816E+0	7.15900700E+6
215	02/09/2022	17:15:08.338	5.00652980E+0	-6.31000000E+2	2.00000000E+0	-9.80587816E+0	7.15900700E+6
216	02/09/2022	17:15:09.853	3.52930630E+0	-6.30000000E+2	2.00000000E+0	-9.80587816E+0	7.15900700E+6
217	02/09/2022	17:15:11.239	4.29821417E+0	-6.30000000E+2	2.00000000E+0	-9.80587816E+0	7.15900700E+6
218	02/09/2022	17:15:12.651	4.83664142E+0	-6.30000000E+2	2.00000000E+0	-9.80587816E+0	7.15900700E+6
219	02/09/2022	17:15:14.161	1.58536914E+0	-6.30000000E+2	2.00000000E+0	-9.80587816E+0	7.15900700E+6
220	02/09/2022	17:15:15.541	3.49747620E+0	-6.31000000E+2	2.00000000E+0	-9.80587816E+0	7.15900700E+6
221	02/09/2022	17:15:17.002	4.15593745E+0	-6.31000000E+2	2.00000000E+0	-9.80587816E+0	7.15900700E+6
222	02/09/2022	17:15:18.394	2.78417513E-1	-6.29000000E+2	2.00000000E+0	-9.80587816E+0	7.15900700E+6
223	02/09/2022	17:15:19.773	1.92322841E+0	-6.30000000E+2	2.00000000E+0	-9.80587816E+0	7.15900700E+6
224	02/09/2022	17:15:21.352	5.08054437E+0	-6.30000000E+2	2.00000000E+0	-9.80587816E+0	7.15900700E+6
225	02/09/2022	17:15:22.734	4.94517056E+0	-6.30000000E+2	2.00000000E+0	-9.80587816E+0	7.15900700E+6
226	02/09/2022	17:15:24.139	4.19160250E-1	-6.29000000E+2	2.00000000E+0	-9.80587816E+0	7.15900700E+6
227	02/09/2022	17:15:25.517	3.40658783E+0	-6.30000000E+2	2.00000000E+0	-9.80587816E+0	7.15900700E+6
228	02/09/2022	17:15:26.903	4.75840840E+0	-6.31000000E+2	2.00000000E+0	-9.80587816E+0	7.15900700E+6
229	02/09/2022	17:15:28.456	6.22911248E+0	-6.31000000E+2	2.00000000E+0	-9.80587816E+0	7.15900700E+6
230	02/09/2022	17:15:29.832	1.77558276E+0	-6.30000000E+2	2.00000000E+0	-9.80587816E+0	7.15900700E+6
231	02/09/2022	17:15:31.274	6.13055422E+0	-6.31000000E+2	2.00000000E+0	-9.80587816E+0	7.15900700E+6
232	02/09/2022	17:15:32.788	4.20502483E+0	-6.31000000E+2	2.00000000E+0	-9.80587816E+0	7.15900700E+6
233	02/09/2022	17:15:34.177	5.36318033E+0	-6.30000000E+2	2.00000000E+0	-9.80587816E+0	7.15900700E+6
234	02/09/2022	17:15:35.726	4.31317048E+0	-6.30000000E+2	2.00000000E+0	-9.80587816E+0	7.15900700E+6
235	02/09/2022	17:15:37.104	4.60270935E+0	-6.30000000E+2	2.00000000E+0	-9.80587816E+0	7.15900700E+6
236	02/09/2022	17:15:38.500	4.54058313E-1	-6.30000000E+2	2.00000000E+0	-9.80587816E+0	7.15900700E+6
237	02/09/2022	17:15:40.015	4.92484532E+0	-6.30000000E+2	2.00000000E+0	-9.80587816E+0	7.15900700E+6
238	02/09/2022	17:15:41.380	4.98812203E+0	-6.30000000E+2	2.00000000E+0	-9.80587816E+0	7.15900700E+6
239	02/09/2022	17:15:42.771	3.85029178E-1	-6.30000000E+2	2.00000000E+0	-9.80587816E+0	7.15900700E+6
240	02/09/2022	17:15:44.267	6.24943773E+0	-6.30000000E+2	2.00000000E+0	-9.80587816E+0	7.15900700E+6
241	02/09/2022	17:15:45.658	4.96204435E+0	-6.31000000E+2	2.00000000E+0	-9.80587816E+0	7.15900700E+6
242	02/09/2022	17:15:47.218	2.81753921E+0	-6.30000000E+2	2.00000000E+0	-9.80587816E+0	7.15900700E+6
243	02/09/2022	17:15:48.616	3.28271889E+0	-6.31000000E+2	2.00000000E+0	-9.80587816E+0	7.15900700E+6
244	02/09/2022	17:15:49.998	2.66644210E+0	-6.30000000E+2	2.00000000E+0	-9.80587816E+0	7.15900700E+6
245	02/09/2022	17:15:51.503	1.71920897E+0	-6.30000000E+2	2.00000000E+0	-9.80587816E+0	7.15900700E+6
246	02/09/2022	17:15:52.900	5.25541818E+0	-6.31000000E+2	2.00000000E+0	-9.80587816E+0	7.15900700E+6
247	02/09/2022	17:15:54.330	6.13592315E+0	-6.31000000E+2	2.00000000E+0	-9.80587816E+0	7.15900700E+6
248	02/09/2022	17:15:55.671	5.43374345E+0	-6.30000000E+2	2.00000000E+0	-9.80587816E+0	7.15900700E+6
249	02/09/2022	17:15:57.054	5.96680177E+0	-6.31000000E+2	2.00000000E+0	-9.80587816E+0	7.15900700E+6
250	02/09/2022	17:15:58.603	5.26423857E+0	-6.31000000E+2	2.00000000E+0	-9.80587816E+0	7.15900700E+6
251	02/09/2022	17:15:59.986	6.04656877E+0	-6.31000000E+2	2.00000000E+0	-9.80587816E+0	7.15900700E+6
252	02/09/2022	17:16:01.396	2.52033043E+0	-6.31000000E+2	2.00000000E+0	-9.80587816E+0	7.15900700E+6
253	02/09/2022	17:16:02.907	6.03583091E+0	-6.31000000E+2	2.00000000E+0	-9.80587816E+0	7.15900700E+6
254	02/09/2022	17:16:04.319	3.93082577E+0	-6.31000000E+2	2.00000000E+0	-9.80587816E+0	7.15900700E+6
255	02/09/2022	17:16:05.823	3.93504422E+0	-6.31000000E+2	2.00000000E+0	-9.80587816E+0	7.15900700E+6
256	02/09/2022	17:16:07.191	4.20003940E+0	-6.31000000E+2	2.00000000E+0	-9.80587816E+0	7.15900700E+6
257	02/09/2022	17:16:08.592	1.57616526E-1	-6.30000000E+2	2.00000000E+0	-9.80587816E+0	7.15900700E+6
258	02/09/2022	17:16:10.061	4.04510734E+0	-6.31000000E+2	2.00000000E+0	-9.80587816E+0	7.15900700E+6
259	02/09/2022	17:16:11.453	2.40451489E-1	-6.29000000E+2	2.00000000E+0	-9.80587816E+0	7.15900700E+6
260	02/09/2022	17:16:12.866	6.02087459E+0	-6.30000000E+2	2.00000000E+0	-9.80587816E+0	7.15900700E+6
261	02/09/2022	17:16:14.374	5.29223372E-2	-6.29000000E+2	2.00000000E+0	-9.80587816E+0	7.15900700E+6
262	02/09/2022	17:16:15.778	3.49747620E+0	-6.30000000E+2	2.00000000E+0	-9.80587816E+0	7.15900700E+6
263	02/09/2022	17:16:17.265	4.04280637E+0	-6.31000000E+2	2.00000000E+0	-9.80587816E+0	7.15900700E+6
264	02/09/2022	17:16:18.674	1.32190794E+0	-6.30000000E+2	2.00000000E+0	-9.80587816E+0	7.15900700E+6
265	02/09/2022	17:16:20.053	4.62993751E+0	-6.31000000E+2	2.00000000E+0	-9.80587816E+0	7.15900700E+6
266	02/09/2022	17:16:21.530	5.04602980E+0	-6.30000000E+2	2.00000000E+0	-9.80587816E+0	7.15900700E+6
267	02/09/2022	17:16:22.898	3.49057328E+0	-6.30000000E+2	2.00000000E+0	-9.80587816E+0	7.15900700E+6
268	02/09/2022	17:16:24.450	5.14382108E+0	-6.30000000E+2	2.00000000E+0	-9.80587816E+0	7.15900700E+6
269	02/09/2022	17:16:25.850	4.97316571E+0	-6.31000000E+2	2.00000000E+0	-9.80587816E+0	7.15900700E+6
270	02/09/2022	17:16:27.248	1.76714587E+0	-6.30000000E+2	2.00000000E+0	-9.80587816E+0	7.15900700E+6
271	02/09/2022	17:16:28.728	4.95974338E+0	-6.31000000E+2	2.00000000E+0	-9.80587816E+0	7.15900700E+6
272	02/09/2022	17:16:30.125	2.31592749E+0	-6.30000000E+2	2.00000000E+0	-9.80587816E+0	7.15900700E+6
273	02/09/2022	17:16:31.511	5.20671429E+0	-6.31000000E+2	2.00000000E+0	-9.80587816E+0	7.15900700E+6
274	02/09/2022	17:16:33.008	5.04718029E+0	-6.31000000E+2	2.00000000E+0	-9.80587816E+0	7.15900700E+6
275	02/09/2022	17:16:34.392	1.38901960E+0	-6.30000000E+2	2.00000000E+0	-9.80587816E+0	7.15900700E+6
276	02/09/2022	17:16:35.813	5.53498618E+0	-6.30000000E+2	2.00000000E+0	-9.80587816E+0	7.15900700E+6
277	02/09/2022	17:16:37.243	1.28164095E+0	-6.30000000E+2	2.00000000E+0	-9.80587816E+0	7.15900700E+6
278	02/09/2022	17:16:38.637	4.54518507E+0	-6.30000000E+2	2.00000000E+0	-9.80587816E+0	7.15900700E+6
279	02/09/2022	17:16:40.208	1.26323318E+0	-6.30000000E+2	2.00000000E+0	-9.80587816E+0	7.15900700E+6
280	02/09/2022	17:16:41.595	3.19834994E-1	-6.30000000E+2	2.00000000E+0	-9.80587816E+0	7.15900700E+6
281	02/09/2022	17:16:43.022	5.78962699E+0	-6.30000000E+2	2.00000000E+0	-9.80587816E+0	7.15900700E+6
282	02/09/2022	17:16:44.420	5.26769003E+0	-6.31000000E+2	2.00000000E+0	-9.80587816E+0	7.15900700E+6
283	02/09/2022	17:16:45.800	3.37552472E+0	-6.30000000E+2	2.00000000E+0	-9.80587816E+0	7.15900700E+6
284	02/09/2022	17:16:47.301	1.73531577E+0	-6.30000000E+2	2.00000000E+0	-9.80587816E+0	7.15900700E+6
285	02/09/2022	17:16:48.690	4.52984527E+0	-6.30000000E+2	2.00000000E+0	-9.80587816E+0	7.15900700E+6
286	02/09/2022	17:16:50.136	3.67350049E+0	-6.30000000E+2	2.00000000E+0	-9.80587816E+0	7.15900700E+6
287	02/09/2022	17:16:51.638	3.08215090E+0	-6.30000000E+2	2.00000000E+0	-9.80587816E+0	7.15900700E+6
288	02/09/2022	17:16:53.035	4.81094725E+0	-6.31000000E+2	2.00000000E+0	-9.80587816E+0	7.15900700E+6
289	02/09/2022	17:16:54.500	4.48651031E+0	-6.31000000E+2	2.00000000E+0	-9.80587816E+0	7.15900700E+6
290	02/09/2022	17:16:55.915	5.06098611E+0	-6.31000000E+2	2.00000000E+0	-9.80587816E+0	7.15900700E+6
291	02/09/2022	17:16:57.308	4.76416083E+0	-6.30000000E+2	2.00000000E+0	-9.80587816E+0	7.15900700E+6
292	02/09/2022	17:16:58.867	1.92898084E+0	-6.30000000E+2	2.00000000E+0	-9.80587816E+0	7.15900700E+6
293	02/09/2022	17:17:00.268	5.98099109E+0	-6.30000000E+2	2.00000000E+0	-9.80587816E+0	7.15900700E+6
294	02/09/2022	17:17:01.675	2.73585474E+0	-6.30000000E+2	2.00000000E+0	-9.80587816E+0	7.15900700E+6
295	02/09/2022	17:17:03.182	2.61658773E+0	-6.30000000E+2	2.00000000E+0	-9.80587816E+0	7.15900700E+6
296	02/09/2022	17:17:04.566	3.93581121E+0	-6.30000000E+2	2.00000000E+0	-9.80587816E+0	7.15900700E+6
297	02/09/2022	17:17:06.073	2.90766058E+0	-6.30000000E+2	2.00000000E+0	-9.80587816E+0	7.15900700E+6
298	02/09/2022	17:17:07.458	3.69996166E+0	-6.31000000E+2	2.00000000E+0	-9.80587816E+0	7.15900700E+6
299	02/09/2022	17:17:08.853	3.78778206E+0	-6.30000000E+2	2.00000000E+0	-9.80587816E+0	7.15900700E+6
300	02/09/2022	17:17:10.370	5.65425318E+0	-6.31000000E+2	2.00000000E+0	-9.80587816E+0	7.15900700E+6
301	02/09/2022	17:17:11.767	5.19137448E+0	-6.30000000E+2	2.00000000E+0	-9.80587816E+0	7.15900700E+6
