#Iteration	Date	Time	STSX	STSY	RotationRateX	RotationRateY	FrCntX	FrCntY	TiptiltCmd1	TiptiltCmd2	TiptiltMonitor1	TiptiltMonitor2
1	02/09/2022	17:10:01.415	0.00000E+0	0.00000E+0	0.00000E+0	0.00000E+0	0.00000E+0	0.00000E+0	2.00000E+1	1.40000E+1	2.00017E+1	1.39999E+1
2	02/09/2022	17:10:02.816	0.00000E+0	0.00000E+0	0.00000E+0	0.00000E+0	0.00000E+0	0.00000E+0	2.00000E+1	1.40000E+1	2.00003E+1	1.40018E+1
3	02/09/2022	17:10:04.206	0.00000E+0	0.00000E+0	0.00000E+0	0.00000E+0	0.00000E+0	0.00000E+0	2.00000E+1	1.40000E+1	2.00002E+1	1.40009E+1
4	02/09/2022	17:10:05.809	0.00000E+0	0.00000E+0	0.00000E+0	0.00000E+0	0.00000E+0	0.00000E+0	2.00000E+1	1.40000E+1	2.00025E+1	1.39994E+1
5	02/09/2022	17:10:07.212	0.00000E+0	0.00000E+0	0.00000E+0	0.00000E+0	0.00000E+0	0.00000E+0	2.00000E+1	1.40000E+1	2.00006E+1	1.39993E+1
6	02/09/2022	17:10:08.594	0.00000E+0	0.00000E+0	0.00000E+0	0.00000E+0	0.00000E+0	0.00000E+0	2.00000E+1	1.40000E+1	1.99997E+1	1.39996E+1
7	02/09/2022	17:10:09.989	0.00000E+0	0.00000E+0	0.00000E+0	0.00000E+0	0.00000E+0	0.00000E+0	2.00000E+1	1.40000E+1	1.99996E+1	1.39992E+1
8	02/09/2022	17:10:11.371	0.00000E+0	0.00000E+0	0.00000E+0	0.00000E+0	0.00000E+0	0.00000E+0	2.00000E+1	1.40000E+1	1.99992E+1	1.40006E+1
9	02/09/2022	17:10:12.978	0.00000E+0	0.00000E+0	0.00000E+0	0.00000E+0	0.00000E+0	0.00000E+0	2.00000E+1	1.40000E+1	2.00017E+1	1.40011E+1
10	02/09/2022	17:10:14.389	0.00000E+0	0.00000E+0	0.00000E+0	0.00000E+0	0.00000E+0	0.00000E+0	2.00000E+1	1.40000E+1	1.99979E+1	1.40017E+1
11	02/09/2022	17:10:15.861	0.00000E+0	0.00000E+0	0.00000E+0	0.00000E+0	0.00000E+0	0.00000E+0	2.00000E+1	1.40000E+1	2.00008E+1	1.40014E+1
12	02/09/2022	17:10:17.392	0.00000E+0	0.00000E+0	0.00000E+0	0.00000E+0	0.00000E+0	0.00000E+0	2.00000E+1	1.40000E+1	1.99991E+1	1.40007E+1
13	02/09/2022	17:10:18.760	0.00000E+0	0.00000E+0	0.00000E+0	0.00000E+0	0.00000E+0	0.00000E+0	2.00000E+1	1.40000E+1	1.99989E+1	1.40001E+1
14	02/09/2022	17:10:20.218	0.00000E+0	0.00000E+0	0.00000E+0	0.00000E+0	0.00000E+0	0.00000E+0	2.00000E+1	1.40000E+1	1.99996E+1	1.39974E+1
15	02/09/2022	17:10:21.671	0.00000E+0	0.00000E+0	0.00000E+0	0.00000E+0	0.00000E+0	0.00000E+0	2.00000E+1	1.40000E+1	1.99991E+1	1.40013E+1
16	02/09/2022	17:10:23.043	0.00000E+0	0.00000E+0	0.00000E+0	0.00000E+0	0.00000E+0	0.00000E+0	2.00000E+1	1.40000E+1	1.99998E+1	1.40009E+1
17	02/09/2022	17:10:24.552	0.00000E+0	0.00000E+0	0.00000E+0	0.00000E+0	0.00000E+0	0.00000E+0	2.00000E+1	1.40000E+1	1.99990E+1	1.39984E+1
18	02/09/2022	17:10:25.932	0.00000E+0	0.00000E+0	0.00000E+0	0.00000E+0	0.00000E+0	0.00000E+0	2.00000E+1	1.40000E+1	2.00011E+1	1.39993E+1
19	02/09/2022	17:10:27.318	0.00000E+0	0.00000E+0	0.00000E+0	0.00000E+0	0.00000E+0	0.00000E+0	2.00000E+1	1.40000E+1	1.99977E+1	1.40003E+1
20	02/09/2022	17:10:28.826	0.00000E+0	0.00000E+0	0.00000E+0	0.00000E+0	0.00000E+0	0.00000E+0	2.00000E+1	1.40000E+1	1.99993E+1	1.39995E+1
21	02/09/2022	17:10:30.223	0.00000E+0	0.00000E+0	0.00000E+0	0.00000E+0	0.00000E+0	0.00000E+0	2.00000E+1	1.40000E+1	2.00018E+1	1.39982E+1
22	02/09/2022	17:10:31.650	0.00000E+0	0.00000E+0	0.00000E+0	0.00000E+0	0.00000E+0	0.00000E+0	2.00000E+1	1.40000E+1	1.99999E+1	1.39981E+1
23	02/09/2022	17:10:33.021	0.00000E+0	0.00000E+0	0.00000E+0	0.00000E+0	0.00000E+0	0.00000E+0	2.00000E+1	1.40000E+1	2.00012E+1	1.39999E+1
24	02/09/2022	17:10:34.461	0.00000E+0	0.00000E+0	0.00000E+0	0.00000E+0	0.00000E+0	0.00000E+0	2.00000E+1	1.40000E+1	2.00013E+1	1.40014E+1
25	02/09/2022	17:10:35.938	0.00000E+0	0.00000E+0	0.00000E+0	0.00000E+0	0.00000E+0	0.00000E+0	2.00000E+1	1.40000E+1	1.99972E+1	1.39995E+1
26	02/09/2022	17:10:37.318	0.00000E+0	0.00000E+0	0.00000E+0	0.00000E+0	0.00000E+0	0.00000E+0	2.00000E+1	1.40000E+1	1.99997E+1	1.40001E+1
27	02/09/2022	17:10:38.701	0.00000E+0	0.00000E+0	0.00000E+0	0.00000E+0	0.00000E+0	0.00000E+0	2.00000E+1	1.40000E+1	2.00009E+1	1.39989E+1
28	02/09/2022	17:10:40.090	0.00000E+0	0.00000E+0	0.00000E+0	0.00000E+0	0.00000E+0	0.00000E+0	2.00000E+1	1.40000E+1	2.00014E+1	1.40013E+1
29	02/09/2022	17:10:41.473	0.00000E+0	0.00000E+0	0.00000E+0	0.00000E+0	0.00000E+0	0.00000E+0	2.00000E+1	1.40000E+1	1.99998E+1	1.39996E+1
30	02/09/2022	17:10:43.007	0.00000E+0	0.00000E+0	0.00000E+0	0.00000E+0	0.00000E+0	0.00000E+0	2.00000E+1	1.40000E+1	1.99984E+1	1.39996E+1
31	02/09/2022	17:10:44.418	0.00000E+0	0.00000E+0	0.00000E+0	0.00000E+0	0.00000E+0	0.00000E+0	2.00000E+1	1.40000E+1	2.00003E+1	1.39988E+1
32	02/09/2022	17:10:45.884	0.00000E+0	0.00000E+0	0.00000E+0	0.00000E+0	0.00000E+0	0.00000E+0	2.00000E+1	1.40000E+1	1.99985E+1	1.39986E+1
33	02/09/2022	17:10:47.363	0.00000E+0	0.00000E+0	0.00000E+0	0.00000E+0	0.00000E+0	0.00000E+0	2.00000E+1	1.40000E+1	1.99998E+1	1.40005E+1
34	02/09/2022	17:10:48.746	0.00000E+0	0.00000E+0	0.00000E+0	0.00000E+0	0.00000E+0	0.00000E+0	2.00000E+1	1.40000E+1	1.99973E+1	1.40002E+1
35	02/09/2022	17:10:50.294	0.00000E+0	0.00000E+0	0.00000E+0	0.00000E+0	0.00000E+0	0.00000E+0	2.00000E+1	1.40000E+1	2.00007E+1	1.39995E+1
36	02/09/2022	17:10:51.669	0.00000E+0	0.00000E+0	0.00000E+0	0.00000E+0	0.00000E+0	0.00000E+0	2.00000E+1	1.40000E+1	2.00006E+1	1.40023E+1
37	02/09/2022	17:10:53.057	0.00000E+0	0.00000E+0	0.00000E+0	0.00000E+0	0.00000E+0	0.00000E+0	2.00000E+1	1.40000E+1	2.00009E+1	1.39996E+1
38	02/09/2022	17:10:54.551	0.00000E+0	0.00000E+0	0.00000E+0	0.00000E+0	0.00000E+0	0.00000E+0	2.00000E+1	1.40000E+1	2.00006E+1	1.40014E+1
39	02/09/2022	17:10:55.924	0.00000E+0	0.00000E+0	0.00000E+0	0.00000E+0	0.00000E+0	0.00000E+0	2.00000E+1	1.40000E+1	1.99999E+1	1.39974E+1
40	02/09/2022	17:10:57.400	0.00000E+0	0.00000E+0	0.00000E+0	0.00000E+0	0.00000E+0	0.00000E+0	2.00000E+1	1.40000E+1	2.00026E+1	1.39982E+1
41	02/09/2022	17:10:58.909	0.00000E+0	0.00000E+0	0.00000E+0	0.00000E+0	0.00000E+0	0.00000E+0	2.00000E+1	1.40000E+1	2.00038E+1	1.40022E+1
42	02/09/2022	17:11:00.292	0.00000E+0	0.00000E+0	0.00000E+0	0.00000E+0	0.00000E+0	0.00000E+0	2.00000E+1	1.40000E+1	1.99982E+1	1.39984E+1
43	02/09/2022	17:11:01.765	0.00000E+0	0.00000E+0	0.00000E+0	0.00000E+0	0.00000E+0	0.00000E+0	2.00000E+1	1.40000E+1	1.99993E+1	1.40002E+1
44	02/09/2022	17:11:03.155	0.00000E+0	0.00000E+0	0.00000E+0	0.00000E+0	0.00000E+0	0.00000E+0	2.00000E+1	1.40000E+1	2.00000E+1	1.40017E+1
45	02/09/2022	17:11:04.552	0.00000E+0	0.00000E+0	0.00000E+0	0.00000E+0	0.00000E+0	0.00000E+0	2.00000E+1	1.40000E+1	2.00006E+1	1.40019E+1
46	02/09/2022	17:11:06.013	0.00000E+0	0.00000E+0	0.00000E+0	0.00000E+0	0.00000E+0	0.00000E+0	2.00000E+1	1.40000E+1	1.99991E+1	1.40028E+1
47	02/09/2022	17:11:07.445	0.00000E+0	0.00000E+0	0.00000E+0	0.00000E+0	0.00000E+0	0.00000E+0	2.00000E+1	1.40000E+1	2.00001E+1	1.40010E+1
48	02/09/2022	17:11:08.904	0.00000E+0	0.00000E+0	0.00000E+0	0.00000E+0	0.00000E+0	0.00000E+0	2.00000E+1	1.40000E+1	2.00012E+1	1.39982E+1
49	02/09/2022	17:11:10.411	0.00000E+0	0.00000E+0	0.00000E+0	0.00000E+0	0.00000E+0	0.00000E+0	2.00000E+1	1.40000E+1	1.99996E+1	1.40005E+1
50	02/09/2022	17:11:11.790	0.00000E+0	0.00000E+0	0.00000E+0	0.00000E+0	0.00000E+0	0.00000E+0	2.00000E+1	1.40000E+1	2.00034E+1	1.40013E+1
51	02/09/2022	17:11:13.257	0.00000E+0	0.00000E+0	0.00000E+0	0.00000E+0	0.00000E+0	0.00000E+0	2.00000E+1	1.40000E+1	1.99991E+1	1.39987E+1
52	02/09/2022	17:11:14.634	0.00000E+0	0.00000E+0	0.00000E+0	0.00000E+0	0.00000E+0	0.00000E+0	2.00000E+1	1.40000E+1	1.99986E+1	1.40020E+1
53	02/09/2022	17:11:16.034	0.00000E+0	0.00000E+0	0.00000E+0	0.00000E+0	0.00000E+0	0.00000E+0	2.00000E+1	1.40000E+1	2.00009E+1	1.40014E+1
54	02/09/2022	17:11:17.544	0.00000E+0	0.00000E+0	0.00000E+0	0.00000E+0	0.00000E+0	0.00000E+0	2.00000E+1	1.40000E+1	1.99997E+1	1.39982E+1
55	02/09/2022	17:11:18.911	0.00000E+0	0.00000E+0	0.00000E+0	0.00000E+0	0.00000E+0	0.00000E+0	2.00000E+1	1.40000E+1	1.99985E+1	1.39964E+1
56	02/09/2022	17:11:20.386	0.00000E+0	0.00000E+0	0.00000E+0	0.00000E+0	0.00000E+0	0.00000E+0	2.00000E+1	1.40000E+1	2.00006E+1	1.39990E+1
57	02/09/2022	17:11:21.768	0.00000E+0	0.00000E+0	0.00000E+0	0.00000E+0	0.00000E+0	0.00000E+0	2.00000E+1	1.40000E+1	2.00009E+1	1.39997E+1
58	02/09/2022	17:11:23.128	0.00000E+0	0.00000E+0	0.00000E+0	0.00000E+0	0.00000E+0	0.00000E+0	2.00000E+1	1.40000E+1	2.00016E+1	1.39990E+1
59	02/09/2022	17:11:24.594	0.00000E+0	0.00000E+0	0.00000E+0	0.00000E+0	0.00000E+0	0.00000E+0	2.00000E+1	1.40000E+1	1.99982E+1	1.39986E+1
60	02/09/2022	17:11:25.995	0.00000E+0	0.00000E+0	0.00000E+0	0.00000E+0	0.00000E+0	0.00000E+0	2.00000E+1	1.40000E+1	1.99988E+1	1.40017E+1
61	02/09/2022	17:11:27.418	0.00000E+0	0.00000E+0	0.00000E+0	0.00000E+0	0.00000E+0	0.00000E+0	2.00000E+1	1.40000E+1	1.99996E+1	1.40052E+1
62	02/09/2022	17:11:28.767	0.00000E+0	0.00000E+0	0.00000E+0	0.00000E+0	0.00000E+0	0.00000E+0	2.00000E+1	1.40000E+1	1.99988E+1	1.40002E+1
63	02/09/2022	17:11:30.148	0.00000E+0	0.00000E+0	0.00000E+0	0.00000E+0	0.00000E+0	0.00000E+0	2.00000E+1	1.40000E+1	2.00008E+1	1.39989E+1
64	02/09/2022	17:11:31.633	0.00000E+0	0.00000E+0	0.00000E+0	0.00000E+0	0.00000E+0	0.00000E+0	2.00000E+1	1.40000E+1	1.99981E+1	1.39988E+1
65	02/09/2022	17:11:33.023	0.00000E+0	0.00000E+0	0.00000E+0	0.00000E+0	0.00000E+0	0.00000E+0	2.00000E+1	1.40000E+1	2.00014E+1	1.40016E+1
66	02/09/2022	17:11:34.498	0.00000E+0	0.00000E+0	0.00000E+0	0.00000E+0	0.00000E+0	0.00000E+0	2.00000E+1	1.40000E+1	2.00012E+1	1.40010E+1
67	02/09/2022	17:11:36.011	0.00000E+0	0.00000E+0	0.00000E+0	0.00000E+0	0.00000E+0	0.00000E+0	2.00000E+1	1.40000E+1	2.00015E+1	1.39993E+1
68	02/09/2022	17:11:37.408	0.00000E+0	0.00000E+0	0.00000E+0	0.00000E+0	0.00000E+0	0.00000E+0	2.00000E+1	1.40000E+1	2.00026E+1	1.40023E+1
69	02/09/2022	17:11:38.901	0.00000E+0	0.00000E+0	0.00000E+0	0.00000E+0	0.00000E+0	0.00000E+0	2.00000E+1	1.40000E+1	2.00014E+1	1.40003E+1
70	02/09/2022	17:11:40.298	0.00000E+0	0.00000E+0	0.00000E+0	0.00000E+0	0.00000E+0	0.00000E+0	2.00000E+1	1.40000E+1	1.99995E+1	1.39988E+1
71	02/09/2022	17:11:41.715	0.00000E+0	0.00000E+0	0.00000E+0	0.00000E+0	0.00000E+0	0.00000E+0	2.00000E+1	1.40000E+1	1.99977E+1	1.40003E+1
72	02/09/2022	17:11:43.224	0.00000E+0	0.00000E+0	0.00000E+0	0.00000E+0	0.00000E+0	0.00000E+0	2.00000E+1	1.40000E+1	1.99996E+1	1.40016E+1
73	02/09/2022	17:11:44.608	0.00000E+0	0.00000E+0	0.00000E+0	0.00000E+0	0.00000E+0	0.00000E+0	2.00000E+1	1.40000E+1	2.00003E+1	1.39995E+1
74	02/09/2022	17:11:46.065	0.00000E+0	0.00000E+0	0.00000E+0	0.00000E+0	0.00000E+0	0.00000E+0	2.00000E+1	1.40000E+1	2.00021E+1	1.39973E+1
75	02/09/2022	17:11:47.574	0.00000E+0	0.00000E+0	0.00000E+0	0.00000E+0	0.00000E+0	0.00000E+0	2.00000E+1	1.40000E+1	1.99975E+1	1.39992E+1
76	02/09/2022	17:11:48.956	0.00000E+0	0.00000E+0	0.00000E+0	0.00000E+0	0.00000E+0	0.00000E+0	2.00000E+1	1.40000E+1	1.99989E+1	1.39985E+1
77	02/09/2022	17:11:50.398	0.00000E+0	0.00000E+0	0.00000E+0	0.00000E+0	0.00000E+0	0.00000E+0	2.00000E+1	1.40000E+1	1.99985E+1	1.40029E+1
78	02/09/2022	17:11:51.781	0.00000E+0	0.00000E+0	0.00000E+0	0.00000E+0	0.00000E+0	0.00000E+0	2.00000E+1	1.40000E+1	1.99976E+1	1.40005E+1
79	02/09/2022	17:11:53.175	0.00000E+0	0.00000E+0	0.00000E+0	0.00000E+0	0.00000E+0	0.00000E+0	2.00000E+1	1.40000E+1	1.99987E+1	1.39982E+1
80	02/09/2022	17:11:54.696	0.00000E+0	0.00000E+0	0.00000E+0	0.00000E+0	0.00000E+0	0.00000E+0	2.00000E+1	1.40000E+1	1.99985E+1	1.39969E+1
81	02/09/2022	17:11:56.084	0.00000E+0	0.00000E+0	0.00000E+0	0.00000E+0	0.00000E+0	0.00000E+0	2.00000E+1	1.40000E+1	1.99987E+1	1.40003E+1
82	02/09/2022	17:11:57.469	0.00000E+0	0.00000E+0	0.00000E+0	0.00000E+0	0.00000E+0	0.00000E+0	2.00000E+1	1.40000E+1	2.00000E+1	1.40003E+1
83	02/09/2022	17:11:58.852	0.00000E+0	0.00000E+0	0.00000E+0	0.00000E+0	0.00000E+0	0.00000E+0	2.00000E+1	1.40000E+1	1.99990E+1	1.39995E+1
84	02/09/2022	17:12:00.229	0.00000E+0	0.00000E+0	0.00000E+0	0.00000E+0	0.00000E+0	0.00000E+0	2.00000E+1	1.40000E+1	1.99990E+1	1.40003E+1
85	02/09/2022	17:12:01.719	0.00000E+0	0.00000E+0	0.00000E+0	0.00000E+0	0.00000E+0	0.00000E+0	2.00000E+1	1.40000E+1	2.00011E+1	1.40004E+1
86	02/09/2022	17:12:03.116	0.00000E+0	0.00000E+0	0.00000E+0	0.00000E+0	0.00000E+0	0.00000E+0	2.00000E+1	1.40000E+1	1.99988E+1	1.40010E+1
87	02/09/2022	17:12:04.587	0.00000E+0	0.00000E+0	0.00000E+0	0.00000E+0	0.00000E+0	0.00000E+0	2.00000E+1	1.40000E+1	2.00005E+1	1.39989E+1
88	02/09/2022	17:12:06.093	0.00000E+0	0.00000E+0	0.00000E+0	0.00000E+0	0.00000E+0	0.00000E+0	2.00000E+1	1.40000E+1	1.99986E+1	1.39990E+1
89	02/09/2022	17:12:07.444	0.00000E+0	0.00000E+0	0.00000E+0	0.00000E+0	0.00000E+0	0.00000E+0	2.00000E+1	1.40000E+1	1.99998E+1	1.39985E+1
90	02/09/2022	17:12:08.975	0.00000E+0	0.00000E+0	0.00000E+0	0.00000E+0	0.00000E+0	0.00000E+0	2.00000E+1	1.40000E+1	2.00015E+1	1.40009E+1
91	02/09/2022	17:12:10.364	0.00000E+0	0.00000E+0	0.00000E+0	0.00000E+0	0.00000E+0	0.00000E+0	2.00000E+1	1.40000E+1	2.00011E+1	1.39991E+1
92	02/09/2022	17:12:11.761	0.00000E+0	0.00000E+0	0.00000E+0	0.00000E+0	0.00000E+0	0.00000E+0	2.00000E+1	1.40000E+1	2.00015E+1	1.39980E+1
93	02/09/2022	17:12:13.308	0.00000E+0	0.00000E+0	0.00000E+0	0.00000E+0	0.00000E+0	0.00000E+0	2.00000E+1	1.40000E+1	2.00008E+1	1.40007E+1
94	02/09/2022	17:12:14.688	0.00000E+0	0.00000E+0	0.00000E+0	0.00000E+0	0.00000E+0	0.00000E+0	2.00000E+1	1.40000E+1	2.00026E+1	1.39993E+1
95	02/09/2022	17:12:16.147	0.00000E+0	0.00000E+0	0.00000E+0	0.00000E+0	0.00000E+0	0.00000E+0	2.00000E+1	1.40000E+1	2.00022E+1	1.39979E+1
96	02/09/2022	17:12:17.648	0.00000E+0	0.00000E+0	0.00000E+0	0.00000E+0	0.00000E+0	0.00000E+0	2.00000E+1	1.40000E+1	2.00011E+1	1.40009E+1
97	02/09/2022	17:12:19.029	0.00000E+0	0.00000E+0	0.00000E+0	0.00000E+0	0.00000E+0	0.00000E+0	2.00000E+1	1.40000E+1	2.00000E+1	1.39990E+1
98	02/09/2022	17:12:20.601	0.00000E+0	0.00000E+0	0.00000E+0	0.00000E+0	0.00000E+0	0.00000E+0	2.00000E+1	1.40000E+1	1.99996E+1	1.40005E+1
99	02/09/2022	17:12:22.015	0.00000E+0	0.00000E+0	0.00000E+0	0.00000E+0	0.00000E+0	0.00000E+0	2.00000E+1	1.40000E+1	1.99999E+1	1.39985E+1
100	02/09/2022	17:12:23.412	0.00000E+0	0.00000E+0	0.00000E+0	0.00000E+0	0.00000E+0	0.00000E+0	2.00000E+1	1.40000E+1	1.99998E+1	1.40006E+1
101	02/09/2022	17:12:24.875	0.00000E+0	0.00000E+0	0.00000E+0	0.00000E+0	0.00000E+0	0.00000E+0	2.00000E+1	1.40000E+1	1.99982E+1	1.40007E+1
102	02/09/2022	17:12:26.267	0.00000E+0	0.00000E+0	0.00000E+0	0.00000E+0	0.00000E+0	0.00000E+0	2.00000E+1	1.40000E+1	2.00005E+1	1.40036E+1
103	02/09/2022	17:12:27.788	0.00000E+0	0.00000E+0	0.00000E+0	0.00000E+0	0.00000E+0	0.00000E+0	2.00000E+1	1.40000E+1	2.00002E+1	1.39994E+1
104	02/09/2022	17:12:29.265	0.00000E+0	0.00000E+0	0.00000E+0	0.00000E+0	0.00000E+0	0.00000E+0	2.00000E+1	1.40000E+1	2.00023E+1	1.39990E+1
105	02/09/2022	17:12:30.649	0.00000E+0	0.00000E+0	0.00000E+0	0.00000E+0	0.00000E+0	0.00000E+0	2.00000E+1	1.40000E+1	2.00015E+1	1.39971E+1
106	02/09/2022	17:12:32.197	0.00000E+0	0.00000E+0	0.00000E+0	0.00000E+0	0.00000E+0	0.00000E+0	2.00000E+1	1.40000E+1	2.00026E+1	1.39992E+1
107	02/09/2022	17:12:33.593	0.00000E+0	0.00000E+0	0.00000E+0	0.00000E+0	0.00000E+0	0.00000E+0	2.00000E+1	1.40000E+1	1.99972E+1	1.39998E+1
108	02/09/2022	17:12:35.054	0.00000E+0	0.00000E+0	0.00000E+0	0.00000E+0	0.00000E+0	0.00000E+0	2.00000E+1	1.40000E+1	2.00000E+1	1.40011E+1
109	02/09/2022	17:12:36.536	0.00000E+0	0.00000E+0	0.00000E+0	0.00000E+0	0.00000E+0	0.00000E+0	2.00000E+1	1.40000E+1	1.99985E+1	1.40015E+1
110	02/09/2022	17:12:37.929	0.00000E+0	0.00000E+0	0.00000E+0	0.00000E+0	0.00000E+0	0.00000E+0	2.00000E+1	1.40000E+1	1.99984E+1	1.39999E+1
111	02/09/2022	17:12:39.358	0.00000E+0	0.00000E+0	0.00000E+0	0.00000E+0	0.00000E+0	0.00000E+0	2.00000E+1	1.40000E+1	1.99974E+1	1.39986E+1
112	02/09/2022	17:12:40.742	0.00000E+0	0.00000E+0	0.00000E+0	0.00000E+0	0.00000E+0	0.00000E+0	2.00000E+1	1.40000E+1	2.00003E+1	1.39956E+1
113	02/09/2022	17:12:42.111	0.00000E+0	0.00000E+0	0.00000E+0	0.00000E+0	0.00000E+0	0.00000E+0	2.00000E+1	1.40000E+1	2.00027E+1	1.39992E+1
114	02/09/2022	17:12:43.645	0.00000E+0	0.00000E+0	0.00000E+0	0.00000E+0	0.00000E+0	0.00000E+0	2.00000E+1	1.40000E+1	2.00025E+1	1.39990E+1
115	02/09/2022	17:12:45.026	0.00000E+0	0.00000E+0	0.00000E+0	0.00000E+0	0.00000E+0	0.00000E+0	2.00000E+1	1.40000E+1	2.00017E+1	1.40003E+1
116	02/09/2022	17:12:46.457	0.00000E+0	0.00000E+0	0.00000E+0	0.00000E+0	0.00000E+0	0.00000E+0	2.00000E+1	1.40000E+1	1.99992E+1	1.39966E+1
117	02/09/2022	17:12:47.827	0.00000E+0	0.00000E+0	0.00000E+0	0.00000E+0	0.00000E+0	0.00000E+0	2.00000E+1	1.40000E+1	1.99990E+1	1.39986E+1
118	02/09/2022	17:12:49.201	0.00000E+0	0.00000E+0	0.00000E+0	0.00000E+0	0.00000E+0	0.00000E+0	2.00000E+1	1.40000E+1	1.99981E+1	1.40008E+1
119	02/09/2022	17:12:50.711	0.00000E+0	0.00000E+0	0.00000E+0	0.00000E+0	0.00000E+0	0.00000E+0	2.00000E+1	1.40000E+1	2.00023E+1	1.40004E+1
120	02/09/2022	17:12:52.097	0.00000E+0	0.00000E+0	0.00000E+0	0.00000E+0	0.00000E+0	0.00000E+0	2.00000E+1	1.40000E+1	2.00013E+1	1.39998E+1
121	02/09/2022	17:12:53.538	0.00000E+0	0.00000E+0	0.00000E+0	0.00000E+0	0.00000E+0	0.00000E+0	2.00000E+1	1.40000E+1	2.00020E+1	1.40005E+1
122	02/09/2022	17:12:55.053	0.00000E+0	0.00000E+0	0.00000E+0	0.00000E+0	0.00000E+0	0.00000E+0	2.00000E+1	1.40000E+1	1.99997E+1	1.39985E+1
123	02/09/2022	17:12:56.435	0.00000E+0	0.00000E+0	0.00000E+0	0.00000E+0	0.00000E+0	0.00000E+0	2.00000E+1	1.40000E+1	1.99990E+1	1.40032E+1
124	02/09/2022	17:12:57.963	0.00000E+0	0.00000E+0	0.00000E+0	0.00000E+0	0.00000E+0	0.00000E+0	2.00000E+1	1.40000E+1	1.99969E+1	1.40012E+1
125	02/09/2022	17:12:59.357	0.00000E+0	0.00000E+0	0.00000E+0	0.00000E+0	0.00000E+0	0.00000E+0	2.00000E+1	1.40000E+1	2.00001E+1	1.39998E+1
126	02/09/2022	17:13:00.748	0.00000E+0	0.00000E+0	0.00000E+0	0.00000E+0	0.00000E+0	0.00000E+0	2.00000E+1	1.40000E+1	1.99994E+1	1.40018E+1
127	02/09/2022	17:13:02.270	0.00000E+0	0.00000E+0	0.00000E+0	0.00000E+0	0.00000E+0	0.00000E+0	2.00000E+1	1.40000E+1	2.00010E+1	1.39999E+1
128	02/09/2022	17:13:03.634	0.00000E+0	0.00000E+0	0.00000E+0	0.00000E+0	0.00000E+0	0.00000E+0	2.00000E+1	1.40000E+1	2.00024E+1	1.39994E+1
129	02/09/2022	17:13:05.101	0.00000E+0	0.00000E+0	0.00000E+0	0.00000E+0	0.00000E+0	0.00000E+0	2.00000E+1	1.40000E+1	2.00004E+1	1.39986E+1
130	02/09/2022	17:13:06.611	0.00000E+0	0.00000E+0	0.00000E+0	0.00000E+0	0.00000E+0	0.00000E+0	2.00000E+1	1.40000E+1	1.99999E+1	1.39970E+1
131	02/09/2022	17:13:08.030	0.00000E+0	0.00000E+0	0.00000E+0	0.00000E+0	0.00000E+0	0.00000E+0	2.00000E+1	1.40000E+1	1.99983E+1	1.40014E+1
132	02/09/2022	17:13:09.494	0.00000E+0	0.00000E+0	0.00000E+0	0.00000E+0	0.00000E+0	0.00000E+0	2.00000E+1	1.40000E+1	1.99992E+1	1.40011E+1
133	02/09/2022	17:13:10.919	0.00000E+0	0.00000E+0	0.00000E+0	0.00000E+0	0.00000E+0	0.00000E+0	2.00000E+1	1.40000E+1	2.00011E+1	1.39978E+1
134	02/09/2022	17:13:12.313	0.00000E+0	0.00000E+0	0.00000E+0	0.00000E+0	0.00000E+0	0.00000E+0	2.00000E+1	1.40000E+1	2.00001E+1	1.39997E+1
135	02/09/2022	17:13:13.872	0.00000E+0	0.00000E+0	0.00000E+0	0.00000E+0	0.00000E+0	0.00000E+0	2.00000E+1	1.40000E+1	1.99978E+1	1.39991E+1
136	02/09/2022	17:13:15.247	0.00000E+0	0.00000E+0	0.00000E+0	0.00000E+0	0.00000E+0	0.00000E+0	2.00000E+1	1.40000E+1	1.99995E+1	1.40005E+1
137	02/09/2022	17:13:16.625	0.00000E+0	0.00000E+0	0.00000E+0	0.00000E+0	0.00000E+0	0.00000E+0	2.00000E+1	1.40000E+1	1.99987E+1	1.39991E+1
138	02/09/2022	17:13:18.034	0.00000E+0	0.00000E+0	0.00000E+0	0.00000E+0	0.00000E+0	0.00000E+0	2.00000E+1	1.40000E+1	2.00008E+1	1.39980E+1
139	02/09/2022	17:13:19.442	0.00000E+0	0.00000E+0	0.00000E+0	0.00000E+0	0.00000E+0	0.00000E+0	2.00000E+1	1.40000E+1	1.99990E+1	1.39994E+1
140	02/09/2022	17:13:20.972	0.00000E+0	0.00000E+0	0.00000E+0	0.00000E+0	0.00000E+0	0.00000E+0	2.00000E+1	1.40000E+1	2.00011E+1	1.39978E+1
141	02/09/2022	17:13:22.361	0.00000E+0	0.00000E+0	0.00000E+0	0.00000E+0	0.00000E+0	0.00000E+0	2.00000E+1	1.40000E+1	1.99994E+1	1.40015E+1
142	02/09/2022	17:13:23.743	0.00000E+0	0.00000E+0	0.00000E+0	0.00000E+0	0.00000E+0	0.00000E+0	2.00000E+1	1.40000E+1	2.00011E+1	1.39980E+1
143	02/09/2022	17:13:25.255	0.00000E+0	0.00000E+0	0.00000E+0	0.00000E+0	0.00000E+0	0.00000E+0	2.00000E+1	1.40000E+1	1.99972E+1	1.40000E+1
144	02/09/2022	17:13:26.654	0.00000E+0	0.00000E+0	0.00000E+0	0.00000E+0	0.00000E+0	0.00000E+0	2.00000E+1	1.40000E+1	2.00001E+1	1.40008E+1
145	02/09/2022	17:13:28.156	0.00000E+0	0.00000E+0	0.00000E+0	0.00000E+0	0.00000E+0	0.00000E+0	2.00000E+1	1.40000E+1	1.99979E+1	1.40006E+1
146	02/09/2022	17:13:29.549	0.00000E+0	0.00000E+0	0.00000E+0	0.00000E+0	0.00000E+0	0.00000E+0	2.00000E+1	1.40000E+1	2.00007E+1	1.39983E+1
147	02/09/2022	17:13:30.915	0.00000E+0	0.00000E+0	0.00000E+0	0.00000E+0	0.00000E+0	0.00000E+0	2.00000E+1	1.40000E+1	2.00015E+1	1.39978E+1
148	02/09/2022	17:13:32.441	0.00000E+0	0.00000E+0	0.00000E+0	0.00000E+0	0.00000E+0	0.00000E+0	2.00000E+1	1.40000E+1	2.00002E+1	1.40018E+1
149	02/09/2022	17:13:33.810	0.00000E+0	0.00000E+0	0.00000E+0	0.00000E+0	0.00000E+0	0.00000E+0	2.00000E+1	1.40000E+1	2.00021E+1	1.40013E+1
150	02/09/2022	17:13:35.227	0.00000E+0	0.00000E+0	0.00000E+0	0.00000E+0	0.00000E+0	0.00000E+0	2.00000E+1	1.40000E+1	2.00000E+1	1.39991E+1
151	02/09/2022	17:13:36.722	0.00000E+0	0.00000E+0	0.00000E+0	0.00000E+0	0.00000E+0	0.00000E+0	2.00000E+1	1.40000E+1	1.99999E+1	1.40022E+1
152	02/09/2022	17:13:38.095	0.00000E+0	0.00000E+0	0.00000E+0	0.00000E+0	0.00000E+0	0.00000E+0	2.00000E+1	1.40000E+1	2.00015E+1	1.40005E+1
153	02/09/2022	17:13:39.647	0.00000E+0	0.00000E+0	0.00000E+0	0.00000E+0	0.00000E+0	0.00000E+0	2.00000E+1	1.40000E+1	2.00014E+1	1.40000E+1
154	02/09/2022	17:13:41.023	0.00000E+0	0.00000E+0	0.00000E+0	0.00000E+0	0.00000E+0	0.00000E+0	2.00000E+1	1.40000E+1	1.99981E+1	1.40029E+1
155	02/09/2022	17:13:42.437	0.00000E+0	0.00000E+0	0.00000E+0	0.00000E+0	0.00000E+0	0.00000E+0	2.00000E+1	1.40000E+1	1.99977E+1	1.40008E+1
156	02/09/2022	17:13:43.937	0.00000E+0	0.00000E+0	0.00000E+0	0.00000E+0	0.00000E+0	0.00000E+0	2.00000E+1	1.40000E+1	2.00015E+1	1.39999E+1
157	02/09/2022	17:13:45.325	0.00000E+0	0.00000E+0	0.00000E+0	0.00000E+0	0.00000E+0	0.00000E+0	2.00000E+1	1.40000E+1	2.00007E+1	1.39990E+1
158	02/09/2022	17:13:46.876	0.00000E+0	0.00000E+0	0.00000E+0	0.00000E+0	0.00000E+0	0.00000E+0	2.00000E+1	1.40000E+1	1.99985E+1	1.40021E+1
159	02/09/2022	17:13:48.271	0.00000E+0	0.00000E+0	0.00000E+0	0.00000E+0	0.00000E+0	0.00000E+0	2.00000E+1	1.40000E+1	1.99993E+1	1.39985E+1
160	02/09/2022	17:13:49.635	0.00000E+0	0.00000E+0	0.00000E+0	0.00000E+0	0.00000E+0	0.00000E+0	2.00000E+1	1.40000E+1	2.00011E+1	1.39998E+1
161	02/09/2022	17:13:51.150	0.00000E+0	0.00000E+0	0.00000E+0	0.00000E+0	0.00000E+0	0.00000E+0	2.00000E+1	1.40000E+1	1.99996E+1	1.39997E+1
162	02/09/2022	17:13:52.540	0.00000E+0	0.00000E+0	0.00000E+0	0.00000E+0	0.00000E+0	0.00000E+0	2.00000E+1	1.40000E+1	2.00014E+1	1.39996E+1
163	02/09/2022	17:13:54.035	0.00000E+0	0.00000E+0	0.00000E+0	0.00000E+0	0.00000E+0	0.00000E+0	2.00000E+1	1.40000E+1	2.00003E+1	1.39994E+1
164	02/09/2022	17:13:55.548	0.00000E+0	0.00000E+0	0.00000E+0	0.00000E+0	0.00000E+0	0.00000E+0	2.00000E+1	1.40000E+1	1.99994E+1	1.40017E+1
165	02/09/2022	17:13:56.944	0.00000E+0	0.00000E+0	0.00000E+0	0.00000E+0	0.00000E+0	0.00000E+0	2.00000E+1	1.40000E+1	2.00018E+1	1.39992E+1
166	02/09/2022	17:13:58.403	0.00000E+0	0.00000E+0	0.00000E+0	0.00000E+0	0.00000E+0	0.00000E+0	2.00000E+1	1.40000E+1	1.99977E+1	1.39999E+1
167	02/09/2022	17:13:59.793	0.00000E+0	0.00000E+0	0.00000E+0	0.00000E+0	0.00000E+0	0.00000E+0	2.00000E+1	1.40000E+1	1.99995E+1	1.40016E+1
168	02/09/2022	17:14:01.163	0.00000E+0	0.00000E+0	0.00000E+0	0.00000E+0	0.00000E+0	0.00000E+0	2.00000E+1	1.40000E+1	1.99993E+1	1.40008E+1
169	02/09/2022	17:14:02.697	0.00000E+0	0.00000E+0	0.00000E+0	0.00000E+0	0.00000E+0	0.00000E+0	2.00000E+1	1.40000E+1	2.00010E+1	1.39995E+1
170	02/09/2022	17:14:04.084	0.00000E+0	0.00000E+0	0.00000E+0	0.00000E+0	0.00000E+0	0.00000E+0	2.00000E+1	1.40000E+1	1.99979E+1	1.40004E+1
171	02/09/2022	17:14:05.553	0.00000E+0	0.00000E+0	0.00000E+0	0.00000E+0	0.00000E+0	0.00000E+0	2.00000E+1	1.40000E+1	2.00009E+1	1.39966E+1
172	02/09/2022	17:14:06.902	0.00000E+0	0.00000E+0	0.00000E+0	0.00000E+0	0.00000E+0	0.00000E+0	2.00000E+1	1.40000E+1	2.00011E+1	1.39982E+1
173	02/09/2022	17:14:08.283	0.00000E+0	0.00000E+0	0.00000E+0	0.00000E+0	0.00000E+0	0.00000E+0	2.00000E+1	1.40000E+1	2.00028E+1	1.39996E+1
174	02/09/2022	17:14:09.787	0.00000E+0	0.00000E+0	0.00000E+0	0.00000E+0	0.00000E+0	0.00000E+0	2.00000E+1	1.40000E+1	1.99981E+1	1.39991E+1
175	02/09/2022	17:14:11.196	0.00000E+0	0.00000E+0	0.00000E+0	0.00000E+0	0.00000E+0	0.00000E+0	2.00000E+1	1.40000E+1	1.99990E+1	1.40008E+1
176	02/09/2022	17:14:12.573	0.00000E+0	0.00000E+0	0.00000E+0	0.00000E+0	0.00000E+0	0.00000E+0	2.00000E+1	1.40000E+1	2.00001E+1	1.40005E+1
177	02/09/2022	17:14:14.147	0.00000E+0	0.00000E+0	0.00000E+0	0.00000E+0	0.00000E+0	0.00000E+0	2.00000E+1	1.40000E+1	1.99985E+1	1.39981E+1
178	02/09/2022	17:14:15.512	0.00000E+0	0.00000E+0	0.00000E+0	0.00000E+0	0.00000E+0	0.00000E+0	2.00000E+1	1.40000E+1	2.00005E+1	1.40017E+1
179	02/09/2022	17:14:17.037	0.00000E+0	0.00000E+0	0.00000E+0	0.00000E+0	0.00000E+0	0.00000E+0	2.00000E+1	1.40000E+1	2.00004E+1	1.39995E+1
180	02/09/2022	17:14:18.427	0.00000E+0	0.00000E+0	0.00000E+0	0.00000E+0	0.00000E+0	0.00000E+0	2.00000E+1	1.40000E+1	2.00042E+1	1.40003E+1
181	02/09/2022	17:14:19.789	0.00000E+0	0.00000E+0	0.00000E+0	0.00000E+0	0.00000E+0	0.00000E+0	2.00000E+1	1.40000E+1	1.99994E+1	1.39998E+1
182	02/09/2022	17:14:21.268	0.00000E+0	0.00000E+0	0.00000E+0	0.00000E+0	0.00000E+0	0.00000E+0	2.00000E+1	1.40000E+1	2.00016E+1	1.39987E+1
183	02/09/2022	17:14:22.678	0.00000E+0	0.00000E+0	0.00000E+0	0.00000E+0	0.00000E+0	0.00000E+0	2.00000E+1	1.40000E+1	2.00018E+1	1.40020E+1
184	02/09/2022	17:14:24.061	0.00000E+0	0.00000E+0	0.00000E+0	0.00000E+0	0.00000E+0	0.00000E+0	2.00000E+1	1.40000E+1	2.00021E+1	1.40009E+1
185	02/09/2022	17:14:25.563	0.00000E+0	0.00000E+0	0.00000E+0	0.00000E+0	0.00000E+0	0.00000E+0	2.00000E+1	1.40000E+1	1.99963E+1	1.39993E+1
186	02/09/2022	17:14:26.956	0.00000E+0	0.00000E+0	0.00000E+0	0.00000E+0	0.00000E+0	0.00000E+0	2.00000E+1	1.40000E+1	1.99992E+1	1.39979E+1
187	02/09/2022	17:14:28.446	0.00000E+0	0.00000E+0	0.00000E+0	0.00000E+0	0.00000E+0	0.00000E+0	2.00000E+1	1.40000E+1	2.00032E+1	1.39990E+1
188	02/09/2022	17:14:29.812	0.00000E+0	0.00000E+0	0.00000E+0	0.00000E+0	0.00000E+0	0.00000E+0	2.00000E+1	1.40000E+1	1.99990E+1	1.40006E+1
189	02/09/2022	17:14:31.208	0.00000E+0	0.00000E+0	0.00000E+0	0.00000E+0	0.00000E+0	0.00000E+0	2.00000E+1	1.40000E+1	1.99997E+1	1.39967E+1
190	02/09/2022	17:14:32.693	0.00000E+0	0.00000E+0	0.00000E+0	0.00000E+0	0.00000E+0	0.00000E+0	2.00000E+1	1.40000E+1	1.99993E+1	1.40001E+1
191	02/09/2022	17:14:34.088	0.00000E+0	0.00000E+0	0.00000E+0	0.00000E+0	0.00000E+0	0.00000E+0	2.00000E+1	1.40000E+1	1.99989E+1	1.39989E+1
192	02/09/2022	17:14:35.476	0.00000E+0	0.00000E+0	0.00000E+0	0.00000E+0	0.00000E+0	0.00000E+0	2.00000E+1	1.40000E+1	1.99991E+1	1.40024E+1
193	02/09/2022	17:14:36.892	0.00000E+0	0.00000E+0	0.00000E+0	0.00000E+0	0.00000E+0	0.00000E+0	2.00000E+1	1.40000E+1	2.00007E+1	1.40003E+1
194	02/09/2022	17:14:38.260	0.00000E+0	0.00000E+0	0.00000E+0	0.00000E+0	0.00000E+0	0.00000E+0	2.00000E+1	1.40000E+1	2.00000E+1	1.40005E+1
195	02/09/2022	17:14:39.727	0.00000E+0	0.00000E+0	0.00000E+0	0.00000E+0	0.00000E+0	0.00000E+0	2.00000E+1	1.40000E+1	2.00027E+1	1.40010E+1
196	02/09/2022	17:14:41.124	0.00000E+0	0.00000E+0	0.00000E+0	0.00000E+0	0.00000E+0	0.00000E+0	2.00000E+1	1.40000E+1	2.00001E+1	1.40023E+1
197	02/09/2022	17:14:42.583	0.00000E+0	0.00000E+0	0.00000E+0	0.00000E+0	0.00000E+0	0.00000E+0	2.00000E+1	1.40000E+1	1.99996E+1	1.39993E+1
198	02/09/2022	17:14:44.072	0.00000E+0	0.00000E+0	0.00000E+0	0.00000E+0	0.00000E+0	0.00000E+0	2.00000E+1	1.40000E+1	1.99984E+1	1.39999E+1
199	02/09/2022	17:14:45.469	0.00000E+0	0.00000E+0	0.00000E+0	0.00000E+0	0.00000E+0	0.00000E+0	2.00000E+1	1.40000E+1	1.99980E+1	1.40004E+1
200	02/09/2022	17:14:46.951	0.00000E+0	0.00000E+0	0.00000E+0	0.00000E+0	0.00000E+0	0.00000E+0	2.00000E+1	1.40000E+1	1.99985E+1	1.40008E+1
201	02/09/2022	17:14:48.332	0.00000E+0	0.00000E+0	0.00000E+0	0.00000E+0	0.00000E+0	0.00000E+0	2.00000E+1	1.40000E+1	1.99995E+1	1.40016E+1
202	02/09/2022	17:14:49.744	0.00000E+0	0.00000E+0	0.00000E+0	0.00000E+0	0.00000E+0	0.00000E+0	2.00000E+1	1.40000E+1	1.99992E+1	1.39974E+1
203	02/09/2022	17:14:51.208	0.00000E+0	0.00000E+0	0.00000E+0	0.00000E+0	0.00000E+0	0.00000E+0	2.00000E+1	1.40000E+1	2.00012E+1	1.40018E+1
204	02/09/2022	17:14:52.602	0.00000E+0	0.00000E+0	0.00000E+0	0.00000E+0	0.00000E+0	0.00000E+0	2.00000E+1	1.40000E+1	2.00025E+1	1.39977E+1
205	02/09/2022	17:14:53.987	0.00000E+0	0.00000E+0	0.00000E+0	0.00000E+0	0.00000E+0	0.00000E+0	2.00000E+1	1.40000E+1	2.00011E+1	1.40021E+1
206	02/09/2022	17:14:55.472	0.00000E+0	0.00000E+0	0.00000E+0	0.00000E+0	0.00000E+0	0.00000E+0	2.00000E+1	1.40000E+1	1.99977E+1	1.40016E+1
207	02/09/2022	17:14:56.832	0.00000E+0	0.00000E+0	0.00000E+0	0.00000E+0	0.00000E+0	0.00000E+0	2.00000E+1	1.40000E+1	1.99998E+1	1.40019E+1
208	02/09/2022	17:14:58.325	0.00000E+0	0.00000E+0	0.00000E+0	0.00000E+0	0.00000E+0	0.00000E+0	2.00000E+1	1.40000E+1	2.00000E+1	1.40013E+1
209	02/09/2022	17:14:59.726	0.00000E+0	0.00000E+0	0.00000E+0	0.00000E+0	0.00000E+0	0.00000E+0	2.00000E+1	1.40000E+1	1.99998E+1	1.39996E+1
210	02/09/2022	17:15:01.116	0.00000E+0	0.00000E+0	0.00000E+0	0.00000E+0	0.00000E+0	0.00000E+0	2.00000E+1	1.40000E+1	2.00006E+1	1.39999E+1
211	02/09/2022	17:15:02.627	0.00000E+0	0.00000E+0	0.00000E+0	0.00000E+0	0.00000E+0	0.00000E+0	2.00000E+1	1.40000E+1	1.99982E+1	1.40001E+1
212	02/09/2022	17:15:04.013	0.00000E+0	0.00000E+0	0.00000E+0	0.00000E+0	0.00000E+0	0.00000E+0	2.00000E+1	1.40000E+1	2.00008E+1	1.40022E+1
213	02/09/2022	17:15:05.504	0.00000E+0	0.00000E+0	0.00000E+0	0.00000E+0	0.00000E+0	0.00000E+0	2.00000E+1	1.40000E+1	1.99986E+1	1.40006E+1
214	02/09/2022	17:15:06.942	0.00000E+0	0.00000E+0	0.00000E+0	0.00000E+0	0.00000E+0	0.00000E+0	2.00000E+1	1.40000E+1	2.00011E+1	1.39988E+1
215	02/09/2022	17:15:08.338	0.00000E+0	0.00000E+0	0.00000E+0	0.00000E+0	0.00000E+0	0.00000E+0	2.00000E+1	1.40000E+1	2.00007E+1	1.39975E+1
216	02/09/2022	17:15:09.853	0.00000E+0	0.00000E+0	0.00000E+0	0.00000E+0	0.00000E+0	0.00000E+0	2.00000E+1	1.40000E+1	2.00000E+1	1.40023E+1
217	02/09/2022	17:15:11.239	0.00000E+0	0.00000E+0	0.00000E+0	0.00000E+0	0.00000E+0	0.00000E+0	2.00000E+1	1.40000E+1	2.00002E+1	1.40006E+1
218	02/09/2022	17:15:12.651	0.00000E+0	0.00000E+0	0.00000E+0	0.00000E+0	0.00000E+0	0.00000E+0	2.00000E+1	1.40000E+1	2.00022E+1	1.40017E+1
219	02/09/2022	17:15:14.161	0.00000E+0	0.00000E+0	0.00000E+0	0.00000E+0	0.00000E+0	0.00000E+0	2.00000E+1	1.40000E+1	2.00017E+1	1.39994E+1
220	02/09/2022	17:15:15.541	0.00000E+0	0.00000E+0	0.00000E+0	0.00000E+0	0.00000E+0	0.00000E+0	2.00000E+1	1.40000E+1	1.99984E+1	1.40011E+1
221	02/09/2022	17:15:17.002	0.00000E+0	0.00000E+0	0.00000E+0	0.00000E+0	0.00000E+0	0.00000E+0	2.00000E+1	1.40000E+1	1.99996E+1	1.40009E+1
222	02/09/2022	17:15:18.394	0.00000E+0	0.00000E+0	0.00000E+0	0.00000E+0	0.00000E+0	0.00000E+0	2.00000E+1	1.40000E+1	1.99972E+1	1.39989E+1
223	02/09/2022	17:15:19.773	0.00000E+0	0.00000E+0	0.00000E+0	0.00000E+0	0.00000E+0	0.00000E+0	2.00000E+1	1.40000E+1	1.99988E+1	1.40010E+1
224	02/09/2022	17:15:21.352	0.00000E+0	0.00000E+0	0.00000E+0	0.00000E+0	0.00000E+0	0.00000E+0	2.00000E+1	1.40000E+1	2.00007E+1	1.40000E+1
225	02/09/2022	17:15:22.734	0.00000E+0	0.00000E+0	0.00000E+0	0.00000E+0	0.00000E+0	0.00000E+0	2.00000E+1	1.40000E+1	2.00023E+1	1.40007E+1
226	02/09/2022	17:15:24.139	0.00000E+0	0.00000E+0	0.00000E+0	0.00000E+0	0.00000E+0	0.00000E+0	2.00000E+1	1.40000E+1	1.99993E+1	1.40008E+1
227	02/09/2022	17:15:25.517	0.00000E+0	0.00000E+0	0.00000E+0	0.00000E+0	0.00000E+0	0.00000E+0	2.00000E+1	1.40000E+1	2.00004E+1	1.39987E+1
228	02/09/2022	17:15:26.903	0.00000E+0	0.00000E+0	0.00000E+0	0.00000E+0	0.00000E+0	0.00000E+0	2.00000E+1	1.40000E+1	2.00007E+1	1.40009E+1
229	02/09/2022	17:15:28.456	0.00000E+0	0.00000E+0	0.00000E+0	0.00000E+0	0.00000E+0	0.00000E+0	2.00000E+1	1.40000E+1	2.00001E+1	1.40017E+1
230	02/09/2022	17:15:29.832	0.00000E+0	0.00000E+0	0.00000E+0	0.00000E+0	0.00000E+0	0.00000E+0	2.00000E+1	1.40000E+1	1.99975E+1	1.40008E+1
231	02/09/2022	17:15:31.274	0.00000E+0	0.00000E+0	0.00000E+0	0.00000E+0	0.00000E+0	0.00000E+0	2.00000E+1	1.40000E+1	1.99965E+1	1.40022E+1
232	02/09/2022	17:15:32.788	0.00000E+0	0.00000E+0	0.00000E+0	0.00000E+0	0.00000E+0	0.00000E+0	2.00000E+1	1.40000E+1	1.99998E+1	1.39993E+1
233	02/09/2022	17:15:34.177	0.00000E+0	0.00000E+0	0.00000E+0	0.00000E+0	0.00000E+0	0.00000E+0	2.00000E+1	1.40000E+1	1.99995E+1	1.39999E+1
234	02/09/2022	17:15:35.726	0.00000E+0	0.00000E+0	0.00000E+0	0.00000E+0	0.00000E+0	0.00000E+0	2.00000E+1	1.40000E+1	2.00006E+1	1.40004E+1
235	02/09/2022	17:15:37.104	0.00000E+0	0.00000E+0	0.00000E+0	0.00000E+0	0.00000E+0	0.00000E+0	2.00000E+1	1.40000E+1	1.99986E+1	1.40034E+1
236	02/09/2022	17:15:38.500	0.00000E+0	0.00000E+0	0.00000E+0	0.00000E+0	0.00000E+0	0.00000E+0	2.00000E+1	1.40000E+1	1.99997E+1	1.39994E+1
237	02/09/2022	17:15:40.015	0.00000E+0	0.00000E+0	0.00000E+0	0.00000E+0	0.00000E+0	0.00000E+0	2.00000E+1	1.40000E+1	2.00016E+1	1.39997E+1
238	02/09/2022	17:15:41.380	0.00000E+0	0.00000E+0	0.00000E+0	0.00000E+0	0.00000E+0	0.00000E+0	2.00000E+1	1.40000E+1	1.99994E+1	1.40011E+1
239	02/09/2022	17:15:42.771	0.00000E+0	0.00000E+0	0.00000E+0	0.00000E+0	0.00000E+0	0.00000E+0	2.00000E+1	1.40000E+1	1.99991E+1	1.40000E+1
240	02/09/2022	17:15:44.267	0.00000E+0	0.00000E+0	0.00000E+0	0.00000E+0	0.00000E+0	0.00000E+0	2.00000E+1	1.40000E+1	2.00009E+1	1.39995E+1
241	02/09/2022	17:15:45.658	0.00000E+0	0.00000E+0	0.00000E+0	0.00000E+0	0.00000E+0	0.00000E+0	2.00000E+1	1.40000E+1	1.99984E+1	1.39990E+1
242	02/09/2022	17:15:47.218	0.00000E+0	0.00000E+0	0.00000E+0	0.00000E+0	0.00000E+0	0.00000E+0	2.00000E+1	1.40000E+1	2.00003E+1	1.39988E+1
243	02/09/2022	17:15:48.616	0.00000E+0	0.00000E+0	0.00000E+0	0.00000E+0	0.00000E+0	0.00000E+0	2.00000E+1	1.40000E+1	2.00003E+1	1.40004E+1
244	02/09/2022	17:15:49.998	0.00000E+0	0.00000E+0	0.00000E+0	0.00000E+0	0.00000E+0	0.00000E+0	2.00000E+1	1.40000E+1	1.99989E+1	1.39983E+1
245	02/09/2022	17:15:51.503	0.00000E+0	0.00000E+0	0.00000E+0	0.00000E+0	0.00000E+0	0.00000E+0	2.00000E+1	1.40000E+1	1.99992E+1	1.40002E+1
246	02/09/2022	17:15:52.900	0.00000E+0	0.00000E+0	0.00000E+0	0.00000E+0	0.00000E+0	0.00000E+0	2.00000E+1	1.40000E+1	2.00000E+1	1.39989E+1
247	02/09/2022	17:15:54.330	0.00000E+0	0.00000E+0	0.00000E+0	0.00000E+0	0.00000E+0	0.00000E+0	2.00000E+1	1.40000E+1	2.00013E+1	1.39995E+1
248	02/09/2022	17:15:55.671	0.00000E+0	0.00000E+0	0.00000E+0	0.00000E+0	0.00000E+0	0.00000E+0	2.00000E+1	1.40000E+1	1.99975E+1	1.40034E+1
249	02/09/2022	17:15:57.054	0.00000E+0	0.00000E+0	0.00000E+0	0.00000E+0	0.00000E+0	0.00000E+0	2.00000E+1	1.40000E+1	2.00004E+1	1.39980E+1
250	02/09/2022	17:15:58.603	0.00000E+0	0.00000E+0	0.00000E+0	0.00000E+0	0.00000E+0	0.00000E+0	2.00000E+1	1.40000E+1	1.99983E+1	1.39999E+1
251	02/09/2022	17:15:59.986	0.00000E+0	0.00000E+0	0.00000E+0	0.00000E+0	0.00000E+0	0.00000E+0	2.00000E+1	1.40000E+1	1.99986E+1	1.39996E+1
252	02/09/2022	17:16:01.396	0.00000E+0	0.00000E+0	0.00000E+0	0.00000E+0	0.00000E+0	0.00000E+0	2.00000E+1	1.40000E+1	2.00006E+1	1.39988E+1
253	02/09/2022	17:16:02.907	0.00000E+0	0.00000E+0	0.00000E+0	0.00000E+0	0.00000E+0	0.00000E+0	2.00000E+1	1.40000E+1	2.00008E+1	1.39987E+1
254	02/09/2022	17:16:04.319	0.00000E+0	0.00000E+0	0.00000E+0	0.00000E+0	0.00000E+0	0.00000E+0	2.00000E+1	1.40000E+1	1.99998E+1	1.40006E+1
255	02/09/2022	17:16:05.823	0.00000E+0	0.00000E+0	0.00000E+0	0.00000E+0	0.00000E+0	0.00000E+0	2.00000E+1	1.40000E+1	1.99984E+1	1.40002E+1
256	02/09/2022	17:16:07.191	0.00000E+0	0.00000E+0	0.00000E+0	0.00000E+0	0.00000E+0	0.00000E+0	2.00000E+1	1.40000E+1	2.00001E+1	1.40026E+1
257	02/09/2022	17:16:08.592	0.00000E+0	0.00000E+0	0.00000E+0	0.00000E+0	0.00000E+0	0.00000E+0	2.00000E+1	1.40000E+1	1.99998E+1	1.39991E+1
258	02/09/2022	17:16:10.061	0.00000E+0	0.00000E+0	0.00000E+0	0.00000E+0	0.00000E+0	0.00000E+0	2.00000E+1	1.40000E+1	2.00003E+1	1.39977E+1
259	02/09/2022	17:16:11.453	0.00000E+0	0.00000E+0	0.00000E+0	0.00000E+0	0.00000E+0	0.00000E+0	2.00000E+1	1.40000E+1	2.00007E+1	1.40007E+1
260	02/09/2022	17:16:12.866	0.00000E+0	0.00000E+0	0.00000E+0	0.00000E+0	0.00000E+0	0.00000E+0	2.00000E+1	1.40000E+1	2.00003E+1	1.39993E+1
261	02/09/2022	17:16:14.374	0.00000E+0	0.00000E+0	0.00000E+0	0.00000E+0	0.00000E+0	0.00000E+0	2.00000E+1	1.40000E+1	1.99988E+1	1.39989E+1
262	02/09/2022	17:16:15.778	0.00000E+0	0.00000E+0	0.00000E+0	0.00000E+0	0.00000E+0	0.00000E+0	2.00000E+1	1.40000E+1	2.00006E+1	1.39981E+1
263	02/09/2022	17:16:17.265	0.00000E+0	0.00000E+0	0.00000E+0	0.00000E+0	0.00000E+0	0.00000E+0	2.00000E+1	1.40000E+1	2.00011E+1	1.40004E+1
264	02/09/2022	17:16:18.674	0.00000E+0	0.00000E+0	0.00000E+0	0.00000E+0	0.00000E+0	0.00000E+0	2.00000E+1	1.40000E+1	2.00010E+1	1.39982E+1
265	02/09/2022	17:16:20.053	0.00000E+0	0.00000E+0	0.00000E+0	0.00000E+0	0.00000E+0	0.00000E+0	2.00000E+1	1.40000E+1	1.99988E+1	1.40013E+1
266	02/09/2022	17:16:21.530	0.00000E+0	0.00000E+0	0.00000E+0	0.00000E+0	0.00000E+0	0.00000E+0	2.00000E+1	1.40000E+1	1.99992E+1	1.39997E+1
267	02/09/2022	17:16:22.898	0.00000E+0	0.00000E+0	0.00000E+0	0.00000E+0	0.00000E+0	0.00000E+0	2.00000E+1	1.40000E+1	1.99990E+1	1.39992E+1
268	02/09/2022	17:16:24.450	0.00000E+0	0.00000E+0	0.00000E+0	0.00000E+0	0.00000E+0	0.00000E+0	2.00000E+1	1.40000E+1	1.99992E+1	1.39987E+1
269	02/09/2022	17:16:25.850	0.00000E+0	0.00000E+0	0.00000E+0	0.00000E+0	0.00000E+0	0.00000E+0	2.00000E+1	1.40000E+1	2.00021E+1	1.39992E+1
270	02/09/2022	17:16:27.248	0.00000E+0	0.00000E+0	0.00000E+0	0.00000E+0	0.00000E+0	0.00000E+0	2.00000E+1	1.40000E+1	1.99980E+1	1.40000E+1
271	02/09/2022	17:16:28.728	0.00000E+0	0.00000E+0	0.00000E+0	0.00000E+0	0.00000E+0	0.00000E+0	2.00000E+1	1.40000E+1	1.99998E+1	1.39998E+1
272	02/09/2022	17:16:30.125	0.00000E+0	0.00000E+0	0.00000E+0	0.00000E+0	0.00000E+0	0.00000E+0	2.00000E+1	1.40000E+1	1.99982E+1	1.40020E+1
273	02/09/2022	17:16:31.511	0.00000E+0	0.00000E+0	0.00000E+0	0.00000E+0	0.00000E+0	0.00000E+0	2.00000E+1	1.40000E+1	1.99996E+1	1.39989E+1
274	02/09/2022	17:16:33.008	0.00000E+0	0.00000E+0	0.00000E+0	0.00000E+0	0.00000E+0	0.00000E+0	2.00000E+1	1.40000E+1	2.00012E+1	1.40002E+1
275	02/09/2022	17:16:34.392	0.00000E+0	0.00000E+0	0.00000E+0	0.00000E+0	0.00000E+0	0.00000E+0	2.00000E+1	1.40000E+1	2.00007E+1	1.39998E+1
276	02/09/2022	17:16:35.813	0.00000E+0	0.00000E+0	0.00000E+0	0.00000E+0	0.00000E+0	0.00000E+0	2.00000E+1	1.40000E+1	2.00015E+1	1.40007E+1
277	02/09/2022	17:16:37.243	0.00000E+0	0.00000E+0	0.00000E+0	0.00000E+0	0.00000E+0	0.00000E+0	2.00000E+1	1.40000E+1	1.99979E+1	1.40031E+1
278	02/09/2022	17:16:38.637	0.00000E+0	0.00000E+0	0.00000E+0	0.00000E+0	0.00000E+0	0.00000E+0	2.00000E+1	1.40000E+1	2.00000E+1	1.39985E+1
279	02/09/2022	17:16:40.208	0.00000E+0	0.00000E+0	0.00000E+0	0.00000E+0	0.00000E+0	0.00000E+0	2.00000E+1	1.40000E+1	1.99987E+1	1.40009E+1
280	02/09/2022	17:16:41.595	0.00000E+0	0.00000E+0	0.00000E+0	0.00000E+0	0.00000E+0	0.00000E+0	2.00000E+1	1.40000E+1	2.00017E+1	1.39997E+1
281	02/09/2022	17:16:43.022	0.00000E+0	0.00000E+0	0.00000E+0	0.00000E+0	0.00000E+0	0.00000E+0	2.00000E+1	1.40000E+1	1.99998E+1	1.39969E+1
282	02/09/2022	17:16:44.420	0.00000E+0	0.00000E+0	0.00000E+0	0.00000E+0	0.00000E+0	0.00000E+0	2.00000E+1	1.40000E+1	1.99989E+1	1.39990E+1
283	02/09/2022	17:16:45.800	0.00000E+0	0.00000E+0	0.00000E+0	0.00000E+0	0.00000E+0	0.00000E+0	2.00000E+1	1.40000E+1	2.00000E+1	1.39988E+1
284	02/09/2022	17:16:47.301	0.00000E+0	0.00000E+0	0.00000E+0	0.00000E+0	0.00000E+0	0.00000E+0	2.00000E+1	1.40000E+1	2.00012E+1	1.39993E+1
285	02/09/2022	17:16:48.690	0.00000E+0	0.00000E+0	0.00000E+0	0.00000E+0	0.00000E+0	0.00000E+0	2.00000E+1	1.40000E+1	2.00019E+1	1.39989E+1
286	02/09/2022	17:16:50.136	0.00000E+0	0.00000E+0	0.00000E+0	0.00000E+0	0.00000E+0	0.00000E+0	2.00000E+1	1.40000E+1	2.00024E+1	1.39992E+1
287	02/09/2022	17:16:51.638	0.00000E+0	0.00000E+0	0.00000E+0	0.00000E+0	0.00000E+0	0.00000E+0	2.00000E+1	1.40000E+1	2.00007E+1	1.40021E+1
288	02/09/2022	17:16:53.035	0.00000E+0	0.00000E+0	0.00000E+0	0.00000E+0	0.00000E+0	0.00000E+0	2.00000E+1	1.40000E+1	1.99999E+1	1.40014E+1
289	02/09/2022	17:16:54.500	0.00000E+0	0.00000E+0	0.00000E+0	0.00000E+0	0.00000E+0	0.00000E+0	2.00000E+1	1.40000E+1	2.00011E+1	1.39995E+1
290	02/09/2022	17:16:55.915	0.00000E+0	0.00000E+0	0.00000E+0	0.00000E+0	0.00000E+0	0.00000E+0	2.00000E+1	1.40000E+1	1.99999E+1	1.39996E+1
291	02/09/2022	17:16:57.308	0.00000E+0	0.00000E+0	0.00000E+0	0.00000E+0	0.00000E+0	0.00000E+0	2.00000E+1	1.40000E+1	1.99987E+1	1.39999E+1
292	02/09/2022	17:16:58.867	0.00000E+0	0.00000E+0	0.00000E+0	0.00000E+0	0.00000E+0	0.00000E+0	2.00000E+1	1.40000E+1	1.99994E+1	1.39965E+1
293	02/09/2022	17:17:00.268	0.00000E+0	0.00000E+0	0.00000E+0	0.00000E+0	0.00000E+0	0.00000E+0	2.00000E+1	1.40000E+1	1.99993E+1	1.39996E+1
294	02/09/2022	17:17:01.675	0.00000E+0	0.00000E+0	0.00000E+0	0.00000E+0	0.00000E+0	0.00000E+0	2.00000E+1	1.40000E+1	2.00019E+1	1.39986E+1
295	02/09/2022	17:17:03.182	0.00000E+0	0.00000E+0	0.00000E+0	0.00000E+0	0.00000E+0	0.00000E+0	2.00000E+1	1.40000E+1	2.00002E+1	1.40003E+1
296	02/09/2022	17:17:04.566	0.00000E+0	0.00000E+0	0.00000E+0	0.00000E+0	0.00000E+0	0.00000E+0	2.00000E+1	1.40000E+1	1.99998E+1	1.40022E+1
297	02/09/2022	17:17:06.073	0.00000E+0	0.00000E+0	0.00000E+0	0.00000E+0	0.00000E+0	0.00000E+0	2.00000E+1	1.40000E+1	2.00015E+1	1.39980E+1
298	02/09/2022	17:17:07.458	0.00000E+0	0.00000E+0	0.00000E+0	0.00000E+0	0.00000E+0	0.00000E+0	2.00000E+1	1.40000E+1	1.99986E+1	1.39987E+1
299	02/09/2022	17:17:08.853	0.00000E+0	0.00000E+0	0.00000E+0	0.00000E+0	0.00000E+0	0.00000E+0	2.00000E+1	1.40000E+1	1.99973E+1	1.40005E+1
300	02/09/2022	17:17:10.370	0.00000E+0	0.00000E+0	0.00000E+0	0.00000E+0	0.00000E+0	0.00000E+0	2.00000E+1	1.40000E+1	2.00012E+1	1.39998E+1
301	02/09/2022	17:17:11.767	0.00000E+0	0.00000E+0	0.00000E+0	0.00000E+0	0.00000E+0	0.00000E+0	2.00000E+1	1.40000E+1	1.99984E+1	1.40012E+1
