#Iteration	Date	Time	STSX	STSY	RotationRateX	RotationRateY	FrCntX	FrCntY	TiptiltCmd1	TiptiltCmd2	TiptiltMonitor1	TiptiltMonitor2
1	02/09/2022	15:41:14.277	0.00000E+0	0.00000E+0	4.00000E+1	0.00000E+0	0.00000E+0	0.00000E+0	2.00000E+1	1.40000E+1	1.99975E+1	1.40006E+1
2	02/09/2022	15:41:15.646	0.00000E+0	0.00000E+0	4.00000E+1	0.00000E+0	0.00000E+0	0.00000E+0	2.00000E+1	1.40000E+1	1.99991E+1	1.39996E+1
3	02/09/2022	15:41:17.092	0.00000E+0	0.00000E+0	4.00000E+1	0.00000E+0	0.00000E+0	0.00000E+0	2.00000E+1	1.40000E+1	2.00000E+1	1.39991E+1
4	02/09/2022	15:41:18.667	0.00000E+0	0.00000E+0	4.00000E+1	0.00000E+0	0.00000E+0	0.00000E+0	2.00000E+1	1.40000E+1	2.00024E+1	1.40020E+1
5	02/09/2022	15:41:20.036	0.00000E+0	0.00000E+0	4.00000E+1	0.00000E+0	0.00000E+0	0.00000E+0	2.00000E+1	1.40000E+1	1.99986E+1	1.39967E+1
6	02/09/2022	15:41:21.591	0.00000E+0	0.00000E+0	4.00000E+1	0.00000E+0	0.00000E+0	0.00000E+0	2.00000E+1	1.40000E+1	2.00002E+1	1.40025E+1
7	02/09/2022	15:41:22.987	0.00000E+0	0.00000E+0	4.00000E+1	0.00000E+0	0.00000E+0	0.00000E+0	2.00000E+1	1.40000E+1	2.00006E+1	1.40004E+1
8	02/09/2022	15:41:24.383	0.00000E+0	0.00000E+0	4.00000E+1	0.00000E+0	0.00000E+0	0.00000E+0	2.00000E+1	1.40000E+1	2.00011E+1	1.39987E+1
9	02/09/2022	15:41:25.919	0.00000E+0	0.00000E+0	4.00000E+1	0.00000E+0	0.00000E+0	0.00000E+0	2.00000E+1	1.40000E+1	2.00001E+1	1.40002E+1
10	02/09/2022	15:41:27.326	0.00000E+0	0.00000E+0	4.00000E+1	0.00000E+0	0.00000E+0	0.00000E+0	2.00000E+1	1.40000E+1	2.00023E+1	1.40005E+1
11	02/09/2022	15:41:28.759	0.00000E+0	0.00000E+0	4.00000E+1	0.00000E+0	0.00000E+0	0.00000E+0	2.00000E+1	1.40000E+1	1.99994E+1	1.39999E+1
12	02/09/2022	15:41:30.248	0.00000E+0	0.00000E+0	4.00000E+1	0.00000E+0	0.00000E+0	0.00000E+0	2.00000E+1	1.40000E+1	1.99990E+1	1.40018E+1
13	02/09/2022	15:41:31.646	0.00000E+0	0.00000E+0	4.00000E+1	0.00000E+0	0.00000E+0	0.00000E+0	2.00000E+1	1.40000E+1	1.99991E+1	1.40027E+1
14	02/09/2022	15:41:33.120	0.00000E+0	0.00000E+0	4.00000E+1	0.00000E+0	0.00000E+0	0.00000E+0	2.00000E+1	1.40000E+1	2.00010E+1	1.39988E+1
15	02/09/2022	15:41:34.530	0.00000E+0	0.00000E+0	4.00000E+1	0.00000E+0	0.00000E+0	0.00000E+0	2.00000E+1	1.40000E+1	1.99986E+1	1.39991E+1
16	02/09/2022	15:41:35.942	0.00000E+0	0.00000E+0	4.00000E+1	0.00000E+0	0.00000E+0	0.00000E+0	2.00000E+1	1.40000E+1	2.00002E+1	1.39986E+1
17	02/09/2022	15:41:37.420	0.00000E+0	0.00000E+0	4.00000E+1	0.00000E+0	0.00000E+0	0.00000E+0	2.00000E+1	1.40000E+1	2.00033E+1	1.40009E+1
18	02/09/2022	15:41:38.804	0.00000E+0	0.00000E+0	4.00000E+1	0.00000E+0	0.00000E+0	0.00000E+0	2.00000E+1	1.40000E+1	1.99998E+1	1.39999E+1
19	02/09/2022	15:41:40.359	0.00000E+0	0.00000E+0	4.00000E+1	0.00000E+0	0.00000E+0	0.00000E+0	2.00000E+1	1.40000E+1	2.00003E+1	1.39998E+1
20	02/09/2022	15:41:41.847	0.00000E+0	0.00000E+0	4.00000E+1	0.00000E+0	0.00000E+0	0.00000E+0	2.00000E+1	1.40000E+1	1.99973E+1	1.39994E+1
21	02/09/2022	15:41:43.230	0.00000E+0	0.00000E+0	4.00000E+1	0.00000E+0	0.00000E+0	0.00000E+0	2.00000E+1	1.40000E+1	2.00011E+1	1.40001E+1
22	02/09/2022	15:41:44.727	0.00000E+0	0.00000E+0	4.00000E+1	0.00000E+0	0.00000E+0	0.00000E+0	2.00000E+1	1.40000E+1	2.00013E+1	1.40019E+1
23	02/09/2022	15:41:46.128	0.00000E+0	0.00000E+0	4.00000E+1	0.00000E+0	0.00000E+0	0.00000E+0	2.00000E+1	1.40000E+1	2.00003E+1	1.39992E+1
24	02/09/2022	15:41:47.510	0.00000E+0	0.00000E+0	4.00000E+1	0.00000E+0	0.00000E+0	0.00000E+0	2.00000E+1	1.40000E+1	1.99995E+1	1.39990E+1
25	02/09/2022	15:41:49.000	0.00000E+0	0.00000E+0	4.00000E+1	0.00000E+0	0.00000E+0	0.00000E+0	2.00000E+1	1.40000E+1	2.00000E+1	1.39984E+1
26	02/09/2022	15:41:50.389	0.00000E+0	0.00000E+0	4.00000E+1	0.00000E+0	0.00000E+0	0.00000E+0	2.00000E+1	1.40000E+1	2.00005E+1	1.40000E+1
27	02/09/2022	15:41:51.856	0.00000E+0	0.00000E+0	4.00000E+1	0.00000E+0	0.00000E+0	0.00000E+0	2.00000E+1	1.40000E+1	1.99996E+1	1.39969E+1
28	02/09/2022	15:41:53.250	0.00000E+0	0.00000E+0	4.00000E+1	0.00000E+0	0.00000E+0	0.00000E+0	2.00000E+1	1.40000E+1	2.00011E+1	1.39980E+1
29	02/09/2022	15:41:54.648	0.00000E+0	0.00000E+0	4.00000E+1	0.00000E+0	0.00000E+0	0.00000E+0	2.00000E+1	1.40000E+1	2.00005E+1	1.39992E+1
30	02/09/2022	15:41:56.061	0.00000E+0	0.00000E+0	4.00000E+1	0.00000E+0	0.00000E+0	0.00000E+0	2.00000E+1	1.40000E+1	1.99988E+1	1.40009E+1
31	02/09/2022	15:41:57.460	0.00000E+0	0.00000E+0	4.00000E+1	0.00000E+0	0.00000E+0	0.00000E+0	2.00000E+1	1.40000E+1	2.00024E+1	1.39985E+1
32	02/09/2022	15:41:58.894	0.00000E+0	0.00000E+0	4.00000E+1	0.00000E+0	0.00000E+0	0.00000E+0	2.00000E+1	1.40000E+1	2.00018E+1	1.40001E+1
33	02/09/2022	15:42:00.327	0.00000E+0	0.00000E+0	4.00000E+1	0.00000E+0	0.00000E+0	0.00000E+0	2.00000E+1	1.40000E+1	1.99987E+1	1.40011E+1
34	02/09/2022	15:42:01.707	0.00000E+0	0.00000E+0	4.00000E+1	0.00000E+0	0.00000E+0	0.00000E+0	2.00000E+1	1.40000E+1	2.00002E+1	1.39985E+1
35	02/09/2022	15:42:03.217	0.00000E+0	0.00000E+0	4.00000E+1	0.00000E+0	0.00000E+0	0.00000E+0	2.00000E+1	1.40000E+1	2.00026E+1	1.40030E+1
36	02/09/2022	15:42:04.603	0.00000E+0	0.00000E+0	4.00000E+1	0.00000E+0	0.00000E+0	0.00000E+0	2.00000E+1	1.40000E+1	1.99993E+1	1.40025E+1
37	02/09/2022	15:42:06.140	0.00000E+0	0.00000E+0	4.00000E+1	0.00000E+0	0.00000E+0	0.00000E+0	2.00000E+1	1.40000E+1	2.00000E+1	1.40003E+1
38	02/09/2022	15:42:07.659	0.00000E+0	0.00000E+0	4.00000E+1	0.00000E+0	0.00000E+0	0.00000E+0	2.00000E+1	1.40000E+1	1.99984E+1	1.39997E+1
39	02/09/2022	15:42:09.024	0.00000E+0	0.00000E+0	4.00000E+1	0.00000E+0	0.00000E+0	0.00000E+0	2.00000E+1	1.40000E+1	2.00012E+1	1.40004E+1
40	02/09/2022	15:42:10.520	0.00000E+0	0.00000E+0	4.00000E+1	0.00000E+0	0.00000E+0	0.00000E+0	2.00000E+1	1.40000E+1	2.00005E+1	1.39980E+1
41	02/09/2022	15:42:11.920	0.00000E+0	0.00000E+0	4.00000E+1	0.00000E+0	0.00000E+0	0.00000E+0	2.00000E+1	1.40000E+1	1.99965E+1	1.40001E+1
42	02/09/2022	15:42:13.301	0.00000E+0	0.00000E+0	4.00000E+1	0.00000E+0	0.00000E+0	0.00000E+0	2.00000E+1	1.40000E+1	2.00029E+1	1.40006E+1
43	02/09/2022	15:42:14.841	0.00000E+0	0.00000E+0	4.00000E+1	0.00000E+0	0.00000E+0	0.00000E+0	2.00000E+1	1.40000E+1	2.00013E+1	1.39992E+1
44	02/09/2022	15:42:16.214	0.00000E+0	0.00000E+0	4.00000E+1	0.00000E+0	0.00000E+0	0.00000E+0	2.00000E+1	1.40000E+1	2.00031E+1	1.40003E+1
45	02/09/2022	15:42:17.604	0.00000E+0	0.00000E+0	4.00000E+1	0.00000E+0	0.00000E+0	0.00000E+0	2.00000E+1	1.40000E+1	2.00009E+1	1.40003E+1
46	02/09/2022	15:42:19.135	0.00000E+0	0.00000E+0	4.00000E+1	0.00000E+0	0.00000E+0	0.00000E+0	2.00000E+1	1.40000E+1	1.99986E+1	1.39991E+1
47	02/09/2022	15:42:20.522	0.00000E+0	0.00000E+0	4.00000E+1	0.00000E+0	0.00000E+0	0.00000E+0	2.00000E+1	1.40000E+1	2.00014E+1	1.40012E+1
48	02/09/2022	15:42:21.943	0.00000E+0	0.00000E+0	4.00000E+1	0.00000E+0	0.00000E+0	0.00000E+0	2.00000E+1	1.40000E+1	2.00018E+1	1.40012E+1
49	02/09/2022	15:42:23.336	0.00000E+0	0.00000E+0	4.00000E+1	0.00000E+0	0.00000E+0	0.00000E+0	2.00000E+1	1.40000E+1	2.00023E+1	1.39999E+1
50	02/09/2022	15:42:24.731	0.00000E+0	0.00000E+0	4.00000E+1	0.00000E+0	0.00000E+0	0.00000E+0	2.00000E+1	1.40000E+1	1.99985E+1	1.40008E+1
51	02/09/2022	15:42:26.260	0.00000E+0	0.00000E+0	4.00000E+1	0.00000E+0	0.00000E+0	0.00000E+0	2.00000E+1	1.40000E+1	1.99991E+1	1.39997E+1
52	02/09/2022	15:42:27.650	0.00000E+0	0.00000E+0	4.00000E+1	0.00000E+0	0.00000E+0	0.00000E+0	2.00000E+1	1.40000E+1	2.00009E+1	1.40005E+1
53	02/09/2022	15:42:29.099	0.00000E+0	0.00000E+0	4.00000E+1	0.00000E+0	0.00000E+0	0.00000E+0	2.00000E+1	1.40000E+1	1.99984E+1	1.40000E+1
54	02/09/2022	15:42:30.512	0.00000E+0	0.00000E+0	4.00000E+1	0.00000E+0	0.00000E+0	0.00000E+0	2.00000E+1	1.40000E+1	1.99998E+1	1.40012E+1
55	02/09/2022	15:42:31.903	0.00000E+0	0.00000E+0	4.00000E+1	0.00000E+0	0.00000E+0	0.00000E+0	2.00000E+1	1.40000E+1	2.00001E+1	1.39966E+1
56	02/09/2022	15:42:33.431	0.00000E+0	0.00000E+0	4.00000E+1	0.00000E+0	0.00000E+0	0.00000E+0	2.00000E+1	1.40000E+1	1.99981E+1	1.39984E+1
57	02/09/2022	15:42:34.804	0.00000E+0	0.00000E+0	4.00000E+1	0.00000E+0	0.00000E+0	0.00000E+0	2.00000E+1	1.40000E+1	2.00000E+1	1.39993E+1
58	02/09/2022	15:42:36.281	0.00000E+0	0.00000E+0	4.00000E+1	0.00000E+0	0.00000E+0	0.00000E+0	2.00000E+1	1.40000E+1	1.99997E+1	1.39997E+1
59	02/09/2022	15:42:37.767	0.00000E+0	0.00000E+0	4.00000E+1	0.00000E+0	0.00000E+0	0.00000E+0	2.00000E+1	1.40000E+1	1.99993E+1	1.39966E+1
60	02/09/2022	15:42:39.148	0.00000E+0	0.00000E+0	4.00000E+1	0.00000E+0	0.00000E+0	0.00000E+0	2.00000E+1	1.40000E+1	1.99985E+1	1.39978E+1
61	02/09/2022	15:42:40.643	0.00000E+0	0.00000E+0	4.00000E+1	0.00000E+0	0.00000E+0	0.00000E+0	2.00000E+1	1.40000E+1	2.00009E+1	1.39999E+1
62	02/09/2022	15:42:42.054	0.00000E+0	0.00000E+0	4.00000E+1	0.00000E+0	0.00000E+0	0.00000E+0	2.00000E+1	1.40000E+1	1.99972E+1	1.39988E+1
63	02/09/2022	15:42:43.436	0.00000E+0	0.00000E+0	4.00000E+1	0.00000E+0	0.00000E+0	0.00000E+0	2.00000E+1	1.40000E+1	1.99985E+1	1.40025E+1
64	02/09/2022	15:42:44.893	0.00000E+0	0.00000E+0	4.00000E+1	0.00000E+0	0.00000E+0	0.00000E+0	2.00000E+1	1.40000E+1	1.99990E+1	1.39996E+1
65	02/09/2022	15:42:46.283	0.00000E+0	0.00000E+0	4.00000E+1	0.00000E+0	0.00000E+0	0.00000E+0	2.00000E+1	1.40000E+1	2.00004E+1	1.39997E+1
66	02/09/2022	15:42:47.689	0.00000E+0	0.00000E+0	4.00000E+1	0.00000E+0	0.00000E+0	0.00000E+0	2.00000E+1	1.40000E+1	1.99989E+1	1.39987E+1
67	02/09/2022	15:42:49.174	0.00000E+0	0.00000E+0	4.00000E+1	0.00000E+0	0.00000E+0	0.00000E+0	2.00000E+1	1.40000E+1	1.99973E+1	1.39982E+1
68	02/09/2022	15:42:50.562	0.00000E+0	0.00000E+0	4.00000E+1	0.00000E+0	0.00000E+0	0.00000E+0	2.00000E+1	1.40000E+1	1.99999E+1	1.39970E+1
69	02/09/2022	15:42:52.030	0.00000E+0	0.00000E+0	4.00000E+1	0.00000E+0	0.00000E+0	0.00000E+0	2.00000E+1	1.40000E+1	2.00050E+1	1.40024E+1
70	02/09/2022	15:42:53.426	0.00000E+0	0.00000E+0	4.00000E+1	0.00000E+0	0.00000E+0	0.00000E+0	2.00000E+1	1.40000E+1	1.99995E+1	1.39991E+1
71	02/09/2022	15:42:54.793	0.00000E+0	0.00000E+0	4.00000E+1	0.00000E+0	0.00000E+0	0.00000E+0	2.00000E+1	1.40000E+1	2.00023E+1	1.40001E+1
72	02/09/2022	15:42:56.285	0.00000E+0	0.00000E+0	4.00000E+1	0.00000E+0	0.00000E+0	0.00000E+0	2.00000E+1	1.40000E+1	1.99991E+1	1.40002E+1
73	02/09/2022	15:42:57.671	0.00000E+0	0.00000E+0	4.00000E+1	0.00000E+0	0.00000E+0	0.00000E+0	2.00000E+1	1.40000E+1	2.00004E+1	1.40011E+1
74	02/09/2022	15:42:59.232	0.00000E+0	0.00000E+0	4.00000E+1	0.00000E+0	0.00000E+0	0.00000E+0	2.00000E+1	1.40000E+1	1.99987E+1	1.40025E+1
75	02/09/2022	15:43:00.628	0.00000E+0	0.00000E+0	4.00000E+1	0.00000E+0	0.00000E+0	0.00000E+0	2.00000E+1	1.40000E+1	2.00028E+1	1.39998E+1
76	02/09/2022	15:43:02.007	0.00000E+0	0.00000E+0	4.00000E+1	0.00000E+0	0.00000E+0	0.00000E+0	2.00000E+1	1.40000E+1	1.99997E+1	1.40012E+1
77	02/09/2022	15:43:03.573	0.00000E+0	0.00000E+0	4.00000E+1	0.00000E+0	0.00000E+0	0.00000E+0	2.00000E+1	1.40000E+1	2.00001E+1	1.40020E+1
78	02/09/2022	15:43:04.962	0.00000E+0	0.00000E+0	4.00000E+1	0.00000E+0	0.00000E+0	0.00000E+0	2.00000E+1	1.40000E+1	1.99985E+1	1.39998E+1
79	02/09/2022	15:43:06.419	0.00000E+0	0.00000E+0	4.00000E+1	0.00000E+0	0.00000E+0	0.00000E+0	2.00000E+1	1.40000E+1	2.00019E+1	1.40001E+1
80	02/09/2022	15:43:07.919	0.00000E+0	0.00000E+0	4.00000E+1	0.00000E+0	0.00000E+0	0.00000E+0	2.00000E+1	1.40000E+1	2.00009E+1	1.39996E+1
81	02/09/2022	15:43:09.320	0.00000E+0	0.00000E+0	4.00000E+1	0.00000E+0	0.00000E+0	0.00000E+0	2.00000E+1	1.40000E+1	1.99994E+1	1.40009E+1
82	02/09/2022	15:43:10.839	0.00000E+0	0.00000E+0	4.00000E+1	0.00000E+0	0.00000E+0	0.00000E+0	2.00000E+1	1.40000E+1	2.00023E+1	1.39974E+1
83	02/09/2022	15:43:12.215	0.00000E+0	0.00000E+0	4.00000E+1	0.00000E+0	0.00000E+0	0.00000E+0	2.00000E+1	1.40000E+1	2.00017E+1	1.39995E+1
84	02/09/2022	15:43:13.614	0.00000E+0	0.00000E+0	4.00000E+1	0.00000E+0	0.00000E+0	0.00000E+0	2.00000E+1	1.40000E+1	1.99998E+1	1.39973E+1
85	02/09/2022	15:43:15.182	0.00000E+0	0.00000E+0	4.00000E+1	0.00000E+0	0.00000E+0	0.00000E+0	2.00000E+1	1.40000E+1	1.99990E+1	1.39998E+1
86	02/09/2022	15:43:16.552	0.00000E+0	0.00000E+0	4.00000E+1	0.00000E+0	0.00000E+0	0.00000E+0	2.00000E+1	1.40000E+1	2.00005E+1	1.40013E+1
87	02/09/2022	15:43:17.974	0.00000E+0	0.00000E+0	4.00000E+1	0.00000E+0	0.00000E+0	0.00000E+0	2.00000E+1	1.40000E+1	2.00000E+1	1.40036E+1
88	02/09/2022	15:43:19.459	0.00000E+0	0.00000E+0	4.00000E+1	0.00000E+0	0.00000E+0	0.00000E+0	2.00000E+1	1.40000E+1	1.99977E+1	1.39987E+1
89	02/09/2022	15:43:20.863	0.00000E+0	0.00000E+0	4.00000E+1	0.00000E+0	0.00000E+0	0.00000E+0	2.00000E+1	1.40000E+1	1.99968E+1	1.40012E+1
90	02/09/2022	15:43:22.337	0.00000E+0	0.00000E+0	4.00000E+1	0.00000E+0	0.00000E+0	0.00000E+0	2.00000E+1	1.40000E+1	2.00017E+1	1.40004E+1
91	02/09/2022	15:43:23.746	0.00000E+0	0.00000E+0	4.00000E+1	0.00000E+0	0.00000E+0	0.00000E+0	2.00000E+1	1.40000E+1	1.99984E+1	1.39985E+1
92	02/09/2022	15:43:25.133	0.00000E+0	0.00000E+0	4.00000E+1	0.00000E+0	0.00000E+0	0.00000E+0	2.00000E+1	1.40000E+1	1.99997E+1	1.40014E+1
93	02/09/2022	15:43:26.706	0.00000E+0	0.00000E+0	4.00000E+1	0.00000E+0	0.00000E+0	0.00000E+0	2.00000E+1	1.40000E+1	1.99987E+1	1.39995E+1
94	02/09/2022	15:43:28.109	0.00000E+0	0.00000E+0	4.00000E+1	0.00000E+0	0.00000E+0	0.00000E+0	2.00000E+1	1.40000E+1	1.99991E+1	1.39995E+1
95	02/09/2022	15:43:29.511	0.00000E+0	0.00000E+0	4.00000E+1	0.00000E+0	0.00000E+0	0.00000E+0	2.00000E+1	1.40000E+1	2.00020E+1	1.40018E+1
96	02/09/2022	15:43:30.947	0.00000E+0	0.00000E+0	4.00000E+1	0.00000E+0	0.00000E+0	0.00000E+0	2.00000E+1	1.40000E+1	1.99973E+1	1.39986E+1
97	02/09/2022	15:43:32.354	0.00000E+0	0.00000E+0	4.00000E+1	0.00000E+0	0.00000E+0	0.00000E+0	2.00000E+1	1.40000E+1	1.99992E+1	1.40017E+1
98	02/09/2022	15:43:33.811	0.00000E+0	0.00000E+0	4.00000E+1	0.00000E+0	0.00000E+0	0.00000E+0	2.00000E+1	1.40000E+1	2.00002E+1	1.40012E+1
99	02/09/2022	15:43:35.211	0.00000E+0	0.00000E+0	4.00000E+1	0.00000E+0	0.00000E+0	0.00000E+0	2.00000E+1	1.40000E+1	2.00009E+1	1.39991E+1
100	02/09/2022	15:43:36.638	0.00000E+0	0.00000E+0	4.00000E+1	0.00000E+0	0.00000E+0	0.00000E+0	2.00000E+1	1.40000E+1	2.00031E+1	1.40017E+1
101	02/09/2022	15:43:38.153	0.00000E+0	0.00000E+0	4.00000E+1	0.00000E+0	0.00000E+0	0.00000E+0	2.00000E+1	1.40000E+1	2.00004E+1	1.39985E+1
102	02/09/2022	15:43:39.531	0.00000E+0	0.00000E+0	4.00000E+1	0.00000E+0	0.00000E+0	0.00000E+0	2.00000E+1	1.40000E+1	1.99992E+1	1.40008E+1
103	02/09/2022	15:43:40.967	0.00000E+0	0.00000E+0	4.00000E+1	0.00000E+0	0.00000E+0	0.00000E+0	2.00000E+1	1.40000E+1	1.99988E+1	1.40008E+1
104	02/09/2022	15:43:42.362	0.00000E+0	0.00000E+0	4.00000E+1	0.00000E+0	0.00000E+0	0.00000E+0	2.00000E+1	1.40000E+1	2.00001E+1	1.40025E+1
105	02/09/2022	15:43:43.766	0.00000E+0	0.00000E+0	4.00000E+1	0.00000E+0	0.00000E+0	0.00000E+0	2.00000E+1	1.40000E+1	1.99980E+1	1.40007E+1
106	02/09/2022	15:43:45.289	0.00000E+0	0.00000E+0	4.00000E+1	0.00000E+0	0.00000E+0	0.00000E+0	2.00000E+1	1.40000E+1	2.00023E+1	1.40012E+1
107	02/09/2022	15:43:46.664	0.00000E+0	0.00000E+0	4.00000E+1	0.00000E+0	0.00000E+0	0.00000E+0	2.00000E+1	1.40000E+1	2.00019E+1	1.40002E+1
108	02/09/2022	15:43:48.100	0.00000E+0	0.00000E+0	4.00000E+1	0.00000E+0	0.00000E+0	0.00000E+0	2.00000E+1	1.40000E+1	2.00011E+1	1.39998E+1
109	02/09/2022	15:43:49.497	0.00000E+0	0.00000E+0	4.00000E+1	0.00000E+0	0.00000E+0	0.00000E+0	2.00000E+1	1.40000E+1	2.00004E+1	1.39983E+1
110	02/09/2022	15:43:50.892	0.00000E+0	0.00000E+0	4.00000E+1	0.00000E+0	0.00000E+0	0.00000E+0	2.00000E+1	1.40000E+1	1.99982E+1	1.40010E+1
111	02/09/2022	15:43:52.417	0.00000E+0	0.00000E+0	4.00000E+1	0.00000E+0	0.00000E+0	0.00000E+0	2.00000E+1	1.40000E+1	2.00006E+1	1.40018E+1
112	02/09/2022	15:43:53.786	0.00000E+0	0.00000E+0	4.00000E+1	0.00000E+0	0.00000E+0	0.00000E+0	2.00000E+1	1.40000E+1	2.00000E+1	1.39989E+1
113	02/09/2022	15:43:55.234	0.00000E+0	0.00000E+0	4.00000E+1	0.00000E+0	0.00000E+0	0.00000E+0	2.00000E+1	1.40000E+1	2.00002E+1	1.39997E+1
114	02/09/2022	15:43:56.726	0.00000E+0	0.00000E+0	4.00000E+1	0.00000E+0	0.00000E+0	0.00000E+0	2.00000E+1	1.40000E+1	1.99984E+1	1.39988E+1
115	02/09/2022	15:43:58.106	0.00000E+0	0.00000E+0	4.00000E+1	0.00000E+0	0.00000E+0	0.00000E+0	2.00000E+1	1.40000E+1	2.00004E+1	1.40000E+1
116	02/09/2022	15:43:59.623	0.00000E+0	0.00000E+0	4.00000E+1	0.00000E+0	0.00000E+0	0.00000E+0	2.00000E+1	1.40000E+1	1.99990E+1	1.40003E+1
117	02/09/2022	15:44:00.999	0.00000E+0	0.00000E+0	4.00000E+1	0.00000E+0	0.00000E+0	0.00000E+0	2.00000E+1	1.40000E+1	2.00019E+1	1.39975E+1
118	02/09/2022	15:44:02.401	0.00000E+0	0.00000E+0	4.00000E+1	0.00000E+0	0.00000E+0	0.00000E+0	2.00000E+1	1.40000E+1	2.00009E+1	1.39969E+1
119	02/09/2022	15:44:03.893	0.00000E+0	0.00000E+0	4.00000E+1	0.00000E+0	0.00000E+0	0.00000E+0	2.00000E+1	1.40000E+1	1.99990E+1	1.40014E+1
120	02/09/2022	15:44:05.263	0.00000E+0	0.00000E+0	4.00000E+1	0.00000E+0	0.00000E+0	0.00000E+0	2.00000E+1	1.40000E+1	2.00030E+1	1.39994E+1
121	02/09/2022	15:44:06.700	0.00000E+0	0.00000E+0	4.00000E+1	0.00000E+0	0.00000E+0	0.00000E+0	2.00000E+1	1.40000E+1	1.99988E+1	1.39999E+1
122	02/09/2022	15:44:08.226	0.00000E+0	0.00000E+0	4.00000E+1	0.00000E+0	0.00000E+0	0.00000E+0	2.00000E+1	1.40000E+1	1.99979E+1	1.39995E+1
123	02/09/2022	15:44:09.599	0.00000E+0	0.00000E+0	4.00000E+1	0.00000E+0	0.00000E+0	0.00000E+0	2.00000E+1	1.40000E+1	1.99999E+1	1.40008E+1
124	02/09/2022	15:44:11.056	0.00000E+0	0.00000E+0	4.00000E+1	0.00000E+0	0.00000E+0	0.00000E+0	2.00000E+1	1.40000E+1	1.99991E+1	1.40001E+1
125	02/09/2022	15:44:12.450	0.00000E+0	0.00000E+0	4.00000E+1	0.00000E+0	0.00000E+0	0.00000E+0	2.00000E+1	1.40000E+1	1.99982E+1	1.40010E+1
126	02/09/2022	15:44:13.830	0.00000E+0	0.00000E+0	4.00000E+1	0.00000E+0	0.00000E+0	0.00000E+0	2.00000E+1	1.40000E+1	2.00013E+1	1.40022E+1
127	02/09/2022	15:44:15.291	0.00000E+0	0.00000E+0	4.00000E+1	0.00000E+0	0.00000E+0	0.00000E+0	2.00000E+1	1.40000E+1	1.99986E+1	1.40020E+1
128	02/09/2022	15:44:16.673	0.00000E+0	0.00000E+0	4.00000E+1	0.00000E+0	0.00000E+0	0.00000E+0	2.00000E+1	1.40000E+1	2.00021E+1	1.39987E+1
129	02/09/2022	15:44:18.123	0.00000E+0	0.00000E+0	4.00000E+1	0.00000E+0	0.00000E+0	0.00000E+0	2.00000E+1	1.40000E+1	2.00013E+1	1.40020E+1
130	02/09/2022	15:44:19.610	0.00000E+0	0.00000E+0	4.00000E+1	0.00000E+0	0.00000E+0	0.00000E+0	2.00000E+1	1.40000E+1	2.00024E+1	1.40006E+1
131	02/09/2022	15:44:21.002	0.00000E+0	0.00000E+0	4.00000E+1	0.00000E+0	0.00000E+0	0.00000E+0	2.00000E+1	1.40000E+1	1.99995E+1	1.40010E+1
132	02/09/2022	15:44:22.551	0.00000E+0	0.00000E+0	4.00000E+1	0.00000E+0	0.00000E+0	0.00000E+0	2.00000E+1	1.40000E+1	1.99996E+1	1.40019E+1
133	02/09/2022	15:44:23.952	0.00000E+0	0.00000E+0	4.00000E+1	0.00000E+0	0.00000E+0	0.00000E+0	2.00000E+1	1.40000E+1	1.99981E+1	1.39991E+1
134	02/09/2022	15:44:25.381	0.00000E+0	0.00000E+0	4.00000E+1	0.00000E+0	0.00000E+0	0.00000E+0	2.00000E+1	1.40000E+1	1.99993E+1	1.39989E+1
135	02/09/2022	15:44:26.874	0.00000E+0	0.00000E+0	4.00000E+1	0.00000E+0	0.00000E+0	0.00000E+0	2.00000E+1	1.40000E+1	1.99983E+1	1.39996E+1
136	02/09/2022	15:44:28.261	0.00000E+0	0.00000E+0	4.00000E+1	0.00000E+0	0.00000E+0	0.00000E+0	2.00000E+1	1.40000E+1	1.99984E+1	1.40002E+1
137	02/09/2022	15:44:29.750	0.00000E+0	0.00000E+0	4.00000E+1	0.00000E+0	0.00000E+0	0.00000E+0	2.00000E+1	1.40000E+1	1.99981E+1	1.39982E+1
138	02/09/2022	15:44:31.132	0.00000E+0	0.00000E+0	4.00000E+1	0.00000E+0	0.00000E+0	0.00000E+0	2.00000E+1	1.40000E+1	2.00023E+1	1.39995E+1
139	02/09/2022	15:44:32.513	0.00000E+0	0.00000E+0	4.00000E+1	0.00000E+0	0.00000E+0	0.00000E+0	2.00000E+1	1.40000E+1	2.00002E+1	1.40005E+1
140	02/09/2022	15:44:34.067	0.00000E+0	0.00000E+0	4.00000E+1	0.00000E+0	0.00000E+0	0.00000E+0	2.00000E+1	1.40000E+1	1.99985E+1	1.39994E+1
141	02/09/2022	15:44:35.454	0.00000E+0	0.00000E+0	4.00000E+1	0.00000E+0	0.00000E+0	0.00000E+0	2.00000E+1	1.40000E+1	1.99982E+1	1.39995E+1
142	02/09/2022	15:44:36.902	0.00000E+0	0.00000E+0	4.00000E+1	0.00000E+0	0.00000E+0	0.00000E+0	2.00000E+1	1.40000E+1	2.00023E+1	1.40015E+1
143	02/09/2022	15:44:38.400	0.00000E+0	0.00000E+0	4.00000E+1	0.00000E+0	0.00000E+0	0.00000E+0	2.00000E+1	1.40000E+1	2.00008E+1	1.39986E+1
144	02/09/2022	15:44:39.803	0.00000E+0	0.00000E+0	4.00000E+1	0.00000E+0	0.00000E+0	0.00000E+0	2.00000E+1	1.40000E+1	2.00014E+1	1.40009E+1
145	02/09/2022	15:44:41.296	0.00000E+0	0.00000E+0	4.00000E+1	0.00000E+0	0.00000E+0	0.00000E+0	2.00000E+1	1.40000E+1	2.00010E+1	1.39992E+1
146	02/09/2022	15:44:42.676	0.00000E+0	0.00000E+0	4.00000E+1	0.00000E+0	0.00000E+0	0.00000E+0	2.00000E+1	1.40000E+1	1.99980E+1	1.40009E+1
147	02/09/2022	15:44:44.128	0.00000E+0	0.00000E+0	4.00000E+1	0.00000E+0	0.00000E+0	0.00000E+0	2.00000E+1	1.40000E+1	2.00000E+1	1.39995E+1
148	02/09/2022	15:44:45.636	0.00000E+0	0.00000E+0	4.00000E+1	0.00000E+0	0.00000E+0	0.00000E+0	2.00000E+1	1.40000E+1	1.99974E+1	1.39984E+1
149	02/09/2022	15:44:47.001	0.00000E+0	0.00000E+0	4.00000E+1	0.00000E+0	0.00000E+0	0.00000E+0	2.00000E+1	1.40000E+1	2.00019E+1	1.40010E+1
150	02/09/2022	15:44:48.553	0.00000E+0	0.00000E+0	4.00000E+1	0.00000E+0	0.00000E+0	0.00000E+0	2.00000E+1	1.40000E+1	1.99991E+1	1.39989E+1
151	02/09/2022	15:44:49.938	0.00000E+0	0.00000E+0	4.00000E+1	0.00000E+0	0.00000E+0	0.00000E+0	2.00000E+1	1.40000E+1	1.99983E+1	1.39997E+1
152	02/09/2022	15:44:51.371	0.00000E+0	0.00000E+0	4.00000E+1	0.00000E+0	0.00000E+0	0.00000E+0	2.00000E+1	1.40000E+1	2.00017E+1	1.40026E+1
153	02/09/2022	15:44:52.876	0.00000E+0	0.00000E+0	4.00000E+1	0.00000E+0	0.00000E+0	0.00000E+0	2.00000E+1	1.40000E+1	2.00023E+1	1.40013E+1
154	02/09/2022	15:44:54.285	0.00000E+0	0.00000E+0	4.00000E+1	0.00000E+0	0.00000E+0	0.00000E+0	2.00000E+1	1.40000E+1	2.00001E+1	1.39990E+1
155	02/09/2022	15:44:55.746	0.00000E+0	0.00000E+0	4.00000E+1	0.00000E+0	0.00000E+0	0.00000E+0	2.00000E+1	1.40000E+1	2.00011E+1	1.39981E+1
156	02/09/2022	15:44:57.233	0.00000E+0	0.00000E+0	4.00000E+1	0.00000E+0	0.00000E+0	0.00000E+0	2.00000E+1	1.40000E+1	1.99987E+1	1.40014E+1
157	02/09/2022	15:44:58.638	0.00000E+0	0.00000E+0	4.00000E+1	0.00000E+0	0.00000E+0	0.00000E+0	2.00000E+1	1.40000E+1	1.99998E+1	1.39996E+1
158	02/09/2022	15:45:00.097	0.00000E+0	0.00000E+0	4.00000E+1	0.00000E+0	0.00000E+0	0.00000E+0	2.00000E+1	1.40000E+1	1.99999E+1	1.40009E+1
159	02/09/2022	15:45:01.476	0.00000E+0	0.00000E+0	4.00000E+1	0.00000E+0	0.00000E+0	0.00000E+0	2.00000E+1	1.40000E+1	1.99985E+1	1.40004E+1
160	02/09/2022	15:45:02.862	0.00000E+0	0.00000E+0	4.00000E+1	0.00000E+0	0.00000E+0	0.00000E+0	2.00000E+1	1.40000E+1	1.99989E+1	1.39999E+1
161	02/09/2022	15:45:04.408	0.00000E+0	0.00000E+0	4.00000E+1	0.00000E+0	0.00000E+0	0.00000E+0	2.00000E+1	1.40000E+1	2.00010E+1	1.39993E+1
162	02/09/2022	15:45:05.817	0.00000E+0	0.00000E+0	4.00000E+1	0.00000E+0	0.00000E+0	0.00000E+0	2.00000E+1	1.40000E+1	1.99993E+1	1.40003E+1
163	02/09/2022	15:45:07.199	0.00000E+0	0.00000E+0	4.00000E+1	0.00000E+0	0.00000E+0	0.00000E+0	2.00000E+1	1.40000E+1	1.99993E+1	1.39998E+1
164	02/09/2022	15:45:08.561	0.00000E+0	0.00000E+0	4.00000E+1	0.00000E+0	0.00000E+0	0.00000E+0	2.00000E+1	1.40000E+1	1.99987E+1	1.40000E+1
165	02/09/2022	15:45:09.973	0.00000E+0	0.00000E+0	4.00000E+1	0.00000E+0	0.00000E+0	0.00000E+0	2.00000E+1	1.40000E+1	1.99995E+1	1.39998E+1
166	02/09/2022	15:45:11.521	0.00000E+0	0.00000E+0	4.00000E+1	0.00000E+0	0.00000E+0	0.00000E+0	2.00000E+1	1.40000E+1	2.00027E+1	1.40001E+1
167	02/09/2022	15:45:12.906	0.00000E+0	0.00000E+0	4.00000E+1	0.00000E+0	0.00000E+0	0.00000E+0	2.00000E+1	1.40000E+1	2.00013E+1	1.40000E+1
168	02/09/2022	15:45:14.306	0.00000E+0	0.00000E+0	4.00000E+1	0.00000E+0	0.00000E+0	0.00000E+0	2.00000E+1	1.40000E+1	2.00006E+1	1.40015E+1
169	02/09/2022	15:45:15.796	0.00000E+0	0.00000E+0	4.00000E+1	0.00000E+0	0.00000E+0	0.00000E+0	2.00000E+1	1.40000E+1	2.00012E+1	1.40003E+1
170	02/09/2022	15:45:17.181	0.00000E+0	0.00000E+0	4.00000E+1	0.00000E+0	0.00000E+0	0.00000E+0	2.00000E+1	1.40000E+1	1.99999E+1	1.40005E+1
171	02/09/2022	15:45:18.709	0.00000E+0	0.00000E+0	4.00000E+1	0.00000E+0	0.00000E+0	0.00000E+0	2.00000E+1	1.40000E+1	2.00009E+1	1.40000E+1
172	02/09/2022	15:45:20.114	0.00000E+0	0.00000E+0	4.00000E+1	0.00000E+0	0.00000E+0	0.00000E+0	2.00000E+1	1.40000E+1	2.00005E+1	1.39993E+1
173	02/09/2022	15:45:21.501	0.00000E+0	0.00000E+0	4.00000E+1	0.00000E+0	0.00000E+0	0.00000E+0	2.00000E+1	1.40000E+1	1.99999E+1	1.39959E+1
174	02/09/2022	15:45:23.043	0.00000E+0	0.00000E+0	4.00000E+1	0.00000E+0	0.00000E+0	0.00000E+0	2.00000E+1	1.40000E+1	1.99974E+1	1.40015E+1
175	02/09/2022	15:45:24.416	0.00000E+0	0.00000E+0	4.00000E+1	0.00000E+0	0.00000E+0	0.00000E+0	2.00000E+1	1.40000E+1	2.00010E+1	1.40008E+1
176	02/09/2022	15:45:25.845	0.00000E+0	0.00000E+0	4.00000E+1	0.00000E+0	0.00000E+0	0.00000E+0	2.00000E+1	1.40000E+1	2.00003E+1	1.40017E+1
177	02/09/2022	15:45:27.318	0.00000E+0	0.00000E+0	4.00000E+1	0.00000E+0	0.00000E+0	0.00000E+0	2.00000E+1	1.40000E+1	1.99984E+1	1.40003E+1
178	02/09/2022	15:45:28.716	0.00000E+0	0.00000E+0	4.00000E+1	0.00000E+0	0.00000E+0	0.00000E+0	2.00000E+1	1.40000E+1	1.99998E+1	1.39996E+1
179	02/09/2022	15:45:30.213	0.00000E+0	0.00000E+0	4.00000E+1	0.00000E+0	0.00000E+0	0.00000E+0	2.00000E+1	1.40000E+1	1.99996E+1	1.40019E+1
180	02/09/2022	15:45:31.624	0.00000E+0	0.00000E+0	4.00000E+1	0.00000E+0	0.00000E+0	0.00000E+0	2.00000E+1	1.40000E+1	1.99968E+1	1.40000E+1
181	02/09/2022	15:45:33.010	0.00000E+0	0.00000E+0	4.00000E+1	0.00000E+0	0.00000E+0	0.00000E+0	2.00000E+1	1.40000E+1	1.99996E+1	1.40013E+1
182	02/09/2022	15:45:34.460	0.00000E+0	0.00000E+0	4.00000E+1	0.00000E+0	0.00000E+0	0.00000E+0	2.00000E+1	1.40000E+1	2.00000E+1	1.39971E+1
183	02/09/2022	15:45:35.849	0.00000E+0	0.00000E+0	4.00000E+1	0.00000E+0	0.00000E+0	0.00000E+0	2.00000E+1	1.40000E+1	1.99977E+1	1.39991E+1
184	02/09/2022	15:45:37.364	0.00000E+0	0.00000E+0	4.00000E+1	0.00000E+0	0.00000E+0	0.00000E+0	2.00000E+1	1.40000E+1	1.99995E+1	1.39997E+1
185	02/09/2022	15:45:38.804	0.00000E+0	0.00000E+0	4.00000E+1	0.00000E+0	0.00000E+0	0.00000E+0	2.00000E+1	1.40000E+1	1.99986E+1	1.40009E+1
186	02/09/2022	15:45:40.200	0.00000E+0	0.00000E+0	4.00000E+1	0.00000E+0	0.00000E+0	0.00000E+0	2.00000E+1	1.40000E+1	1.99994E+1	1.39992E+1
187	02/09/2022	15:45:41.726	0.00000E+0	0.00000E+0	4.00000E+1	0.00000E+0	0.00000E+0	0.00000E+0	2.00000E+1	1.40000E+1	1.99987E+1	1.39982E+1
188	02/09/2022	15:45:43.100	0.00000E+0	0.00000E+0	4.00000E+1	0.00000E+0	0.00000E+0	0.00000E+0	2.00000E+1	1.40000E+1	1.99996E+1	1.39987E+1
189	02/09/2022	15:45:44.529	0.00000E+0	0.00000E+0	4.00000E+1	0.00000E+0	0.00000E+0	0.00000E+0	2.00000E+1	1.40000E+1	1.99987E+1	1.39981E+1
190	02/09/2022	15:45:46.041	0.00000E+0	0.00000E+0	4.00000E+1	0.00000E+0	0.00000E+0	0.00000E+0	2.00000E+1	1.40000E+1	2.00001E+1	1.39998E+1
191	02/09/2022	15:45:47.421	0.00000E+0	0.00000E+0	4.00000E+1	0.00000E+0	0.00000E+0	0.00000E+0	2.00000E+1	1.40000E+1	2.00007E+1	1.39996E+1
192	02/09/2022	15:45:48.908	0.00000E+0	0.00000E+0	4.00000E+1	0.00000E+0	0.00000E+0	0.00000E+0	2.00000E+1	1.40000E+1	2.00002E+1	1.40002E+1
193	02/09/2022	15:45:50.295	0.00000E+0	0.00000E+0	4.00000E+1	0.00000E+0	0.00000E+0	0.00000E+0	2.00000E+1	1.40000E+1	2.00036E+1	1.39998E+1
194	02/09/2022	15:45:51.682	0.00000E+0	0.00000E+0	4.00000E+1	0.00000E+0	0.00000E+0	0.00000E+0	2.00000E+1	1.40000E+1	2.00006E+1	1.40008E+1
195	02/09/2022	15:45:53.181	0.00000E+0	0.00000E+0	4.00000E+1	0.00000E+0	0.00000E+0	0.00000E+0	2.00000E+1	1.40000E+1	2.00017E+1	1.39982E+1
196	02/09/2022	15:45:54.556	0.00000E+0	0.00000E+0	4.00000E+1	0.00000E+0	0.00000E+0	0.00000E+0	2.00000E+1	1.40000E+1	1.99986E+1	1.40015E+1
197	02/09/2022	15:45:56.006	0.00000E+0	0.00000E+0	4.00000E+1	0.00000E+0	0.00000E+0	0.00000E+0	2.00000E+1	1.40000E+1	2.00001E+1	1.40004E+1
198	02/09/2022	15:45:57.490	0.00000E+0	0.00000E+0	4.00000E+1	0.00000E+0	0.00000E+0	0.00000E+0	2.00000E+1	1.40000E+1	2.00029E+1	1.39984E+1
199	02/09/2022	15:45:58.878	0.00000E+0	0.00000E+0	4.00000E+1	0.00000E+0	0.00000E+0	0.00000E+0	2.00000E+1	1.40000E+1	2.00005E+1	1.40004E+1
200	02/09/2022	15:46:00.366	0.00000E+0	0.00000E+0	4.00000E+1	0.00000E+0	0.00000E+0	0.00000E+0	2.00000E+1	1.40000E+1	2.00001E+1	1.40011E+1
201	02/09/2022	15:46:01.771	0.00000E+0	0.00000E+0	4.00000E+1	0.00000E+0	0.00000E+0	0.00000E+0	2.00000E+1	1.40000E+1	2.00027E+1	1.39993E+1
202	02/09/2022	15:46:03.220	0.00000E+0	0.00000E+0	4.00000E+1	0.00000E+0	0.00000E+0	0.00000E+0	2.00000E+1	1.40000E+1	2.00010E+1	1.39992E+1
203	02/09/2022	15:46:04.723	0.00000E+0	0.00000E+0	4.00000E+1	0.00000E+0	0.00000E+0	0.00000E+0	2.00000E+1	1.40000E+1	1.99999E+1	1.40011E+1
204	02/09/2022	15:46:06.095	0.00000E+0	0.00000E+0	4.00000E+1	0.00000E+0	0.00000E+0	0.00000E+0	2.00000E+1	1.40000E+1	1.99992E+1	1.39987E+1
205	02/09/2022	15:46:07.571	0.00000E+0	0.00000E+0	4.00000E+1	0.00000E+0	0.00000E+0	0.00000E+0	2.00000E+1	1.40000E+1	1.99970E+1	1.40017E+1
206	02/09/2022	15:46:09.014	0.00000E+0	0.00000E+0	4.00000E+1	0.00000E+0	0.00000E+0	0.00000E+0	2.00000E+1	1.40000E+1	2.00001E+1	1.39981E+1
207	02/09/2022	15:46:10.401	0.00000E+0	0.00000E+0	4.00000E+1	0.00000E+0	0.00000E+0	0.00000E+0	2.00000E+1	1.40000E+1	1.99995E+1	1.40017E+1
208	02/09/2022	15:46:11.878	0.00000E+0	0.00000E+0	4.00000E+1	0.00000E+0	0.00000E+0	0.00000E+0	2.00000E+1	1.40000E+1	1.99982E+1	1.39998E+1
209	02/09/2022	15:46:13.278	0.00000E+0	0.00000E+0	4.00000E+1	0.00000E+0	0.00000E+0	0.00000E+0	2.00000E+1	1.40000E+1	1.99997E+1	1.40016E+1
210	02/09/2022	15:46:14.670	0.00000E+0	0.00000E+0	4.00000E+1	0.00000E+0	0.00000E+0	0.00000E+0	2.00000E+1	1.40000E+1	2.00006E+1	1.39988E+1
211	02/09/2022	15:46:16.176	0.00000E+0	0.00000E+0	4.00000E+1	0.00000E+0	0.00000E+0	0.00000E+0	2.00000E+1	1.40000E+1	1.99996E+1	1.40012E+1
212	02/09/2022	15:46:17.571	0.00000E+0	0.00000E+0	4.00000E+1	0.00000E+0	0.00000E+0	0.00000E+0	2.00000E+1	1.40000E+1	2.00012E+1	1.40001E+1
213	02/09/2022	15:46:19.092	0.00000E+0	0.00000E+0	4.00000E+1	0.00000E+0	0.00000E+0	0.00000E+0	2.00000E+1	1.40000E+1	1.99988E+1	1.40006E+1
214	02/09/2022	15:46:20.496	0.00000E+0	0.00000E+0	4.00000E+1	0.00000E+0	0.00000E+0	0.00000E+0	2.00000E+1	1.40000E+1	1.99991E+1	1.39997E+1
215	02/09/2022	15:46:21.879	0.00000E+0	0.00000E+0	4.00000E+1	0.00000E+0	0.00000E+0	0.00000E+0	2.00000E+1	1.40000E+1	1.99986E+1	1.39998E+1
216	02/09/2022	15:46:23.436	0.00000E+0	0.00000E+0	4.00000E+1	0.00000E+0	0.00000E+0	0.00000E+0	2.00000E+1	1.40000E+1	2.00005E+1	1.39992E+1
217	02/09/2022	15:46:24.821	0.00000E+0	0.00000E+0	4.00000E+1	0.00000E+0	0.00000E+0	0.00000E+0	2.00000E+1	1.40000E+1	1.99989E+1	1.40009E+1
218	02/09/2022	15:46:26.273	0.00000E+0	0.00000E+0	4.00000E+1	0.00000E+0	0.00000E+0	0.00000E+0	2.00000E+1	1.40000E+1	1.99999E+1	1.40013E+1
219	02/09/2022	15:46:27.657	0.00000E+0	0.00000E+0	4.00000E+1	0.00000E+0	0.00000E+0	0.00000E+0	2.00000E+1	1.40000E+1	1.99992E+1	1.40040E+1
220	02/09/2022	15:46:29.051	0.00000E+0	0.00000E+0	4.00000E+1	0.00000E+0	0.00000E+0	0.00000E+0	2.00000E+1	1.40000E+1	1.99996E+1	1.39997E+1
221	02/09/2022	15:46:30.519	0.00000E+0	0.00000E+0	4.00000E+1	0.00000E+0	0.00000E+0	0.00000E+0	2.00000E+1	1.40000E+1	1.99984E+1	1.40017E+1
222	02/09/2022	15:46:31.909	0.00000E+0	0.00000E+0	4.00000E+1	0.00000E+0	0.00000E+0	0.00000E+0	2.00000E+1	1.40000E+1	2.00018E+1	1.40032E+1
223	02/09/2022	15:46:33.367	0.00000E+0	0.00000E+0	4.00000E+1	0.00000E+0	0.00000E+0	0.00000E+0	2.00000E+1	1.40000E+1	2.00015E+1	1.40013E+1
224	02/09/2022	15:46:34.847	0.00000E+0	0.00000E+0	4.00000E+1	0.00000E+0	0.00000E+0	0.00000E+0	2.00000E+1	1.40000E+1	1.99988E+1	1.40010E+1
225	02/09/2022	15:46:36.239	0.00000E+0	0.00000E+0	4.00000E+1	0.00000E+0	0.00000E+0	0.00000E+0	2.00000E+1	1.40000E+1	1.99979E+1	1.40000E+1
226	02/09/2022	15:46:37.716	0.00000E+0	0.00000E+0	4.00000E+1	0.00000E+0	0.00000E+0	0.00000E+0	2.00000E+1	1.40000E+1	2.00026E+1	1.40010E+1
227	02/09/2022	15:46:39.083	0.00000E+0	0.00000E+0	4.00000E+1	0.00000E+0	0.00000E+0	0.00000E+0	2.00000E+1	1.40000E+1	2.00016E+1	1.40009E+1
228	02/09/2022	15:46:40.477	0.00000E+0	0.00000E+0	4.00000E+1	0.00000E+0	0.00000E+0	0.00000E+0	2.00000E+1	1.40000E+1	1.99996E+1	1.39988E+1
229	02/09/2022	15:46:42.027	0.00000E+0	0.00000E+0	4.00000E+1	0.00000E+0	0.00000E+0	0.00000E+0	2.00000E+1	1.40000E+1	1.99995E+1	1.40001E+1
230	02/09/2022	15:46:43.429	0.00000E+0	0.00000E+0	4.00000E+1	0.00000E+0	0.00000E+0	0.00000E+0	2.00000E+1	1.40000E+1	2.00013E+1	1.40009E+1
231	02/09/2022	15:46:44.862	0.00000E+0	0.00000E+0	4.00000E+1	0.00000E+0	0.00000E+0	0.00000E+0	2.00000E+1	1.40000E+1	1.99980E+1	1.40005E+1
232	02/09/2022	15:46:46.336	0.00000E+0	0.00000E+0	4.00000E+1	0.00000E+0	0.00000E+0	0.00000E+0	2.00000E+1	1.40000E+1	1.99994E+1	1.40024E+1
233	02/09/2022	15:46:47.722	0.00000E+0	0.00000E+0	4.00000E+1	0.00000E+0	0.00000E+0	0.00000E+0	2.00000E+1	1.40000E+1	2.00006E+1	1.40000E+1
234	02/09/2022	15:46:49.202	0.00000E+0	0.00000E+0	4.00000E+1	0.00000E+0	0.00000E+0	0.00000E+0	2.00000E+1	1.40000E+1	2.00009E+1	1.39990E+1
235	02/09/2022	15:46:50.562	0.00000E+0	0.00000E+0	4.00000E+1	0.00000E+0	0.00000E+0	0.00000E+0	2.00000E+1	1.40000E+1	2.00005E+1	1.39992E+1
236	02/09/2022	15:46:51.970	0.00000E+0	0.00000E+0	4.00000E+1	0.00000E+0	0.00000E+0	0.00000E+0	2.00000E+1	1.40000E+1	1.99984E+1	1.40010E+1
237	02/09/2022	15:46:53.472	0.00000E+0	0.00000E+0	4.00000E+1	0.00000E+0	0.00000E+0	0.00000E+0	2.00000E+1	1.40000E+1	1.99998E+1	1.40002E+1
238	02/09/2022	15:46:54.867	0.00000E+0	0.00000E+0	4.00000E+1	0.00000E+0	0.00000E+0	0.00000E+0	2.00000E+1	1.40000E+1	2.00011E+1	1.40022E+1
239	02/09/2022	15:46:56.247	0.00000E+0	0.00000E+0	4.00000E+1	0.00000E+0	0.00000E+0	0.00000E+0	2.00000E+1	1.40000E+1	2.00005E+1	1.39990E+1
240	02/09/2022	15:46:57.783	0.00000E+0	0.00000E+0	4.00000E+1	0.00000E+0	0.00000E+0	0.00000E+0	2.00000E+1	1.40000E+1	2.00011E+1	1.40010E+1
241	02/09/2022	15:46:59.184	0.00000E+0	0.00000E+0	4.00000E+1	0.00000E+0	0.00000E+0	0.00000E+0	2.00000E+1	1.40000E+1	1.99996E+1	1.39992E+1
242	02/09/2022	15:47:00.734	0.00000E+0	0.00000E+0	4.00000E+1	0.00000E+0	0.00000E+0	0.00000E+0	2.00000E+1	1.40000E+1	1.99986E+1	1.39995E+1
243	02/09/2022	15:47:02.120	0.00000E+0	0.00000E+0	4.00000E+1	0.00000E+0	0.00000E+0	0.00000E+0	2.00000E+1	1.40000E+1	2.00007E+1	1.39996E+1
244	02/09/2022	15:47:03.580	0.00000E+0	0.00000E+0	4.00000E+1	0.00000E+0	0.00000E+0	0.00000E+0	2.00000E+1	1.40000E+1	2.00006E+1	1.40002E+1
245	02/09/2022	15:47:05.075	0.00000E+0	0.00000E+0	4.00000E+1	0.00000E+0	0.00000E+0	0.00000E+0	2.00000E+1	1.40000E+1	2.00025E+1	1.39984E+1
246	02/09/2022	15:47:06.477	0.00000E+0	0.00000E+0	4.00000E+1	0.00000E+0	0.00000E+0	0.00000E+0	2.00000E+1	1.40000E+1	2.00021E+1	1.39988E+1
247	02/09/2022	15:47:07.918	0.00000E+0	0.00000E+0	4.00000E+1	0.00000E+0	0.00000E+0	0.00000E+0	2.00000E+1	1.40000E+1	1.99995E+1	1.39974E+1
248	02/09/2022	15:47:09.292	0.00000E+0	0.00000E+0	4.00000E+1	0.00000E+0	0.00000E+0	0.00000E+0	2.00000E+1	1.40000E+1	1.99979E+1	1.39979E+1
249	02/09/2022	15:47:10.688	0.00000E+0	0.00000E+0	4.00000E+1	0.00000E+0	0.00000E+0	0.00000E+0	2.00000E+1	1.40000E+1	2.00026E+1	1.39987E+1
250	02/09/2022	15:47:12.194	0.00000E+0	0.00000E+0	4.00000E+1	0.00000E+0	0.00000E+0	0.00000E+0	2.00000E+1	1.40000E+1	1.99995E+1	1.40010E+1
251	02/09/2022	15:47:13.564	0.00000E+0	0.00000E+0	4.00000E+1	0.00000E+0	0.00000E+0	0.00000E+0	2.00000E+1	1.40000E+1	2.00010E+1	1.39992E+1
252	02/09/2022	15:47:14.986	0.00000E+0	0.00000E+0	4.00000E+1	0.00000E+0	0.00000E+0	0.00000E+0	2.00000E+1	1.40000E+1	2.00006E+1	1.40003E+1
253	02/09/2022	15:47:16.502	0.00000E+0	0.00000E+0	4.00000E+1	0.00000E+0	0.00000E+0	0.00000E+0	2.00000E+1	1.40000E+1	2.00020E+1	1.40003E+1
254	02/09/2022	15:47:17.888	0.00000E+0	0.00000E+0	4.00000E+1	0.00000E+0	0.00000E+0	0.00000E+0	2.00000E+1	1.40000E+1	2.00003E+1	1.40008E+1
255	02/09/2022	15:47:19.357	0.00000E+0	0.00000E+0	4.00000E+1	0.00000E+0	0.00000E+0	0.00000E+0	2.00000E+1	1.40000E+1	2.00008E+1	1.40005E+1
256	02/09/2022	15:47:20.719	0.00000E+0	0.00000E+0	4.00000E+1	0.00000E+0	0.00000E+0	0.00000E+0	2.00000E+1	1.40000E+1	1.99995E+1	1.40024E+1
257	02/09/2022	15:47:22.106	0.00000E+0	0.00000E+0	4.00000E+1	0.00000E+0	0.00000E+0	0.00000E+0	2.00000E+1	1.40000E+1	1.99989E+1	1.40024E+1
258	02/09/2022	15:47:23.667	0.00000E+0	0.00000E+0	4.00000E+1	0.00000E+0	0.00000E+0	0.00000E+0	2.00000E+1	1.40000E+1	2.00015E+1	1.40007E+1
259	02/09/2022	15:47:25.058	0.00000E+0	0.00000E+0	4.00000E+1	0.00000E+0	0.00000E+0	0.00000E+0	2.00000E+1	1.40000E+1	1.99997E+1	1.39978E+1
260	02/09/2022	15:47:26.592	0.00000E+0	0.00000E+0	4.00000E+1	0.00000E+0	0.00000E+0	0.00000E+0	2.00000E+1	1.40000E+1	1.99998E+1	1.40010E+1
261	02/09/2022	15:47:27.960	0.00000E+0	0.00000E+0	4.00000E+1	0.00000E+0	0.00000E+0	0.00000E+0	2.00000E+1	1.40000E+1	2.00002E+1	1.39980E+1
262	02/09/2022	15:47:29.348	0.00000E+0	0.00000E+0	4.00000E+1	0.00000E+0	0.00000E+0	0.00000E+0	2.00000E+1	1.40000E+1	1.99991E+1	1.40003E+1
263	02/09/2022	15:47:30.845	0.00000E+0	0.00000E+0	4.00000E+1	0.00000E+0	0.00000E+0	0.00000E+0	2.00000E+1	1.40000E+1	1.99978E+1	1.39983E+1
264	02/09/2022	15:47:32.244	0.00000E+0	0.00000E+0	4.00000E+1	0.00000E+0	0.00000E+0	0.00000E+0	2.00000E+1	1.40000E+1	2.00011E+1	1.40040E+1
265	02/09/2022	15:47:33.621	0.00000E+0	0.00000E+0	4.00000E+1	0.00000E+0	0.00000E+0	0.00000E+0	2.00000E+1	1.40000E+1	1.99986E+1	1.40002E+1
266	02/09/2022	15:47:35.113	0.00000E+0	0.00000E+0	4.00000E+1	0.00000E+0	0.00000E+0	0.00000E+0	2.00000E+1	1.40000E+1	2.00009E+1	1.40014E+1
267	02/09/2022	15:47:36.501	0.00000E+0	0.00000E+0	4.00000E+1	0.00000E+0	0.00000E+0	0.00000E+0	2.00000E+1	1.40000E+1	1.99999E+1	1.39997E+1
268	02/09/2022	15:47:37.999	0.00000E+0	0.00000E+0	4.00000E+1	0.00000E+0	0.00000E+0	0.00000E+0	2.00000E+1	1.40000E+1	2.00007E+1	1.39983E+1
269	02/09/2022	15:47:39.386	0.00000E+0	0.00000E+0	4.00000E+1	0.00000E+0	0.00000E+0	0.00000E+0	2.00000E+1	1.40000E+1	2.00008E+1	1.40007E+1
270	02/09/2022	15:47:40.772	0.00000E+0	0.00000E+0	4.00000E+1	0.00000E+0	0.00000E+0	0.00000E+0	2.00000E+1	1.40000E+1	1.99990E+1	1.39994E+1
271	02/09/2022	15:47:42.339	0.00000E+0	0.00000E+0	4.00000E+1	0.00000E+0	0.00000E+0	0.00000E+0	2.00000E+1	1.40000E+1	1.99974E+1	1.39987E+1
272	02/09/2022	15:47:43.735	0.00000E+0	0.00000E+0	4.00000E+1	0.00000E+0	0.00000E+0	0.00000E+0	2.00000E+1	1.40000E+1	1.99974E+1	1.40017E+1
273	02/09/2022	15:47:45.188	0.00000E+0	0.00000E+0	4.00000E+1	0.00000E+0	0.00000E+0	0.00000E+0	2.00000E+1	1.40000E+1	1.99996E+1	1.39993E+1
274	02/09/2022	15:47:46.562	0.00000E+0	0.00000E+0	4.00000E+1	0.00000E+0	0.00000E+0	0.00000E+0	2.00000E+1	1.40000E+1	2.00002E+1	1.39983E+1
275	02/09/2022	15:47:47.958	0.00000E+0	0.00000E+0	4.00000E+1	0.00000E+0	0.00000E+0	0.00000E+0	2.00000E+1	1.40000E+1	1.99981E+1	1.39992E+1
276	02/09/2022	15:47:49.462	0.00000E+0	0.00000E+0	4.00000E+1	0.00000E+0	0.00000E+0	0.00000E+0	2.00000E+1	1.40000E+1	2.00004E+1	1.39984E+1
277	02/09/2022	15:47:50.848	0.00000E+0	0.00000E+0	4.00000E+1	0.00000E+0	0.00000E+0	0.00000E+0	2.00000E+1	1.40000E+1	1.99996E+1	1.40021E+1
278	02/09/2022	15:47:52.246	0.00000E+0	0.00000E+0	4.00000E+1	0.00000E+0	0.00000E+0	0.00000E+0	2.00000E+1	1.40000E+1	2.00036E+1	1.39978E+1
279	02/09/2022	15:47:53.789	0.00000E+0	0.00000E+0	4.00000E+1	0.00000E+0	0.00000E+0	0.00000E+0	2.00000E+1	1.40000E+1	2.00007E+1	1.39994E+1
280	02/09/2022	15:47:55.189	0.00000E+0	0.00000E+0	4.00000E+1	0.00000E+0	0.00000E+0	0.00000E+0	2.00000E+1	1.40000E+1	1.99971E+1	1.40014E+1
281	02/09/2022	15:47:56.642	0.00000E+0	0.00000E+0	4.00000E+1	0.00000E+0	0.00000E+0	0.00000E+0	2.00000E+1	1.40000E+1	2.00006E+1	1.40017E+1
282	02/09/2022	15:47:58.035	0.00000E+0	0.00000E+0	4.00000E+1	0.00000E+0	0.00000E+0	0.00000E+0	2.00000E+1	1.40000E+1	1.99989E+1	1.39985E+1
283	02/09/2022	15:47:59.413	0.00000E+0	0.00000E+0	4.00000E+1	0.00000E+0	0.00000E+0	0.00000E+0	2.00000E+1	1.40000E+1	2.00009E+1	1.40012E+1
284	02/09/2022	15:48:00.959	0.00000E+0	0.00000E+0	4.00000E+1	0.00000E+0	0.00000E+0	0.00000E+0	2.00000E+1	1.40000E+1	1.99998E+1	1.39997E+1
285	02/09/2022	15:48:02.357	0.00000E+0	0.00000E+0	4.00000E+1	0.00000E+0	0.00000E+0	0.00000E+0	2.00000E+1	1.40000E+1	1.99981E+1	1.39986E+1
286	02/09/2022	15:48:03.816	0.00000E+0	0.00000E+0	4.00000E+1	0.00000E+0	0.00000E+0	0.00000E+0	2.00000E+1	1.40000E+1	1.99983E+1	1.40000E+1
287	02/09/2022	15:48:05.310	0.00000E+0	0.00000E+0	4.00000E+1	0.00000E+0	0.00000E+0	0.00000E+0	2.00000E+1	1.40000E+1	1.99991E+1	1.39989E+1
288	02/09/2022	15:48:06.698	0.00000E+0	0.00000E+0	4.00000E+1	0.00000E+0	0.00000E+0	0.00000E+0	2.00000E+1	1.40000E+1	2.00007E+1	1.40002E+1
289	02/09/2022	15:48:08.168	0.00000E+0	0.00000E+0	4.00000E+1	0.00000E+0	0.00000E+0	0.00000E+0	2.00000E+1	1.40000E+1	2.00024E+1	1.40008E+1
290	02/09/2022	15:48:09.538	0.00000E+0	0.00000E+0	4.00000E+1	0.00000E+0	0.00000E+0	0.00000E+0	2.00000E+1	1.40000E+1	2.00029E+1	1.39992E+1
291	02/09/2022	15:48:10.923	0.00000E+0	0.00000E+0	4.00000E+1	0.00000E+0	0.00000E+0	0.00000E+0	2.00000E+1	1.40000E+1	2.00004E+1	1.39990E+1
292	02/09/2022	15:48:12.420	0.00000E+0	0.00000E+0	4.00000E+1	0.00000E+0	0.00000E+0	0.00000E+0	2.00000E+1	1.40000E+1	1.99993E+1	1.40022E+1
293	02/09/2022	15:48:13.826	0.00000E+0	0.00000E+0	4.00000E+1	0.00000E+0	0.00000E+0	0.00000E+0	2.00000E+1	1.40000E+1	2.00012E+1	1.40005E+1
294	02/09/2022	15:48:15.336	0.00000E+0	0.00000E+0	4.00000E+1	0.00000E+0	0.00000E+0	0.00000E+0	2.00000E+1	1.40000E+1	2.00034E+1	1.39981E+1
295	02/09/2022	15:48:16.766	0.00000E+0	0.00000E+0	4.00000E+1	0.00000E+0	0.00000E+0	0.00000E+0	2.00000E+1	1.40000E+1	1.99983E+1	1.39995E+1
296	02/09/2022	15:48:18.137	0.00000E+0	0.00000E+0	4.00000E+1	0.00000E+0	0.00000E+0	0.00000E+0	2.00000E+1	1.40000E+1	1.99989E+1	1.39981E+1
297	02/09/2022	15:48:19.629	0.00000E+0	0.00000E+0	4.00000E+1	0.00000E+0	0.00000E+0	0.00000E+0	2.00000E+1	1.40000E+1	1.99998E+1	1.40005E+1
298	02/09/2022	15:48:21.020	0.00000E+0	0.00000E+0	4.00000E+1	0.00000E+0	0.00000E+0	0.00000E+0	2.00000E+1	1.40000E+1	2.00007E+1	1.39984E+1
299	02/09/2022	15:48:22.463	0.00000E+0	0.00000E+0	4.00000E+1	0.00000E+0	0.00000E+0	0.00000E+0	2.00000E+1	1.40000E+1	1.99999E+1	1.40014E+1
300	02/09/2022	15:48:23.959	0.00000E+0	0.00000E+0	4.00000E+1	0.00000E+0	0.00000E+0	0.00000E+0	2.00000E+1	1.40000E+1	1.99994E+1	1.40002E+1
301	02/09/2022	15:48:25.348	0.00000E+0	0.00000E+0	4.00000E+1	0.00000E+0	0.00000E+0	0.00000E+0	2.00000E+1	1.40000E+1	2.00012E+1	1.40000E+1
