#Iteration	Date	Time	STSX	STSY	RotationRateX	RotationRateY	FrCntX	FrCntY	TiptiltCmd1	TiptiltCmd2	TiptiltMonitor1	TiptiltMonitor2
1	15/03/2023	17:06:17.711	0.00000E+0	0.00000E+0	-1.36398E-1	-3.09973E-1	0.00000E+0	0.00000E+0	2.12450E+1	1.37003E+1	2.12457E+1	1.36984E+1
2	15/03/2023	17:06:19.248	0.00000E+0	0.00000E+0	-1.67883E-1	-7.22493E-2	0.00000E+0	0.00000E+0	2.12509E+1	1.36998E+1	2.12491E+1	1.36999E+1
3	15/03/2023	17:06:20.771	0.00000E+0	0.00000E+0	8.93842E+0	-6.75420E-1	0.00000E+0	0.00000E+0	2.13245E+1	1.36234E+1	2.13252E+1	1.36239E+1
4	15/03/2023	17:06:22.280	0.00000E+0	0.00000E+0	9.01505E+1	1.41845E+0	0.00000E+0	0.00000E+0	2.25871E+1	1.23612E+1	2.25861E+1	1.23609E+1
5	15/03/2023	17:06:23.802	0.00000E+0	0.00000E+0	-4.94167E+1	-3.17875E-1	0.00000E+0	0.00000E+0	2.05731E+1	1.43891E+1	2.05736E+1	1.43892E+1
6	15/03/2023	17:06:25.286	0.00000E+0	0.00000E+0	-5.52343E+1	-1.13340E+0	0.00000E+0	0.00000E+0	2.04613E+1	1.44961E+1	2.04626E+1	1.44956E+1
7	15/03/2023	17:06:26.838	0.00000E+0	0.00000E+0	-5.66482E+1	9.86028E-1	0.00000E+0	0.00000E+0	2.04586E+1	1.45072E+1	2.04580E+1	1.45070E+1
8	15/03/2023	17:06:28.311	0.00000E+0	0.00000E+0	-4.03677E+1	5.91651E-1	0.00000E+0	0.00000E+0	2.06446E+1	1.42711E+1	2.06418E+1	1.42698E+1
9	15/03/2023	17:06:29.782	0.00000E+0	0.00000E+0	-5.10687E+1	-4.19937E-1	0.00000E+0	0.00000E+0	2.05039E+1	1.44283E+1	2.05053E+1	1.44292E+1
10	15/03/2023	17:06:31.350	0.00000E+0	0.00000E+0	6.49135E+1	7.93515E-3	0.00000E+0	0.00000E+0	2.21836E+1	1.28249E+1	2.21840E+1	1.28248E+1
11	15/03/2023	17:06:32.837	0.00000E+0	0.00000E+0	4.62656E+1	-5.18362E-1	0.00000E+0	0.00000E+0	2.19176E+1	1.30717E+1	2.19187E+1	1.30701E+1
12	15/03/2023	17:06:34.352	0.00000E+0	0.00000E+0	5.09402E+1	8.54418E-1	0.00000E+0	0.00000E+0	2.19886E+1	1.29722E+1	2.19899E+1	1.29698E+1
13	15/03/2023	17:06:35.810	0.00000E+0	0.00000E+0	3.45066E+1	-2.03809E-1	0.00000E+0	0.00000E+0	2.17716E+1	1.31836E+1	2.17712E+1	1.31838E+1
14	15/03/2023	17:06:37.297	0.00000E+0	0.00000E+0	3.21232E+1	9.66595E-1	0.00000E+0	0.00000E+0	2.17150E+1	1.32206E+1	2.17143E+1	1.32196E+1
15	15/03/2023	17:06:38.805	0.00000E+0	0.00000E+0	-6.75388E+0	5.64147E-1	0.00000E+0	0.00000E+0	2.12018E+1	1.37309E+1	2.12008E+1	1.37315E+1
16	15/03/2023	17:06:40.340	0.00000E+0	0.00000E+0	-3.71791E+1	-4.43736E-1	0.00000E+0	0.00000E+0	2.07275E+1	1.42194E+1	2.07289E+1	1.42184E+1
17	15/03/2023	17:06:41.881	0.00000E+0	0.00000E+0	-4.29361E+1	1.53590E+0	0.00000E+0	0.00000E+0	2.06433E+1	1.43184E+1	2.06425E+1	1.43211E+1
18	15/03/2023	17:06:43.441	0.00000E+0	0.00000E+0	-5.20229E+1	-1.94104E+0	0.00000E+0	0.00000E+0	2.05513E+1	1.44201E+1	2.05521E+1	1.44217E+1
19	15/03/2023	17:06:44.964	0.00000E+0	0.00000E+0	-3.48590E+1	4.74733E-1	0.00000E+0	0.00000E+0	2.07306E+1	1.42384E+1	2.07312E+1	1.42401E+1
20	15/03/2023	17:06:46.524	0.00000E+0	0.00000E+0	-2.65468E+1	-3.17567E-1	0.00000E+0	0.00000E+0	2.08484E+1	1.40918E+1	2.08473E+1	1.40919E+1
21	15/03/2023	17:06:48.040	0.00000E+0	0.00000E+0	-3.82023E+1	-2.44215E-2	0.00000E+0	0.00000E+0	2.07187E+1	1.42336E+1	2.07194E+1	1.42356E+1
22	15/03/2023	17:06:49.534	0.00000E+0	0.00000E+0	3.69513E+1	-8.93605E-1	0.00000E+0	0.00000E+0	2.17535E+1	1.32230E+1	2.17561E+1	1.32204E+1
23	15/03/2023	17:06:51.047	0.00000E+0	0.00000E+0	2.36130E+1	-7.86483E-1	0.00000E+0	0.00000E+0	2.15980E+1	1.33575E+1	2.15956E+1	1.33569E+1
24	15/03/2023	17:06:52.545	0.00000E+0	0.00000E+0	4.56664E+1	1.73755E+0	0.00000E+0	0.00000E+0	2.18763E+1	1.30110E+1	2.18775E+1	1.30080E+1
25	15/03/2023	17:06:54.057	0.00000E+0	0.00000E+0	4.24353E+1	-1.40952E+0	0.00000E+0	0.00000E+0	2.18883E+1	1.30962E+1	2.18874E+1	1.30957E+1
26	15/03/2023	17:06:55.557	0.00000E+0	0.00000E+0	2.72996E+1	1.10828E+0	0.00000E+0	0.00000E+0	2.16405E+1	1.33382E+1	2.16411E+1	1.33378E+1
27	15/03/2023	17:06:57.055	0.00000E+0	0.00000E+0	2.62530E+1	-4.39186E-1	0.00000E+0	0.00000E+0	2.16383E+1	1.33121E+1	2.16355E+1	1.33145E+1
28	15/03/2023	17:06:58.566	0.00000E+0	0.00000E+0	3.61603E+1	1.36264E+0	0.00000E+0	0.00000E+0	2.17569E+1	1.31995E+1	2.17558E+1	1.31985E+1
29	15/03/2023	17:07:00.038	0.00000E+0	0.00000E+0	-3.05658E+1	5.05423E-1	0.00000E+0	0.00000E+0	2.08165E+1	1.41376E+1	2.08155E+1	1.41375E+1
30	15/03/2023	17:07:01.512	0.00000E+0	0.00000E+0	-2.52026E+1	-9.43495E-1	0.00000E+0	0.00000E+0	2.08904E+1	1.40370E+1	2.08948E+1	1.40361E+1
31	15/03/2023	17:07:02.973	0.00000E+0	0.00000E+0	-1.90175E+1	2.44229E-1	0.00000E+0	0.00000E+0	2.09698E+1	1.39708E+1	2.09680E+1	1.39731E+1
32	15/03/2023	17:07:04.493	0.00000E+0	0.00000E+0	-5.01523E+1	-1.50159E+0	0.00000E+0	0.00000E+0	2.05282E+1	1.44125E+1	2.05277E+1	1.44128E+1
33	15/03/2023	17:07:05.984	0.00000E+0	0.00000E+0	-2.36716E+1	-3.31350E-1	0.00000E+0	0.00000E+0	2.08843E+1	1.40619E+1	2.08847E+1	1.40623E+1
34	15/03/2023	17:07:07.468	0.00000E+0	0.00000E+0	-2.84051E+1	7.03258E-1	0.00000E+0	0.00000E+0	2.08688E+1	1.40777E+1	2.08687E+1	1.40794E+1
35	15/03/2023	17:07:08.947	0.00000E+0	0.00000E+0	-1.44901E+1	8.03166E-1	0.00000E+0	0.00000E+0	2.10544E+1	1.39214E+1	2.10520E+1	1.39217E+1
36	15/03/2023	17:07:10.457	0.00000E+0	0.00000E+0	-4.17885E+1	1.92184E-1	0.00000E+0	0.00000E+0	2.06758E+1	1.42831E+1	2.06766E+1	1.42819E+1
37	15/03/2023	17:07:11.908	0.00000E+0	0.00000E+0	5.00218E+1	1.92148E+0	0.00000E+0	0.00000E+0	2.19533E+1	1.30104E+1	2.19518E+1	1.30102E+1
38	15/03/2023	17:07:13.392	0.00000E+0	0.00000E+0	3.07185E+1	-1.15832E+0	0.00000E+0	0.00000E+0	2.16887E+1	1.32472E+1	2.16903E+1	1.32466E+1
39	15/03/2023	17:07:14.875	0.00000E+0	0.00000E+0	3.21791E+1	-5.27330E-1	0.00000E+0	0.00000E+0	2.17077E+1	1.32130E+1	2.17058E+1	1.32140E+1
40	15/03/2023	17:07:16.423	0.00000E+0	0.00000E+0	5.99633E+1	5.18580E-1	0.00000E+0	0.00000E+0	2.20634E+1	1.28445E+1	2.20619E+1	1.28438E+1
41	15/03/2023	17:07:17.905	0.00000E+0	0.00000E+0	3.29017E+1	1.27668E+0	0.00000E+0	0.00000E+0	2.17240E+1	1.32363E+1	2.17224E+1	1.32388E+1
42	15/03/2023	17:07:19.372	0.00000E+0	0.00000E+0	2.27255E+1	-2.38021E+0	0.00000E+0	0.00000E+0	2.15517E+1	1.33578E+1	2.15541E+1	1.33595E+1
43	15/03/2023	17:07:20.841	0.00000E+0	0.00000E+0	-1.75088E+0	-2.10447E-2	0.00000E+0	0.00000E+0	2.13323E+1	1.36404E+1	2.13330E+1	1.36392E+1
44	15/03/2023	17:07:22.300	0.00000E+0	0.00000E+0	-4.02496E+1	2.18886E-2	0.00000E+0	0.00000E+0	2.06818E+1	1.42433E+1	2.06806E+1	1.42432E+1
45	15/03/2023	17:07:23.805	0.00000E+0	0.00000E+0	-4.00773E+1	6.24995E-1	0.00000E+0	0.00000E+0	2.06910E+1	1.42602E+1	2.06903E+1	1.42585E+1
46	15/03/2023	17:07:25.296	0.00000E+0	0.00000E+0	-2.77869E+1	8.23668E-1	0.00000E+0	0.00000E+0	2.08768E+1	1.40899E+1	2.08771E+1	1.40916E+1
47	15/03/2023	17:07:26.845	0.00000E+0	0.00000E+0	-4.18604E+1	-1.63454E+0	0.00000E+0	0.00000E+0	2.06399E+1	1.42870E+1	2.06417E+1	1.42840E+1
48	15/03/2023	17:07:28.381	0.00000E+0	0.00000E+0	-1.19401E+1	2.14784E-1	0.00000E+0	0.00000E+0	2.10742E+1	1.38659E+1	2.10721E+1	1.38669E+1
49	15/03/2023	17:07:29.827	0.00000E+0	0.00000E+0	-2.87945E+1	9.09888E-1	0.00000E+0	0.00000E+0	2.08151E+1	1.41265E+1	2.08145E+1	1.41258E+1
50	15/03/2023	17:07:31.299	0.00000E+0	0.00000E+0	-2.34098E+1	7.00420E-1	0.00000E+0	0.00000E+0	2.09379E+1	1.40124E+1	2.09370E+1	1.40105E+1
51	15/03/2023	17:07:32.770	0.00000E+0	0.00000E+0	-5.38002E+1	-2.23829E-2	0.00000E+0	0.00000E+0	2.04825E+1	1.44597E+1	2.04821E+1	1.44597E+1
52	15/03/2023	17:07:34.261	0.00000E+0	0.00000E+0	5.79952E+1	-3.87077E-2	0.00000E+0	0.00000E+0	2.20744E+1	1.28737E+1	2.20741E+1	1.28749E+1
53	15/03/2023	17:07:35.786	0.00000E+0	0.00000E+0	4.24707E+1	6.80402E-1	0.00000E+0	0.00000E+0	2.18326E+1	1.31269E+1	2.18337E+1	1.31257E+1
54	15/03/2023	17:07:37.318	0.00000E+0	0.00000E+0	3.34203E+1	8.52153E-1	0.00000E+0	0.00000E+0	2.17144E+1	1.32518E+1	2.17142E+1	1.32507E+1
55	15/03/2023	17:07:38.821	0.00000E+0	0.00000E+0	5.32027E+1	-1.45964E+0	0.00000E+0	0.00000E+0	2.20559E+1	1.29479E+1	2.20564E+1	1.29491E+1
56	15/03/2023	17:07:40.299	0.00000E+0	0.00000E+0	2.88889E+1	8.57522E-1	0.00000E+0	0.00000E+0	2.16700E+1	1.33087E+1	2.16723E+1	1.33080E+1
57	15/03/2023	17:07:41.828	0.00000E+0	0.00000E+0	1.84178E+1	1.09252E+0	0.00000E+0	0.00000E+0	2.15124E+1	1.34518E+1	2.15113E+1	1.34491E+1
58	15/03/2023	17:07:43.321	0.00000E+0	0.00000E+0	2.64888E+1	1.11690E+0	0.00000E+0	0.00000E+0	2.16073E+1	1.33368E+1	2.16084E+1	1.33406E+1
59	15/03/2023	17:07:44.823	0.00000E+0	0.00000E+0	-2.64131E+1	-7.43950E-1	0.00000E+0	0.00000E+0	2.08978E+1	1.40641E+1	2.09000E+1	1.40633E+1
60	15/03/2023	17:07:46.301	0.00000E+0	0.00000E+0	-1.89191E+1	-3.16287E-1	0.00000E+0	0.00000E+0	2.09587E+1	1.39575E+1	2.09576E+1	1.39583E+1
61	15/03/2023	17:07:47.787	0.00000E+0	0.00000E+0	-2.96820E+1	-1.27696E+0	0.00000E+0	0.00000E+0	2.08042E+1	1.41198E+1	2.08045E+1	1.41191E+1
62	15/03/2023	17:07:49.279	0.00000E+0	0.00000E+0	-2.82559E+1	-5.80594E-1	0.00000E+0	0.00000E+0	2.08487E+1	1.40822E+1	2.08506E+1	1.40820E+1
63	15/03/2023	17:07:50.808	0.00000E+0	0.00000E+0	-3.62828E+1	-4.82402E-1	0.00000E+0	0.00000E+0	2.07099E+1	1.42373E+1	2.07096E+1	1.42374E+1
64	15/03/2023	17:07:52.301	0.00000E+0	0.00000E+0	-9.07047E+0	4.33779E-1	0.00000E+0	0.00000E+0	2.11249E+1	1.38524E+1	2.11246E+1	1.38508E+1
65	15/03/2023	17:07:53.785	0.00000E+0	0.00000E+0	-2.15962E+1	-3.26048E-1	0.00000E+0	0.00000E+0	2.09472E+1	1.39914E+1	2.09469E+1	1.39916E+1
66	15/03/2023	17:07:55.260	0.00000E+0	0.00000E+0	-9.51393E+0	2.51161E-1	0.00000E+0	0.00000E+0	2.11054E+1	1.38560E+1	2.11067E+1	1.38552E+1
67	15/03/2023	17:07:56.732	0.00000E+0	0.00000E+0	-3.19883E+1	2.76284E-1	0.00000E+0	0.00000E+0	2.07979E+1	1.41516E+1	2.07993E+1	1.41515E+1
68	15/03/2023	17:07:58.181	0.00000E+0	0.00000E+0	2.56012E+1	2.59325E+0	0.00000E+0	0.00000E+0	2.15402E+1	1.34326E+1	2.15405E+1	1.34344E+1
69	15/03/2023	17:07:59.689	0.00000E+0	0.00000E+0	2.73209E+1	-4.57260E-1	0.00000E+0	0.00000E+0	2.16846E+1	1.32804E+1	2.16842E+1	1.32813E+1
70	15/03/2023	17:08:01.189	0.00000E+0	0.00000E+0	3.89841E+1	4.10195E-2	0.00000E+0	0.00000E+0	2.17824E+1	1.31822E+1	2.17813E+1	1.31805E+1
71	15/03/2023	17:08:02.657	0.00000E+0	0.00000E+0	3.93536E+1	9.86328E-1	0.00000E+0	0.00000E+0	2.17956E+1	1.31736E+1	2.17957E+1	1.31739E+1
72	15/03/2023	17:08:04.209	0.00000E+0	0.00000E+0	5.77539E+1	1.68086E+0	0.00000E+0	0.00000E+0	2.21126E+1	1.28552E+1	2.21118E+1	1.28556E+1
73	15/03/2023	17:08:05.726	0.00000E+0	0.00000E+0	3.82928E+1	-3.18586E-2	0.00000E+0	0.00000E+0	2.17793E+1	1.31378E+1	2.17802E+1	1.31393E+1
74	15/03/2023	17:08:07.226	0.00000E+0	0.00000E+0	2.38286E+1	1.38139E-1	0.00000E+0	0.00000E+0	2.15897E+1	1.33765E+1	2.15888E+1	1.33758E+1
75	15/03/2023	17:08:08.697	0.00000E+0	0.00000E+0	-8.97540E+0	3.69461E-2	0.00000E+0	0.00000E+0	2.11258E+1	1.38187E+1	2.11248E+1	1.38193E+1
76	15/03/2023	17:08:10.191	0.00000E+0	0.00000E+0	-3.96941E+1	-1.86662E+0	0.00000E+0	0.00000E+0	2.06893E+1	1.42771E+1	2.06912E+1	1.42786E+1
77	15/03/2023	17:08:11.676	0.00000E+0	0.00000E+0	-3.65490E+1	-4.02356E-1	0.00000E+0	0.00000E+0	2.07048E+1	1.42674E+1	2.07061E+1	1.42680E+1
78	15/03/2023	17:08:13.230	0.00000E+0	0.00000E+0	-5.51667E+1	1.84591E-1	0.00000E+0	0.00000E+0	2.04638E+1	1.44746E+1	2.04639E+1	1.44732E+1
79	15/03/2023	17:08:14.720	0.00000E+0	0.00000E+0	-2.50168E+1	-8.44920E-1	0.00000E+0	0.00000E+0	2.09009E+1	1.40597E+1	2.09019E+1	1.40595E+1
80	15/03/2023	17:08:16.206	0.00000E+0	0.00000E+0	-4.18531E+1	-1.74094E+0	0.00000E+0	0.00000E+0	2.06613E+1	1.42650E+1	2.06604E+1	1.42644E+1
81	15/03/2023	17:08:17.679	0.00000E+0	0.00000E+0	-2.84212E+1	1.88707E-1	0.00000E+0	0.00000E+0	2.08564E+1	1.40812E+1	2.08570E+1	1.40834E+1
82	15/03/2023	17:08:19.232	0.00000E+0	0.00000E+0	-1.42068E+1	-5.82125E-3	0.00000E+0	0.00000E+0	2.09706E+1	1.39803E+1	2.09685E+1	1.39805E+1
83	15/03/2023	17:08:20.772	0.00000E+0	0.00000E+0	4.23982E+1	-9.73906E-1	0.00000E+0	0.00000E+0	2.18981E+1	1.31222E+1	2.18980E+1	1.31212E+1
84	15/03/2023	17:08:22.224	0.00000E+0	0.00000E+0	3.04717E+1	-1.21976E+0	0.00000E+0	0.00000E+0	2.16593E+1	1.32738E+1	2.16611E+1	1.32739E+1
85	15/03/2023	17:08:23.739	0.00000E+0	0.00000E+0	2.92604E+1	3.04218E-1	0.00000E+0	0.00000E+0	2.16821E+1	1.32711E+1	2.16822E+1	1.32715E+1
86	15/03/2023	17:08:25.218	0.00000E+0	0.00000E+0	6.03328E+1	-4.01655E-1	0.00000E+0	0.00000E+0	2.20803E+1	1.28587E+1	2.20791E+1	1.28586E+1
87	15/03/2023	17:08:26.714	0.00000E+0	0.00000E+0	4.42008E+1	9.75392E-1	0.00000E+0	0.00000E+0	2.18408E+1	1.30591E+1	2.18437E+1	1.30598E+1
88	15/03/2023	17:08:28.167	0.00000E+0	0.00000E+0	2.61151E+1	9.62462E-1	0.00000E+0	0.00000E+0	2.16289E+1	1.33612E+1	2.16302E+1	1.33609E+1
89	15/03/2023	17:08:29.662	0.00000E+0	0.00000E+0	-1.23616E+1	5.37631E-1	0.00000E+0	0.00000E+0	2.11060E+1	1.38647E+1	2.11067E+1	1.38657E+1
90	15/03/2023	17:08:31.124	0.00000E+0	0.00000E+0	-3.32454E+1	-6.83966E-1	0.00000E+0	0.00000E+0	2.07427E+1	1.41934E+1	2.07426E+1	1.41929E+1
91	15/03/2023	17:08:32.685	0.00000E+0	0.00000E+0	-3.85569E+1	-3.72800E-1	0.00000E+0	0.00000E+0	2.06512E+1	1.42311E+1	2.06510E+1	1.42308E+1
92	15/03/2023	17:08:34.196	0.00000E+0	0.00000E+0	-4.34950E+1	-1.09215E+0	0.00000E+0	0.00000E+0	2.06187E+1	1.42663E+1	2.06187E+1	1.42687E+1
93	15/03/2023	17:08:35.702	0.00000E+0	0.00000E+0	-3.87694E+1	-6.47035E-1	0.00000E+0	0.00000E+0	2.07079E+1	1.42429E+1	2.07073E+1	1.42450E+1
94	15/03/2023	17:08:37.149	0.00000E+0	0.00000E+0	-3.44474E+1	1.26289E+0	0.00000E+0	0.00000E+0	2.07984E+1	1.41787E+1	2.07993E+1	1.41754E+1
95	15/03/2023	17:08:38.619	0.00000E+0	0.00000E+0	-2.94562E+1	-8.22497E-1	0.00000E+0	0.00000E+0	2.08437E+1	1.40963E+1	2.08436E+1	1.40954E+1
96	15/03/2023	17:08:40.167	0.00000E+0	0.00000E+0	-2.43325E+1	6.63481E-2	0.00000E+0	0.00000E+0	2.08734E+1	1.40876E+1	2.08724E+1	1.40869E+1
97	15/03/2023	17:08:41.660	0.00000E+0	0.00000E+0	5.52492E+1	-6.99633E-1	0.00000E+0	0.00000E+0	2.19860E+1	1.29528E+1	2.19863E+1	1.29543E+1
98	15/03/2023	17:08:43.157	0.00000E+0	0.00000E+0	4.13067E+1	-2.90468E-1	0.00000E+0	0.00000E+0	2.18280E+1	1.31359E+1	2.18276E+1	1.31349E+1
99	15/03/2023	17:08:44.628	0.00000E+0	0.00000E+0	4.05545E+1	1.03531E-1	0.00000E+0	0.00000E+0	2.18131E+1	1.31518E+1	2.18154E+1	1.31517E+1
100	15/03/2023	17:08:46.109	0.00000E+0	0.00000E+0	6.69969E+1	-9.61140E-1	0.00000E+0	0.00000E+0	2.21942E+1	1.27715E+1	2.21957E+1	1.27702E+1
101	15/03/2023	17:08:47.599	0.00000E+0	0.00000E+0	4.26669E+1	-1.45213E+0	0.00000E+0	0.00000E+0	2.18663E+1	1.30850E+1	2.18667E+1	1.30847E+1
102	15/03/2023	17:08:49.113	0.00000E+0	0.00000E+0	3.21257E+1	-2.41674E-1	0.00000E+0	0.00000E+0	2.17246E+1	1.32450E+1	2.17249E+1	1.32433E+1
103	15/03/2023	17:08:50.625	0.00000E+0	0.00000E+0	-4.76037E+1	5.47377E-1	0.00000E+0	0.00000E+0	2.05879E+1	1.43662E+1	2.05853E+1	1.43660E+1
104	15/03/2023	17:08:52.120	0.00000E+0	0.00000E+0	-4.68511E+1	-6.49679E-1	0.00000E+0	0.00000E+0	2.05378E+1	1.43797E+1	2.05372E+1	1.43799E+1
105	15/03/2023	17:08:53.616	0.00000E+0	0.00000E+0	-6.19223E+1	-9.44000E-1	0.00000E+0	0.00000E+0	2.03904E+1	1.45751E+1	2.03898E+1	1.45745E+1
106	15/03/2023	17:08:55.159	0.00000E+0	0.00000E+0	-2.75731E+1	-1.12656E+0	0.00000E+0	0.00000E+0	2.08568E+1	1.40872E+1	2.08576E+1	1.40899E+1
107	15/03/2023	17:08:56.674	0.00000E+0	0.00000E+0	-2.60087E+1	5.35935E-1	0.00000E+0	0.00000E+0	2.08970E+1	1.40728E+1	2.08980E+1	1.40732E+1
108	15/03/2023	17:08:58.160	0.00000E+0	0.00000E+0	-4.04089E+1	-3.96720E-1	0.00000E+0	0.00000E+0	2.06570E+1	1.42807E+1	2.06532E+1	1.42812E+1
109	15/03/2023	17:08:59.661	0.00000E+0	0.00000E+0	5.13496E+1	1.88381E+0	0.00000E+0	0.00000E+0	2.19424E+1	1.30326E+1	2.19415E+1	1.30342E+1
110	15/03/2023	17:09:01.160	0.00000E+0	0.00000E+0	7.01909E+1	-5.17386E-1	0.00000E+0	0.00000E+0	2.22234E+1	1.27745E+1	2.22257E+1	1.27746E+1
111	15/03/2023	17:09:02.653	0.00000E+0	0.00000E+0	8.93655E+1	5.40894E-1	0.00000E+0	0.00000E+0	2.25264E+1	1.24648E+1	2.25252E+1	1.24682E+1
112	15/03/2023	17:09:04.171	0.00000E+0	0.00000E+0	5.17152E+1	6.00842E-2	0.00000E+0	0.00000E+0	2.20259E+1	1.29598E+1	2.20261E+1	1.29605E+1
113	15/03/2023	17:09:05.661	0.00000E+0	0.00000E+0	-4.82825E+1	-7.77531E-2	0.00000E+0	0.00000E+0	2.05914E+1	1.43438E+1	2.05909E+1	1.43415E+1
114	15/03/2023	17:09:07.171	0.00000E+0	0.00000E+0	-5.66051E+1	6.63803E-1	0.00000E+0	0.00000E+0	2.04503E+1	1.44922E+1	2.04488E+1	1.44960E+1
115	15/03/2023	17:09:08.708	0.00000E+0	0.00000E+0	-7.13610E+1	-1.27131E+0	0.00000E+0	0.00000E+0	2.02194E+1	1.46987E+1	2.02198E+1	1.46999E+1
116	15/03/2023	17:09:10.199	0.00000E+0	0.00000E+0	-1.92490E+1	-1.73147E-1	0.00000E+0	0.00000E+0	2.09812E+1	1.39619E+1	2.09825E+1	1.39650E+1
117	15/03/2023	17:09:11.688	0.00000E+0	0.00000E+0	-2.32698E+1	-1.06314E+0	0.00000E+0	0.00000E+0	2.09150E+1	1.40240E+1	2.09174E+1	1.40261E+1
118	15/03/2023	17:09:13.196	0.00000E+0	0.00000E+0	-5.03968E+1	-3.39332E-1	0.00000E+0	0.00000E+0	2.05348E+1	1.44210E+1	2.05347E+1	1.44200E+1
119	15/03/2023	17:09:14.706	0.00000E+0	0.00000E+0	3.41184E+1	-9.03002E-1	0.00000E+0	0.00000E+0	2.17059E+1	1.32296E+1	2.17067E+1	1.32282E+1
120	15/03/2023	17:09:16.204	0.00000E+0	0.00000E+0	3.68016E+1	3.36473E-1	0.00000E+0	0.00000E+0	2.17747E+1	1.31624E+1	2.17745E+1	1.31624E+1
121	15/03/2023	17:09:17.684	0.00000E+0	0.00000E+0	4.85076E+1	-6.44428E-1	0.00000E+0	0.00000E+0	2.19221E+1	1.30442E+1	2.19217E+1	1.30454E+1
122	15/03/2023	17:09:19.165	0.00000E+0	0.00000E+0	7.32244E+1	5.86498E-1	0.00000E+0	0.00000E+0	2.23224E+1	1.26368E+1	2.23198E+1	1.26372E+1
123	15/03/2023	17:09:20.631	0.00000E+0	0.00000E+0	8.18572E+1	1.86820E+0	0.00000E+0	0.00000E+0	2.23875E+1	1.25738E+1	2.23875E+1	1.25711E+1
124	15/03/2023	17:09:22.342	0.00000E+0	0.00000E+0	4.49773E+1	-4.75666E-1	0.00000E+0	0.00000E+0	2.19128E+1	1.30401E+1	2.19117E+1	1.30383E+1
125	15/03/2023	17:09:23.941	0.00000E+0	0.00000E+0	-3.84162E+1	-2.08356E-1	0.00000E+0	0.00000E+0	2.07201E+1	1.42107E+1	2.07216E+1	1.42085E+1
126	15/03/2023	17:09:25.470	0.00000E+0	0.00000E+0	-6.61538E+1	2.70151E-1	0.00000E+0	0.00000E+0	2.03043E+1	1.46519E+1	2.03055E+1	1.46515E+1
127	15/03/2023	17:09:26.948	0.00000E+0	0.00000E+0	-1.15148E+1	-4.10312E-1	0.00000E+0	0.00000E+0	2.10315E+1	1.39109E+1	2.10308E+1	1.39106E+1
128	15/03/2023	17:09:28.455	0.00000E+0	0.00000E+0	-6.17975E+1	1.68876E+0	0.00000E+0	0.00000E+0	2.03840E+1	1.45185E+1	2.03854E+1	1.45198E+1
129	15/03/2023	17:09:29.975	0.00000E+0	0.00000E+0	-2.40177E+1	-2.51107E-1	0.00000E+0	0.00000E+0	2.09135E+1	1.40108E+1	2.09140E+1	1.40101E+1
130	15/03/2023	17:09:31.491	0.00000E+0	0.00000E+0	-3.04901E+1	-3.87400E-2	0.00000E+0	0.00000E+0	2.08101E+1	1.41487E+1	2.08110E+1	1.41483E+1
131	15/03/2023	17:09:33.010	0.00000E+0	0.00000E+0	-3.17519E+1	-9.28764E-1	0.00000E+0	0.00000E+0	2.08113E+1	1.41109E+1	2.08139E+1	1.41109E+1
132	15/03/2023	17:09:34.492	0.00000E+0	0.00000E+0	-3.56768E+1	-2.07360E-1	0.00000E+0	0.00000E+0	2.07460E+1	1.41852E+1	2.07463E+1	1.41807E+1
133	15/03/2023	17:09:36.027	0.00000E+0	0.00000E+0	-1.43523E+1	-1.91329E-1	0.00000E+0	0.00000E+0	2.09800E+1	1.39582E+1	2.09800E+1	1.39597E+1
134	15/03/2023	17:09:37.504	0.00000E+0	0.00000E+0	4.34733E+1	-7.54731E+0	0.00000E+0	0.00000E+0	2.19990E+1	1.30857E+1	2.19979E+1	1.30862E+1
135	15/03/2023	17:09:38.961	0.00000E+0	0.00000E+0	7.30492E+1	3.40217E+0	0.00000E+0	0.00000E+0	2.22752E+1	1.26875E+1	2.22731E+1	1.26859E+1
136	15/03/2023	17:09:40.747	0.00000E+0	0.00000E+0	3.90892E+1	8.83878E-1	0.00000E+0	0.00000E+0	2.18385E+1	1.31433E+1	2.18373E+1	1.31455E+1
137	15/03/2023	17:09:42.334	0.00000E+0	0.00000E+0	8.70651E+1	5.20229E-1	0.00000E+0	0.00000E+0	2.23749E+1	1.25614E+1	2.23782E+1	1.25620E+1
138	15/03/2023	17:09:43.836	0.00000E+0	0.00000E+0	2.88972E+1	-7.88301E-2	0.00000E+0	0.00000E+0	2.16790E+1	1.32835E+1	2.16767E+1	1.32814E+1
139	15/03/2023	17:09:45.342	0.00000E+0	0.00000E+0	1.51833E+1	2.30190E-1	0.00000E+0	0.00000E+0	2.14580E+1	1.34813E+1	2.14568E+1	1.34811E+1
140	15/03/2023	17:09:46.814	0.00000E+0	0.00000E+0	-5.46853E+1	-1.45858E-1	0.00000E+0	0.00000E+0	2.05112E+1	1.44034E+1	2.05103E+1	1.44033E+1
141	15/03/2023	17:09:48.357	0.00000E+0	0.00000E+0	-3.17146E+1	-3.59782E-1	0.00000E+0	0.00000E+0	2.07505E+1	1.41865E+1	2.07538E+1	1.41879E+1
142	15/03/2023	17:09:49.821	0.00000E+0	0.00000E+0	-2.07616E+1	1.29141E-1	0.00000E+0	0.00000E+0	2.09569E+1	1.39914E+1	2.09583E+1	1.39929E+1
143	15/03/2023	17:09:51.326	0.00000E+0	0.00000E+0	-5.88577E+1	-4.27914E-2	0.00000E+0	0.00000E+0	2.04121E+1	1.45193E+1	2.04112E+1	1.45204E+1
144	15/03/2023	17:09:52.820	0.00000E+0	0.00000E+0	-1.84922E+1	-4.14328E-1	0.00000E+0	0.00000E+0	2.09705E+1	1.39693E+1	2.09691E+1	1.39684E+1
145	15/03/2023	17:09:54.355	0.00000E+0	0.00000E+0	-4.81465E+1	-2.70693E-1	0.00000E+0	0.00000E+0	2.05884E+1	1.43602E+1	2.05895E+1	1.43591E+1
146	15/03/2023	17:09:55.879	0.00000E+0	0.00000E+0	-4.21520E+1	1.54142E+0	0.00000E+0	0.00000E+0	2.06712E+1	1.42715E+1	2.06692E+1	1.42703E+1
147	15/03/2023	17:09:57.381	0.00000E+0	0.00000E+0	2.00136E+1	-6.14117E-1	0.00000E+0	0.00000E+0	2.15669E+1	1.33792E+1	2.15691E+1	1.33777E+1
148	15/03/2023	17:09:58.863	0.00000E+0	0.00000E+0	3.39272E+1	-9.63057E-2	0.00000E+0	0.00000E+0	2.16902E+1	1.32343E+1	2.16904E+1	1.32341E+1
149	15/03/2023	17:10:00.382	0.00000E+0	0.00000E+0	1.93928E+1	-1.28219E-2	0.00000E+0	0.00000E+0	2.15149E+1	1.34254E+1	2.15149E+1	1.34244E+1
150	15/03/2023	17:10:01.863	0.00000E+0	0.00000E+0	2.72610E+1	6.04019E-1	0.00000E+0	0.00000E+0	2.16541E+1	1.33130E+1	2.16554E+1	1.33122E+1
151	15/03/2023	17:10:03.399	0.00000E+0	0.00000E+0	2.71636E+1	-1.58836E+0	0.00000E+0	0.00000E+0	2.16329E+1	1.33332E+1	2.16327E+1	1.33349E+1
152	15/03/2023	17:10:04.887	0.00000E+0	0.00000E+0	4.27560E+1	-1.36534E+0	0.00000E+0	0.00000E+0	2.18297E+1	1.31263E+1	2.18287E+1	1.31250E+1
153	15/03/2023	17:10:06.384	0.00000E+0	0.00000E+0	1.04105E+1	-9.25199E-1	0.00000E+0	0.00000E+0	2.13504E+1	1.35760E+1	2.13510E+1	1.35771E+1
154	15/03/2023	17:10:07.850	0.00000E+0	0.00000E+0	3.71447E+1	1.19693E+0	0.00000E+0	0.00000E+0	2.17786E+1	1.31564E+1	2.17772E+1	1.31567E+1
155	15/03/2023	17:10:09.330	0.00000E+0	0.00000E+0	3.06645E+1	1.41155E+0	0.00000E+0	0.00000E+0	2.16790E+1	1.33016E+1	2.16806E+1	1.33017E+1
156	15/03/2023	17:10:10.829	0.00000E+0	0.00000E+0	-4.96785E+1	-1.59444E+0	0.00000E+0	0.00000E+0	2.05582E+1	1.43583E+1	2.05603E+1	1.43582E+1
157	15/03/2023	17:10:12.328	0.00000E+0	0.00000E+0	-3.29539E+1	-2.56696E-1	0.00000E+0	0.00000E+0	2.08207E+1	1.41303E+1	2.08232E+1	1.41313E+1
158	15/03/2023	17:10:13.833	0.00000E+0	0.00000E+0	-2.94629E+1	-1.77448E-1	0.00000E+0	0.00000E+0	2.08420E+1	1.40902E+1	2.08422E+1	1.40903E+1
159	15/03/2023	17:10:15.281	0.00000E+0	0.00000E+0	-3.38765E+1	4.81287E-1	0.00000E+0	0.00000E+0	2.07692E+1	1.42236E+1	2.07694E+1	1.42247E+1
160	15/03/2023	17:10:16.779	0.00000E+0	0.00000E+0	-1.63735E+1	9.02372E-1	0.00000E+0	0.00000E+0	2.10152E+1	1.39598E+1	2.10137E+1	1.39619E+1
161	15/03/2023	17:10:18.287	0.00000E+0	0.00000E+0	-3.65260E+1	1.81068E-1	0.00000E+0	0.00000E+0	2.07716E+1	1.41879E+1	2.07688E+1	1.41882E+1
162	15/03/2023	17:10:19.793	0.00000E+0	0.00000E+0	-2.22936E+1	-2.35650E-1	0.00000E+0	0.00000E+0	2.09479E+1	1.39905E+1	2.09476E+1	1.39893E+1
163	15/03/2023	17:10:21.293	0.00000E+0	0.00000E+0	-3.52613E+1	1.45523E-1	0.00000E+0	0.00000E+0	2.07068E+1	1.42535E+1	2.07082E+1	1.42522E+1
164	15/03/2023	17:10:22.783	0.00000E+0	0.00000E+0	8.03202E+1	1.68347E+0	0.00000E+0	0.00000E+0	2.24282E+1	1.25135E+1	2.24258E+1	1.25125E+1
165	15/03/2023	17:10:24.262	0.00000E+0	0.00000E+0	7.11442E+1	1.47804E-1	0.00000E+0	0.00000E+0	2.22677E+1	1.26603E+1	2.22661E+1	1.26592E+1
166	15/03/2023	17:10:25.747	0.00000E+0	0.00000E+0	4.37241E+1	2.68966E+0	0.00000E+0	0.00000E+0	2.19263E+1	1.30396E+1	2.19267E+1	1.30392E+1
167	15/03/2023	17:10:27.244	0.00000E+0	0.00000E+0	2.00719E+1	-7.93900E-1	0.00000E+0	0.00000E+0	2.15228E+1	1.34344E+1	2.15248E+1	1.34328E+1
168	15/03/2023	17:10:28.762	0.00000E+0	0.00000E+0	2.34440E+1	8.27788E-1	0.00000E+0	0.00000E+0	2.15986E+1	1.34204E+1	2.15988E+1	1.34190E+1
169	15/03/2023	17:10:30.251	0.00000E+0	0.00000E+0	2.83151E+1	-1.57906E+0	0.00000E+0	0.00000E+0	2.17083E+1	1.32324E+1	2.17090E+1	1.32323E+1
170	15/03/2023	17:10:31.774	0.00000E+0	0.00000E+0	-4.37955E+1	-3.30755E-1	0.00000E+0	0.00000E+0	2.06296E+1	1.42974E+1	2.06251E+1	1.42968E+1
171	15/03/2023	17:10:33.257	0.00000E+0	0.00000E+0	-4.41963E+1	-8.34633E-1	0.00000E+0	0.00000E+0	2.06295E+1	1.42771E+1	2.06285E+1	1.42772E+1
172	15/03/2023	17:10:34.696	0.00000E+0	0.00000E+0	-4.97648E+1	5.75615E-1	0.00000E+0	0.00000E+0	2.05796E+1	1.44017E+1	2.05804E+1	1.44003E+1
173	15/03/2023	17:10:36.194	0.00000E+0	0.00000E+0	-2.65333E+1	3.69003E-1	0.00000E+0	0.00000E+0	2.08896E+1	1.40627E+1	2.08902E+1	1.40659E+1
174	15/03/2023	17:10:37.713	0.00000E+0	0.00000E+0	-2.18747E+1	-2.32100E-1	0.00000E+0	0.00000E+0	2.09569E+1	1.39879E+1	2.09558E+1	1.39877E+1
175	15/03/2023	17:10:39.215	0.00000E+0	0.00000E+0	-1.32386E+1	-2.61935E-1	0.00000E+0	0.00000E+0	2.10513E+1	1.39052E+1	2.10493E+1	1.39048E+1
176	15/03/2023	17:10:40.665	0.00000E+0	0.00000E+0	-3.81260E+1	-2.66321E-1	0.00000E+0	0.00000E+0	2.07102E+1	1.42183E+1	2.07090E+1	1.42206E+1
177	15/03/2023	17:10:42.118	0.00000E+0	0.00000E+0	3.41826E+1	1.06641E+0	0.00000E+0	0.00000E+0	2.17261E+1	1.32658E+1	2.17227E+1	1.32632E+1
178	15/03/2023	17:10:43.597	0.00000E+0	0.00000E+0	2.33376E+1	8.13642E-1	0.00000E+0	0.00000E+0	2.15827E+1	1.33936E+1	2.15837E+1	1.33931E+1
179	15/03/2023	17:10:45.050	0.00000E+0	0.00000E+0	2.95359E+1	-1.29618E+0	0.00000E+0	0.00000E+0	2.16774E+1	1.32534E+1	2.16753E+1	1.32552E+1
180	15/03/2023	17:10:46.564	0.00000E+0	0.00000E+0	4.49284E+1	1.86491E+0	0.00000E+0	0.00000E+0	2.18960E+1	1.31020E+1	2.18962E+1	1.31006E+1
181	15/03/2023	17:10:48.060	0.00000E+0	0.00000E+0	2.33080E+1	-7.37028E-1	0.00000E+0	0.00000E+0	2.15966E+1	1.33552E+1	2.15957E+1	1.33552E+1
182	15/03/2023	17:10:49.580	0.00000E+0	0.00000E+0	3.45210E+1	-8.81695E-1	0.00000E+0	0.00000E+0	2.17602E+1	1.32024E+1	2.17636E+1	1.32030E+1
183	15/03/2023	17:10:51.034	0.00000E+0	0.00000E+0	1.99002E+1	-2.73416E-1	0.00000E+0	0.00000E+0	2.15509E+1	1.34034E+1	2.15522E+1	1.34036E+1
184	15/03/2023	17:10:52.537	0.00000E+0	0.00000E+0	-1.44640E+1	-7.78683E-1	0.00000E+0	0.00000E+0	2.10586E+1	1.38822E+1	2.10604E+1	1.38824E+1
185	15/03/2023	17:10:54.068	0.00000E+0	0.00000E+0	-4.15182E+1	3.72769E-1	0.00000E+0	0.00000E+0	2.06729E+1	1.42663E+1	2.06737E+1	1.42676E+1
186	15/03/2023	17:10:55.549	0.00000E+0	0.00000E+0	-3.73166E+1	1.31463E-1	0.00000E+0	0.00000E+0	2.07514E+1	1.42070E+1	2.07497E+1	1.42053E+1
187	15/03/2023	17:10:57.041	0.00000E+0	0.00000E+0	-4.26368E+1	1.06365E+0	0.00000E+0	0.00000E+0	2.06594E+1	1.42832E+1	2.06611E+1	1.42846E+1
188	15/03/2023	17:10:58.568	0.00000E+0	0.00000E+0	-3.84888E+1	-1.00576E+0	0.00000E+0	0.00000E+0	2.07254E+1	1.42105E+1	2.07246E+1	1.42096E+1
189	15/03/2023	17:11:00.233	0.00000E+0	0.00000E+0	-4.78902E+1	7.38024E-1	0.00000E+0	0.00000E+0	2.05791E+1	1.43492E+1	2.05794E+1	1.43485E+1
190	15/03/2023	17:11:01.961	0.00000E+0	0.00000E+0	5.26856E+1	1.11248E-1	0.00000E+0	0.00000E+0	2.19396E+1	1.30245E+1	2.19385E+1	1.30246E+1
191	15/03/2023	17:11:03.411	0.00000E+0	0.00000E+0	4.11639E+1	5.80516E-1	0.00000E+0	0.00000E+0	2.18040E+1	1.31277E+1	2.18060E+1	1.31282E+1
192	15/03/2023	17:11:04.894	0.00000E+0	0.00000E+0	2.42152E+1	2.88562E-1	0.00000E+0	0.00000E+0	2.15756E+1	1.33939E+1	2.15748E+1	1.33952E+1
193	15/03/2023	17:11:06.413	0.00000E+0	0.00000E+0	4.55773E+1	-7.09232E-1	0.00000E+0	0.00000E+0	2.19140E+1	1.31155E+1	2.19164E+1	1.31155E+1
194	15/03/2023	17:11:07.896	0.00000E+0	0.00000E+0	3.04542E+1	-3.37509E-1	0.00000E+0	0.00000E+0	2.16520E+1	1.33050E+1	2.16526E+1	1.33037E+1
195	15/03/2023	17:11:09.377	0.00000E+0	0.00000E+0	2.34567E+1	-1.45769E+0	0.00000E+0	0.00000E+0	2.15903E+1	1.33726E+1	2.15903E+1	1.33718E+1
196	15/03/2023	17:11:10.892	0.00000E+0	0.00000E+0	2.92751E+1	-4.71236E-1	0.00000E+0	0.00000E+0	2.16562E+1	1.32822E+1	2.16563E+1	1.32832E+1
197	15/03/2023	17:11:12.371	0.00000E+0	0.00000E+0	-2.53278E+1	6.23475E-1	0.00000E+0	0.00000E+0	2.09103E+1	1.40451E+1	2.09097E+1	1.40456E+1
198	15/03/2023	17:11:13.867	0.00000E+0	0.00000E+0	-4.76243E+1	2.20075E-3	0.00000E+0	0.00000E+0	2.05951E+1	1.43438E+1	2.05948E+1	1.43392E+1
199	15/03/2023	17:11:15.367	0.00000E+0	0.00000E+0	-4.18684E+1	-3.71361E-1	0.00000E+0	0.00000E+0	2.06840E+1	1.42746E+1	2.06851E+1	1.42717E+1
200	15/03/2023	17:11:16.900	0.00000E+0	0.00000E+0	-3.24666E+1	-1.78071E+0	0.00000E+0	0.00000E+0	2.07983E+1	1.41333E+1	2.07999E+1	1.41326E+1
201	15/03/2023	17:11:18.439	0.00000E+0	0.00000E+0	-2.28248E+1	-3.87108E-3	0.00000E+0	0.00000E+0	2.09640E+1	1.39865E+1	2.09645E+1	1.39840E+1
202	15/03/2023	17:11:19.927	0.00000E+0	0.00000E+0	-2.20452E+1	-4.32767E-1	0.00000E+0	0.00000E+0	2.09531E+1	1.39993E+1	2.09528E+1	1.39990E+1
203	15/03/2023	17:11:21.417	0.00000E+0	0.00000E+0	-4.83561E+1	-1.41519E+0	0.00000E+0	0.00000E+0	2.05228E+1	1.44013E+1	2.05207E+1	1.44004E+1
204	15/03/2023	17:11:22.915	0.00000E+0	0.00000E+0	4.45350E+1	7.13148E-1	0.00000E+0	0.00000E+0	2.18443E+1	1.31112E+1	2.18463E+1	1.31101E+1
205	15/03/2023	17:11:24.398	0.00000E+0	0.00000E+0	1.80224E+1	1.55550E-1	0.00000E+0	0.00000E+0	2.14849E+1	1.34582E+1	2.14840E+1	1.34561E+1
206	15/03/2023	17:11:25.855	0.00000E+0	0.00000E+0	2.99510E+1	9.53149E-1	0.00000E+0	0.00000E+0	2.16793E+1	1.32886E+1	2.16783E+1	1.32863E+1
207	15/03/2023	17:11:27.313	0.00000E+0	0.00000E+0	2.94685E+1	8.33036E-1	0.00000E+0	0.00000E+0	2.16581E+1	1.33146E+1	2.16574E+1	1.33141E+1
208	15/03/2023	17:11:28.815	0.00000E+0	0.00000E+0	6.30888E+1	-1.58032E+0	0.00000E+0	0.00000E+0	2.21087E+1	1.28473E+1	2.21070E+1	1.28490E+1
209	15/03/2023	17:11:30.334	0.00000E+0	0.00000E+0	5.35039E+1	-7.99901E-1	0.00000E+0	0.00000E+0	2.19954E+1	1.28983E+1	2.19940E+1	1.28990E+1
210	15/03/2023	17:11:31.822	0.00000E+0	0.00000E+0	2.76073E+1	3.96997E-1	0.00000E+0	0.00000E+0	2.16863E+1	1.32792E+1	2.16845E+1	1.32783E+1
211	15/03/2023	17:11:33.299	0.00000E+0	0.00000E+0	-3.95169E+1	-9.95763E-2	0.00000E+0	0.00000E+0	2.07063E+1	1.42407E+1	2.07056E+1	1.42408E+1
212	15/03/2023	17:11:34.798	0.00000E+0	0.00000E+0	-3.88971E+1	-1.35208E-2	0.00000E+0	0.00000E+0	2.06910E+1	1.42224E+1	2.06925E+1	1.42210E+1
213	15/03/2023	17:11:36.304	0.00000E+0	0.00000E+0	-3.24139E+1	6.43154E-1	0.00000E+0	0.00000E+0	2.07961E+1	1.41598E+1	2.07951E+1	1.41606E+1
214	15/03/2023	17:11:37.791	0.00000E+0	0.00000E+0	-3.56057E+1	5.08451E-2	0.00000E+0	0.00000E+0	2.07401E+1	1.42197E+1	2.07408E+1	1.42199E+1
215	15/03/2023	17:11:39.251	0.00000E+0	0.00000E+0	-1.42636E+1	4.89723E-1	0.00000E+0	0.00000E+0	2.10614E+1	1.39120E+1	2.10585E+1	1.39130E+1
216	15/03/2023	17:11:40.791	0.00000E+0	0.00000E+0	-3.13178E+1	-2.22827E-2	0.00000E+0	0.00000E+0	2.07841E+1	1.41641E+1	2.07856E+1	1.41615E+1
217	15/03/2023	17:11:42.281	0.00000E+0	0.00000E+0	-3.45050E+1	2.23058E-1	0.00000E+0	0.00000E+0	2.07806E+1	1.41663E+1	2.07804E+1	1.41647E+1
218	15/03/2023	17:11:43.759	0.00000E+0	0.00000E+0	1.05399E+1	-8.97766E-2	0.00000E+0	0.00000E+0	2.13175E+1	1.36521E+1	2.13177E+1	1.36522E+1
219	15/03/2023	17:11:45.276	0.00000E+0	0.00000E+0	4.85680E+1	4.13041E-2	0.00000E+0	0.00000E+0	2.20042E+1	1.29531E+1	2.20038E+1	1.29538E+1
220	15/03/2023	17:11:46.781	0.00000E+0	0.00000E+0	2.29889E+1	-8.29381E-2	0.00000E+0	0.00000E+0	2.15557E+1	1.33547E+1	2.15575E+1	1.33532E+1
221	15/03/2023	17:11:48.251	0.00000E+0	0.00000E+0	4.50874E+1	-1.05612E-1	0.00000E+0	0.00000E+0	2.19001E+1	1.30679E+1	2.19015E+1	1.30657E+1
222	15/03/2023	17:11:49.797	0.00000E+0	0.00000E+0	2.72982E+1	1.65863E+0	0.00000E+0	0.00000E+0	2.16521E+1	1.33089E+1	2.16532E+1	1.33089E+1
223	15/03/2023	17:11:51.279	0.00000E+0	0.00000E+0	4.00429E+1	6.23177E-1	0.00000E+0	0.00000E+0	2.18189E+1	1.31577E+1	2.18196E+1	1.31566E+1
224	15/03/2023	17:11:52.793	0.00000E+0	0.00000E+0	3.16821E+1	1.19938E-1	0.00000E+0	0.00000E+0	2.16949E+1	1.32444E+1	2.16937E+1	1.32434E+1
225	15/03/2023	17:11:54.338	0.00000E+0	0.00000E+0	-2.26004E+1	-1.30273E+0	0.00000E+0	0.00000E+0	2.09464E+1	1.40110E+1	2.09439E+1	1.40146E+1
226	15/03/2023	17:11:55.819	0.00000E+0	0.00000E+0	-3.68271E+1	-9.50300E-1	0.00000E+0	0.00000E+0	2.07341E+1	1.41718E+1	2.07359E+1	1.41702E+1
227	15/03/2023	17:11:57.309	0.00000E+0	0.00000E+0	-3.87394E+1	-1.59830E-1	0.00000E+0	0.00000E+0	2.07052E+1	1.42201E+1	2.07045E+1	1.42171E+1
228	15/03/2023	17:11:58.791	0.00000E+0	0.00000E+0	-4.65057E+1	-4.13586E-1	0.00000E+0	0.00000E+0	2.05615E+1	1.43542E+1	2.05613E+1	1.43549E+1
229	15/03/2023	17:12:00.306	0.00000E+0	0.00000E+0	-4.64700E+1	-9.24061E-1	0.00000E+0	0.00000E+0	2.05355E+1	1.43803E+1	2.05366E+1	1.43805E+1
230	15/03/2023	17:12:01.805	0.00000E+0	0.00000E+0	-5.35366E+1	-6.60315E-1	0.00000E+0	0.00000E+0	2.04469E+1	1.45066E+1	2.04469E+1	1.45061E+1
231	15/03/2023	17:12:03.284	0.00000E+0	0.00000E+0	6.89561E+0	1.13741E+0	0.00000E+0	0.00000E+0	2.13160E+1	1.36113E+1	2.13169E+1	1.36118E+1
232	15/03/2023	17:12:04.763	0.00000E+0	0.00000E+0	4.33606E+1	3.92634E-1	0.00000E+0	0.00000E+0	2.18300E+1	1.31103E+1	2.18306E+1	1.31100E+1
233	15/03/2023	17:12:06.286	0.00000E+0	0.00000E+0	3.06628E+1	-4.78219E-1	0.00000E+0	0.00000E+0	2.16989E+1	1.32347E+1	2.16988E+1	1.32360E+1
234	15/03/2023	17:12:07.761	0.00000E+0	0.00000E+0	3.08756E+1	1.21359E-1	0.00000E+0	0.00000E+0	2.17057E+1	1.32700E+1	2.17048E+1	1.32706E+1
235	15/03/2023	17:12:09.283	0.00000E+0	0.00000E+0	5.37054E+1	3.54229E+0	0.00000E+0	0.00000E+0	2.19984E+1	1.29677E+1	2.20003E+1	1.29682E+1
236	15/03/2023	17:12:10.716	0.00000E+0	0.00000E+0	4.60504E+1	8.87464E-1	0.00000E+0	0.00000E+0	2.18803E+1	1.30579E+1	2.18779E+1	1.30586E+1
237	15/03/2023	17:12:12.208	0.00000E+0	0.00000E+0	7.96843E+0	-3.05397E-2	0.00000E+0	0.00000E+0	2.13393E+1	1.35779E+1	2.13405E+1	1.35761E+1
238	15/03/2023	17:12:13.687	0.00000E+0	0.00000E+0	5.84925E+1	4.13134E-2	0.00000E+0	0.00000E+0	2.22267E+1	1.27589E+1	2.22274E+1	1.27584E+1
239	15/03/2023	17:12:15.162	0.00000E+0	0.00000E+0	-8.76487E+1	-1.86396E+0	0.00000E+0	0.00000E+0	1.99867E+1	1.49101E+1	1.99844E+1	1.49093E+1
240	15/03/2023	17:12:16.597	0.00000E+0	0.00000E+0	-5.10556E+1	-1.33606E+0	0.00000E+0	0.00000E+0	2.05685E+1	1.43666E+1	2.05695E+1	1.43679E+1
241	15/03/2023	17:12:18.077	0.00000E+0	0.00000E+0	-7.41504E+1	-8.10135E-1	0.00000E+0	0.00000E+0	2.02128E+1	1.47030E+1	2.02143E+1	1.47016E+1
242	15/03/2023	17:12:19.579	0.00000E+0	0.00000E+0	-1.14516E+1	7.23113E-1	0.00000E+0	0.00000E+0	2.10807E+1	1.38773E+1	2.10785E+1	1.38756E+1
