#Iteration	Date	Time	RTPhase	NFringe	AccelAxis	AccelMean	AccelTemp
1	15/03/2023	17:06:17.711	4.64451033E+0	2.51400000E+3	2.00000000E+0	-9.80632800E+0	7.16628800E+6
2	15/03/2023	17:06:19.248	1.23830599E+0	-2.51600000E+3	2.00000000E+0	-9.80632800E+0	7.16628800E+6
3	15/03/2023	17:06:20.771	3.61214126E+0	2.51400000E+3	2.00000000E+0	-9.80632800E+0	7.16628800E+6
4	15/03/2023	17:06:22.280	2.41141780E+0	-2.50100000E+3	2.00000000E+0	-9.80632800E+0	7.16628800E+6
5	15/03/2023	17:06:23.802	1.67203906E+0	2.48100000E+3	2.00000000E+0	-9.80632800E+0	7.16628800E+6
6	15/03/2023	17:06:25.286	3.40735483E+0	-2.50800000E+3	2.00000000E+0	-9.80632800E+0	7.16628800E+6
7	15/03/2023	17:06:26.838	2.80104892E+0	2.50000000E+3	2.00000000E+0	-9.80632800E+0	7.16628800E+6
8	15/03/2023	17:06:28.311	5.48168035E+0	-2.50600000E+3	2.00000000E+0	-9.80632800E+0	7.16628800E+6
9	15/03/2023	17:06:29.782	2.05016532E+0	2.48100000E+3	2.00000000E+0	-9.80632800E+0	7.16628800E+6
10	15/03/2023	17:06:31.350	1.71767499E+0	-2.48900000E+3	2.00000000E+0	-9.80632800E+0	7.16628800E+6
11	15/03/2023	17:06:32.837	2.14757310E-1	2.50800000E+3	2.00000000E+0	-9.80632800E+0	7.16628800E+6
12	15/03/2023	17:06:34.352	3.65931117E+0	-2.51600000E+3	2.00000000E+0	-9.80632800E+0	7.16628800E+6
13	15/03/2023	17:06:35.810	2.42407314E+0	2.52000000E+3	2.00000000E+0	-9.80632800E+0	7.16628800E+6
14	15/03/2023	17:06:37.297	2.43634499E+0	-2.49100000E+3	2.00000000E+0	-9.80632800E+0	7.16628800E+6
15	15/03/2023	17:06:38.805	9.15786530E-1	2.47500000E+3	2.00000000E+0	-9.80632800E+0	7.16628800E+6
16	15/03/2023	17:06:40.340	4.32544233E+0	-2.49100000E+3	2.00000000E+0	-9.80632800E+0	7.16628800E+6
17	15/03/2023	17:06:41.881	7.44364177E-1	2.50500000E+3	2.00000000E+0	-9.80632800E+0	7.16628800E+6
18	15/03/2023	17:06:43.441	2.76806833E+0	-2.51600000E+3	2.00000000E+0	-9.80632800E+0	7.16628800E+6
19	15/03/2023	17:06:44.964	6.19037947E+0	2.50900000E+3	2.00000000E+0	-9.80632800E+0	7.16628800E+6
20	15/03/2023	17:06:46.524	5.75434543E+0	-2.50700000E+3	2.00000000E+0	-9.80632800E+0	7.16628800E+6
21	15/03/2023	17:06:48.040	1.20455841E+0	2.49400000E+3	2.00000000E+0	-9.80632800E+0	7.16628800E+6
22	15/03/2023	17:06:49.534	3.97224325E+0	-2.47400000E+3	2.00000000E+0	-9.80632800E+0	7.16628800E+6
23	15/03/2023	17:06:51.047	5.63469493E+0	2.49800000E+3	2.00000000E+0	-9.80632800E+0	7.16628800E+6
24	15/03/2023	17:06:52.545	2.70670910E+0	-2.50700000E+3	2.00000000E+0	-9.80632800E+0	7.16628800E+6
25	15/03/2023	17:06:54.057	4.84239385E+0	2.52000000E+3	2.00000000E+0	-9.80632800E+0	7.16628800E+6
26	15/03/2023	17:06:55.557	6.26822899E+0	-2.50900000E+3	2.00000000E+0	-9.80632800E+0	7.16628800E+6
27	15/03/2023	17:06:57.055	4.65563169E+0	2.49500000E+3	2.00000000E+0	-9.80632800E+0	7.16628800E+6
28	15/03/2023	17:06:58.566	1.49601476E+0	-2.47800000E+3	2.00000000E+0	-9.80632800E+0	7.16628800E+6
29	15/03/2023	17:07:00.038	2.27029157E+0	2.48300000E+3	2.00000000E+0	-9.80632800E+0	7.16628800E+6
30	15/03/2023	17:07:01.512	5.95989886E+0	-2.50000000E+3	2.00000000E+0	-9.80632800E+0	7.16628800E+6
31	15/03/2023	17:07:02.973	5.16529681E+0	2.50800000E+3	2.00000000E+0	-9.80632800E+0	7.16628800E+6
32	15/03/2023	17:07:04.493	5.10738903E+0	-2.51700000E+3	2.00000000E+0	-9.80632800E+0	7.16628800E+6
33	15/03/2023	17:07:05.984	6.93359316E-1	2.51600000E+3	2.00000000E+0	-9.80632800E+0	7.16628800E+6
34	15/03/2023	17:07:07.468	5.33595217E+0	-2.50900000E+3	2.00000000E+0	-9.80632800E+0	7.16628800E+6
35	15/03/2023	17:07:08.947	2.40758285E+0	2.50200000E+3	2.00000000E+0	-9.80632800E+0	7.16628800E+6
36	15/03/2023	17:07:10.457	2.90152466E+0	-2.49100000E+3	2.00000000E+0	-9.80632800E+0	7.16628800E+6
37	15/03/2023	17:07:11.908	1.24137395E+0	2.48600000E+3	2.00000000E+0	-9.80632800E+0	7.16628800E+6
38	15/03/2023	17:07:13.392	3.13967518E+0	-2.50300000E+3	2.00000000E+0	-9.80632800E+0	7.16628800E+6
39	15/03/2023	17:07:14.875	3.11704896E+0	2.51300000E+3	2.00000000E+0	-9.80632800E+0	7.16628800E+6
40	15/03/2023	17:07:16.423	3.29652471E+0	-2.51100000E+3	2.00000000E+0	-9.80632800E+0	7.16628800E+6
41	15/03/2023	17:07:17.905	2.61812171E+0	2.50500000E+3	2.00000000E+0	-9.80632800E+0	7.16628800E+6
42	15/03/2023	17:07:19.372	6.46956397E-1	-2.49100000E+3	2.00000000E+0	-9.80632800E+0	7.16628800E+6
43	15/03/2023	17:07:20.841	4.10378210E+0	2.47100000E+3	2.00000000E+0	-9.80632800E+0	7.16628800E+6
44	15/03/2023	17:07:22.300	4.32122388E+0	-2.48600000E+3	2.00000000E+0	-9.80632800E+0	7.16628800E+6
45	15/03/2023	17:07:23.805	6.94126307E-1	2.50600000E+3	2.00000000E+0	-9.80632800E+0	7.16628800E+6
46	15/03/2023	17:07:25.296	5.19904439E+0	-2.51400000E+3	2.00000000E+0	-9.80632800E+0	7.16628800E+6
47	15/03/2023	17:07:26.845	5.09895214E+0	2.51100000E+3	2.00000000E+0	-9.80632800E+0	7.16628800E+6
48	15/03/2023	17:07:28.381	4.53022876E+0	-2.51300000E+3	2.00000000E+0	-9.80632800E+0	7.16628800E+6
49	15/03/2023	17:07:29.827	3.80810731E-1	2.50900000E+3	2.00000000E+0	-9.80632800E+0	7.16628800E+6
50	15/03/2023	17:07:31.299	2.96365088E+0	-2.50100000E+3	2.00000000E+0	-9.80632800E+0	7.16628800E+6
51	15/03/2023	17:07:32.770	4.27443747E+0	2.47500000E+3	2.00000000E+0	-9.80632800E+0	7.16628800E+6
52	15/03/2023	17:07:34.261	2.84936931E+0	-2.49700000E+3	2.00000000E+0	-9.80632800E+0	7.16628800E+6
53	15/03/2023	17:07:35.786	2.68523337E+0	2.50400000E+3	2.00000000E+0	-9.80632800E+0	7.16628800E+6
54	15/03/2023	17:07:37.318	5.69873863E-1	-2.51700000E+3	2.00000000E+0	-9.80632800E+0	7.16628800E+6
55	15/03/2023	17:07:38.821	3.06796158E-3	2.51700000E+3	2.00000000E+0	-9.80632800E+0	7.16628800E+6
56	15/03/2023	17:07:40.299	4.86962201E+0	-2.51000000E+3	2.00000000E+0	-9.80632800E+0	7.16628800E+6
57	15/03/2023	17:07:41.828	3.39853444E+0	2.49100000E+3	2.00000000E+0	-9.80632800E+0	7.16628800E+6
58	15/03/2023	17:07:43.321	6.66514652E-1	-2.48500000E+3	2.00000000E+0	-9.80632800E+0	7.16628800E+6
59	15/03/2023	17:07:44.823	4.76531132E+0	2.47900000E+3	2.00000000E+0	-9.80632800E+0	7.16628800E+6
60	15/03/2023	17:07:46.301	2.22849059E+0	-2.49600000E+3	2.00000000E+0	-9.80632800E+0	7.16628800E+6
61	15/03/2023	17:07:47.787	2.43979644E+0	2.50900000E+3	2.00000000E+0	-9.80632800E+0	7.16628800E+6
62	15/03/2023	17:07:49.279	3.97454422E+0	-2.51000000E+3	2.00000000E+0	-9.80632800E+0	7.16628800E+6
63	15/03/2023	17:07:50.808	7.86548649E-1	2.52000000E+3	2.00000000E+0	-9.80632800E+0	7.16628800E+6
64	15/03/2023	17:07:52.301	4.43665593E+0	-2.51500000E+3	2.00000000E+0	-9.80632800E+0	7.16628800E+6
65	15/03/2023	17:07:53.785	4.58046663E+0	2.51000000E+3	2.00000000E+0	-9.80632800E+0	7.16628800E+6
66	15/03/2023	17:07:55.260	4.79177249E+0	-2.50300000E+3	2.00000000E+0	-9.80632800E+0	7.16628800E+6
67	15/03/2023	17:07:56.732	4.09956366E-1	2.49600000E+3	2.00000000E+0	-9.80632800E+0	7.16628800E+6
68	15/03/2023	17:07:58.181	1.72956334E+0	-2.47900000E+3	2.00000000E+0	-9.80632800E+0	7.16628800E+6
69	15/03/2023	17:07:59.689	4.66445208E+0	2.49900000E+3	2.00000000E+0	-9.80632800E+0	7.16628800E+6
70	15/03/2023	17:08:01.189	5.48436481E+0	-2.51000000E+3	2.00000000E+0	-9.80632800E+0	7.16628800E+6
71	15/03/2023	17:08:02.657	2.59472850E+0	2.51400000E+3	2.00000000E+0	-9.80632800E+0	7.16628800E+6
72	15/03/2023	17:08:04.209	4.42975302E+0	-2.51000000E+3	2.00000000E+0	-9.80632800E+0	7.16628800E+6
73	15/03/2023	17:08:05.726	4.30358310E+0	2.50300000E+3	2.00000000E+0	-9.80632800E+0	7.16628800E+6
74	15/03/2023	17:08:07.226	2.84208290E+0	-2.48500000E+3	2.00000000E+0	-9.80632800E+0	7.16628800E+6
75	15/03/2023	17:08:08.697	2.09273329E+0	2.47800000E+3	2.00000000E+0	-9.80632800E+0	7.16628800E+6
76	15/03/2023	17:08:10.191	5.30067061E+0	-2.49500000E+3	2.00000000E+0	-9.80632800E+0	7.16628800E+6
77	15/03/2023	17:08:11.676	2.19896146E+0	2.50300000E+3	2.00000000E+0	-9.80632800E+0	7.16628800E+6
78	15/03/2023	17:08:13.230	1.42468466E+0	-2.51600000E+3	2.00000000E+0	-9.80632800E+0	7.16628800E+6
79	15/03/2023	17:08:14.720	2.52876733E+0	2.51100000E+3	2.00000000E+0	-9.80632800E+0	7.16628800E+6
80	15/03/2023	17:08:16.206	5.36663179E+0	-2.51300000E+3	2.00000000E+0	-9.80632800E+0	7.16628800E+6
81	15/03/2023	17:08:17.679	1.80664587E+0	2.49900000E+3	2.00000000E+0	-9.80632800E+0	7.16628800E+6
82	15/03/2023	17:08:19.232	5.69873863E-1	-2.47800000E+3	2.00000000E+0	-9.80632800E+0	7.16628800E+6
83	15/03/2023	17:08:20.772	4.02669957E+0	2.49600000E+3	2.00000000E+0	-9.80632800E+0	7.16628800E+6
84	15/03/2023	17:08:22.224	3.47676746E+0	-2.50400000E+3	2.00000000E+0	-9.80632800E+0	7.16628800E+6
85	15/03/2023	17:08:23.739	2.69980619E+0	2.51400000E+3	2.00000000E+0	-9.80632800E+0	7.16628800E+6
86	15/03/2023	17:08:25.218	2.59396151E+0	-2.54100000E+3	2.00000000E+0	-9.80632800E+0	7.16628800E+6
87	15/03/2023	17:08:26.714	5.31677741E+0	2.50200000E+3	2.00000000E+0	-9.80632800E+0	7.16628800E+6
88	15/03/2023	17:08:28.167	2.15716048E+0	-2.48800000E+3	2.00000000E+0	-9.80632800E+0	7.16628800E+6
89	15/03/2023	17:08:29.662	5.51005899E+0	2.47600000E+3	2.00000000E+0	-9.80632800E+0	7.16628800E+6
90	15/03/2023	17:08:31.124	4.35267049E+0	-2.49500000E+3	2.00000000E+0	-9.80632800E+0	7.16628800E+6
91	15/03/2023	17:08:32.685	2.56711685E+0	2.50500000E+3	2.00000000E+0	-9.80632800E+0	7.16628800E+6
92	15/03/2023	17:08:34.196	3.66813156E+0	-2.51600000E+3	2.00000000E+0	-9.80632800E+0	7.16628800E+6
93	15/03/2023	17:08:35.702	1.03390305E+0	2.51300000E+3	2.00000000E+0	-9.80632800E+0	7.16628800E+6
94	15/03/2023	17:08:37.149	1.86455365E+0	-2.51100000E+3	2.00000000E+0	-9.80632800E+0	7.16628800E+6
95	15/03/2023	17:08:38.619	8.81271963E-1	2.50000000E+3	2.00000000E+0	-9.80632800E+0	7.16628800E+6
96	15/03/2023	17:08:40.167	4.16935978E+0	-2.48000000E+3	2.00000000E+0	-9.80632800E+0	7.16628800E+6
97	15/03/2023	17:08:41.660	2.43327702E+0	2.48900000E+3	2.00000000E+0	-9.80632800E+0	7.16628800E+6
98	15/03/2023	17:08:43.157	6.13170470E+0	-2.50600000E+3	2.00000000E+0	-9.80632800E+0	7.16628800E+6
99	15/03/2023	17:08:44.628	1.02316519E+0	2.51400000E+3	2.00000000E+0	-9.80632800E+0	7.16628800E+6
100	15/03/2023	17:08:46.109	2.21123331E+0	-2.51800000E+3	2.00000000E+0	-9.80632800E+0	7.16628800E+6
101	15/03/2023	17:08:47.599	2.69098580E+0	2.50300000E+3	2.00000000E+0	-9.80632800E+0	7.16628800E+6
102	15/03/2023	17:08:49.113	2.01833522E+0	-2.48200000E+3	2.00000000E+0	-9.80632800E+0	7.16628800E+6
103	15/03/2023	17:08:50.625	3.73984516E+0	2.48600000E+3	2.00000000E+0	-9.80632800E+0	7.16628800E+6
104	15/03/2023	17:08:52.120	1.72074295E+0	-2.50600000E+3	2.00000000E+0	-9.80632800E+0	7.16628800E+6
105	15/03/2023	17:08:53.616	2.07854397E+0	2.51200000E+3	2.00000000E+0	-9.80632800E+0	7.16628800E+6
106	15/03/2023	17:08:55.159	5.67035998E+0	-2.51200000E+3	2.00000000E+0	-9.80632800E+0	7.16628800E+6
107	15/03/2023	17:08:56.674	1.28087396E-1	2.49700000E+3	2.00000000E+0	-9.80632800E+0	7.16628800E+6
108	15/03/2023	17:08:58.160	3.91165101E+0	-2.48500000E+3	2.00000000E+0	-9.80632800E+0	7.16628800E+6
109	15/03/2023	17:08:59.661	4.63223848E+0	2.48200000E+3	2.00000000E+0	-9.80632800E+0	7.16628800E+6
110	15/03/2023	17:09:01.160	5.46979199E+0	-2.51200000E+3	2.00000000E+0	-9.80632800E+0	7.16628800E+6
111	15/03/2023	17:09:02.653	4.33464621E+0	2.50900000E+3	2.00000000E+0	-9.80632800E+0	7.16628800E+6
112	15/03/2023	17:09:04.171	5.93803963E+0	-2.49300000E+3	2.00000000E+0	-9.80632800E+0	7.16628800E+6
113	15/03/2023	17:09:05.661	1.92974783E+0	2.47600000E+3	2.00000000E+0	-9.80632800E+0	7.16628800E+6
114	15/03/2023	17:09:07.171	2.84553436E-1	-2.50300000E+3	2.00000000E+0	-9.80632800E+0	7.16628800E+6
115	15/03/2023	17:09:08.708	4.74843753E+0	2.51700000E+3	2.00000000E+0	-9.80632800E+0	7.16628800E+6
116	15/03/2023	17:09:10.199	5.49702015E+0	-2.50900000E+3	2.00000000E+0	-9.80632800E+0	7.16628800E+6
117	15/03/2023	17:09:11.688	1.70233518E+0	2.50700000E+3	2.00000000E+0	-9.80632800E+0	7.16628800E+6
118	15/03/2023	17:09:13.196	3.27159753E+0	-2.48500000E+3	2.00000000E+0	-9.80632800E+0	7.16628800E+6
119	15/03/2023	17:09:14.706	5.21821915E+0	2.48000000E+3	2.00000000E+0	-9.80632800E+0	7.16628800E+6
120	15/03/2023	17:09:16.204	1.47223806E+0	-2.50600000E+3	2.00000000E+0	-9.80632800E+0	7.16628800E+6
121	15/03/2023	17:09:17.684	5.44256384E+0	2.51500000E+3	2.00000000E+0	-9.80632800E+0	7.16628800E+6
122	15/03/2023	17:09:19.165	5.20671429E+0	-2.51500000E+3	2.00000000E+0	-9.80632800E+0	7.16628800E+6
123	15/03/2023	17:09:20.631	1.41049533E+0	2.47100000E+3	2.00000000E+0	-9.80632800E+0	7.16628800E+6
124	15/03/2023	17:09:22.342	7.90767096E-1	-2.39400000E+3	2.00000000E+0	-9.80632800E+0	7.16628800E+6
125	15/03/2023	17:09:23.941	4.23417047E+0	2.39300000E+3	2.00000000E+0	-9.80632800E+0	7.16628800E+6
126	15/03/2023	17:09:25.470	4.78218511E-1	-2.44800000E+3	2.00000000E+0	-9.80632800E+0	7.16628800E+6
127	15/03/2023	17:09:26.948	2.40950032E+0	2.49100000E+3	2.00000000E+0	-9.80632800E+0	7.16628800E+6
128	15/03/2023	17:09:28.455	2.07432552E+0	-2.50100000E+3	2.00000000E+0	-9.80632800E+0	7.16628800E+6
129	15/03/2023	17:09:29.975	5.74015611E+0	2.51500000E+3	2.00000000E+0	-9.80632800E+0	7.16628800E+6
130	15/03/2023	17:09:31.491	3.38051016E+0	-2.51400000E+3	2.00000000E+0	-9.80632800E+0	7.16628800E+6
131	15/03/2023	17:09:33.010	1.16697588E+0	2.51100000E+3	2.00000000E+0	-9.80632800E+0	7.16628800E+6
132	15/03/2023	17:09:34.492	3.42844706E-1	-2.50100000E+3	2.00000000E+0	-9.80632800E+0	7.16628800E+6
133	15/03/2023	17:09:36.027	6.67665138E-1	2.47400000E+3	2.00000000E+0	-9.80632800E+0	7.16628800E+6
134	15/03/2023	17:09:37.504	3.49747620E-1	-2.49200000E+3	2.00000000E+0	-9.80632800E+0	7.16628800E+6
135	15/03/2023	17:09:38.961	2.12456339E-1	2.49300000E+3	2.00000000E+0	-9.80632800E+0	7.16628800E+6
136	15/03/2023	17:09:40.747	2.33471876E+0	-2.51300000E+3	2.00000000E+0	-9.80632800E+0	7.16628800E+6
137	15/03/2023	17:09:42.334	1.33571377E+0	2.49600000E+3	2.00000000E+0	-9.80632800E+0	7.16628800E+6
138	15/03/2023	17:09:43.836	1.08375743E+0	-2.46500000E+3	2.00000000E+0	-9.80632800E+0	7.16628800E+6
139	15/03/2023	17:09:45.342	1.85419928E+0	2.44500000E+3	2.00000000E+0	-9.80632800E+0	7.16628800E+6
140	15/03/2023	17:09:46.814	1.69274780E+0	-2.45400000E+3	2.00000000E+0	-9.80632800E+0	7.16628800E+6
141	15/03/2023	17:09:48.357	1.65286430E+0	2.49800000E+3	2.00000000E+0	-9.80632800E+0	7.16628800E+6
142	15/03/2023	17:09:49.821	2.87583048E+0	-2.51000000E+3	2.00000000E+0	-9.80632800E+0	7.16628800E+6
143	15/03/2023	17:09:51.326	3.76247138E+0	2.51400000E+3	2.00000000E+0	-9.80632800E+0	7.16628800E+6
144	15/03/2023	17:09:52.820	5.63622891E+0	-2.51400000E+3	2.00000000E+0	-9.80632800E+0	7.16628800E+6
145	15/03/2023	17:09:54.355	1.26591765E+0	2.51200000E+3	2.00000000E+0	-9.80632800E+0	7.16628800E+6
146	15/03/2023	17:09:55.879	4.34653456E+0	-2.49800000E+3	2.00000000E+0	-9.80632800E+0	7.16628800E+6
147	15/03/2023	17:09:57.381	3.67963641E+0	2.47500000E+3	2.00000000E+0	-9.80632800E+0	7.16628800E+6
148	15/03/2023	17:09:58.863	4.91640843E+0	-2.49100000E+3	2.00000000E+0	-9.80632800E+0	7.16628800E+6
149	15/03/2023	17:10:00.382	4.04050540E+0	2.50200000E+3	2.00000000E+0	-9.80632800E+0	7.16628800E+6
150	15/03/2023	17:10:01.863	6.14359306E+0	-2.50900000E+3	2.00000000E+0	-9.80632800E+0	7.16628800E+6
151	15/03/2023	17:10:03.399	4.02478209E+0	2.51300000E+3	2.00000000E+0	-9.80632800E+0	7.16628800E+6
152	15/03/2023	17:10:04.887	1.87720899E+0	-2.51300000E+3	2.00000000E+0	-9.80632800E+0	7.16628800E+6
153	15/03/2023	17:10:06.384	2.42177217E+0	2.50700000E+3	2.00000000E+0	-9.80632800E+0	7.16628800E+6
154	15/03/2023	17:10:07.850	2.37306828E+0	-2.50300000E+3	2.00000000E+0	-9.80632800E+0	7.16628800E+6
155	15/03/2023	17:10:09.330	5.10240360E+0	2.48600000E+3	2.00000000E+0	-9.80632800E+0	7.16628800E+6
156	15/03/2023	17:10:10.829	2.14603912E+0	-2.48300000E+3	2.00000000E+0	-9.80632800E+0	7.16628800E+6
157	15/03/2023	17:10:12.328	1.09372830E+0	2.50000000E+3	2.00000000E+0	-9.80632800E+0	7.16628800E+6
158	15/03/2023	17:10:13.833	3.06604410E+0	-2.51000000E+3	2.00000000E+0	-9.80632800E+0	7.16628800E+6
159	15/03/2023	17:10:15.281	6.10562703E+0	2.51200000E+3	2.00000000E+0	-9.80632800E+0	7.16628800E+6
160	15/03/2023	17:10:16.779	6.01742314E+0	-2.51300000E+3	2.00000000E+0	-9.80632800E+0	7.16628800E+6
161	15/03/2023	17:10:18.287	9.05048665E-1	2.50600000E+3	2.00000000E+0	-9.80632800E+0	7.16628800E+6
162	15/03/2023	17:10:19.793	5.14305409E+0	-2.50200000E+3	2.00000000E+0	-9.80632800E+0	7.16628800E+6
163	15/03/2023	17:10:21.293	4.55170449E+0	2.47900000E+3	2.00000000E+0	-9.80632800E+0	7.16628800E+6
164	15/03/2023	17:10:22.783	5.31907838E-1	-2.49500000E+3	2.00000000E+0	-9.80632800E+0	7.16628800E+6
165	15/03/2023	17:10:24.262	4.27673844E+0	2.51500000E+3	2.00000000E+0	-9.80632800E+0	7.16628800E+6
166	15/03/2023	17:10:25.747	1.86762161E+0	-2.52100000E+3	2.00000000E+0	-9.80632800E+0	7.16628800E+6
167	15/03/2023	17:10:27.244	2.85435475E+0	2.50500000E+3	2.00000000E+0	-9.80632800E+0	7.16628800E+6
168	15/03/2023	17:10:28.762	4.93788416E+0	-2.49500000E+3	2.00000000E+0	-9.80632800E+0	7.16628800E+6
169	15/03/2023	17:10:30.251	5.27305896E+0	2.47100000E+3	2.00000000E+0	-9.80632800E+0	7.16628800E+6
170	15/03/2023	17:10:31.774	5.84638428E+0	-2.48600000E+3	2.00000000E+0	-9.80632800E+0	7.16628800E+6
171	15/03/2023	17:10:33.257	5.82797651E+0	2.50500000E+3	2.00000000E+0	-9.80632800E+0	7.16628800E+6
172	15/03/2023	17:10:34.696	3.59488398E+0	-2.51300000E+3	2.00000000E+0	-9.80632800E+0	7.16628800E+6
173	15/03/2023	17:10:36.194	2.63346152E+0	2.51500000E+3	2.00000000E+0	-9.80632800E+0	7.16628800E+6
174	15/03/2023	17:10:37.713	3.34829656E+0	-2.51300000E+3	2.00000000E+0	-9.80632800E+0	7.16628800E+6
175	15/03/2023	17:10:39.215	2.05246629E+0	2.50300000E+3	2.00000000E+0	-9.80632800E+0	7.16628800E+6
176	15/03/2023	17:10:40.665	2.63806346E+0	-2.49100000E+3	2.00000000E+0	-9.80632800E+0	7.16628800E+6
177	15/03/2023	17:10:42.118	5.66805901E+0	2.48300000E+3	2.00000000E+0	-9.80632800E+0	7.16628800E+6
178	15/03/2023	17:10:43.597	1.42046621E+0	-2.50400000E+3	2.00000000E+0	-9.80632800E+0	7.16628800E+6
179	15/03/2023	17:10:45.050	4.68170936E+0	2.51300000E+3	2.00000000E+0	-9.80632800E+0	7.16628800E+6
180	15/03/2023	17:10:46.564	6.12940373E+0	-2.51800000E+3	2.00000000E+0	-9.80632800E+0	7.16628800E+6
181	15/03/2023	17:10:48.060	1.26783512E+0	2.51400000E+3	2.00000000E+0	-9.80632800E+0	7.16628800E+6
182	15/03/2023	17:10:49.580	6.22412705E+0	-2.50100000E+3	2.00000000E+0	-9.80632800E+0	7.16628800E+6
183	15/03/2023	17:10:51.034	2.07202455E+0	2.48300000E+3	2.00000000E+0	-9.80632800E+0	7.16628800E+6
184	15/03/2023	17:10:52.537	1.55814099E+0	-2.48300000E+3	2.00000000E+0	-9.80632800E+0	7.16628800E+6
185	15/03/2023	17:10:54.068	1.67165556E+0	2.50100000E+3	2.00000000E+0	-9.80632800E+0	7.16628800E+6
186	15/03/2023	17:10:55.549	4.25564620E+0	-2.51100000E+3	2.00000000E+0	-9.80632800E+0	7.16628800E+6
187	15/03/2023	17:10:57.041	4.23647144E+0	2.51400000E+3	2.00000000E+0	-9.80632800E+0	7.16628800E+6
188	15/03/2023	17:10:58.568	5.75664640E+0	-2.51000000E+3	2.00000000E+0	-9.80632800E+0	7.16628800E+6
189	15/03/2023	17:11:00.233	4.37606369E+0	2.49600000E+3	2.00000000E+0	-9.80632800E+0	7.16628800E+6
190	15/03/2023	17:11:01.961	2.23616049E+0	-2.48500000E+3	2.00000000E+0	-9.80632800E+0	7.16628800E+6
191	15/03/2023	17:11:03.411	4.88841328E+0	2.50400000E+3	2.00000000E+0	-9.80632800E+0	7.16628800E+6
192	15/03/2023	17:11:04.894	5.03720941E+0	-2.51600000E+3	2.00000000E+0	-9.80632800E+0	7.16628800E+6
193	15/03/2023	17:11:06.413	1.53973322E+0	2.51700000E+3	2.00000000E+0	-9.80632800E+0	7.16628800E+6
194	15/03/2023	17:11:07.896	3.80503934E+0	-2.50000000E+3	2.00000000E+0	-9.80632800E+0	7.16628800E+6
195	15/03/2023	17:11:09.377	4.08805880E-1	2.49500000E+3	2.00000000E+0	-9.80632800E+0	7.16628800E+6
196	15/03/2023	17:11:10.892	3.26968005E+0	-2.48300000E+3	2.00000000E+0	-9.80632800E+0	7.16628800E+6
197	15/03/2023	17:11:12.371	4.60002489E+0	2.48000000E+3	2.00000000E+0	-9.80632800E+0	7.16628800E+6
198	15/03/2023	17:11:13.867	3.72182089E+0	-2.50800000E+3	2.00000000E+0	-9.80632800E+0	7.16628800E+6
199	15/03/2023	17:11:15.367	1.07723801E+0	2.51100000E+3	2.00000000E+0	-9.80632800E+0	7.16628800E+6
200	15/03/2023	17:11:16.900	2.90535961E+0	-2.51700000E+3	2.00000000E+0	-9.80632800E+0	7.16628800E+6
201	15/03/2023	17:11:18.439	3.97991315E+0	2.51000000E+3	2.00000000E+0	-9.80632800E+0	7.16628800E+6
202	15/03/2023	17:11:19.927	1.78862160E+0	-2.50100000E+3	2.00000000E+0	-9.80632800E+0	7.16628800E+6
203	15/03/2023	17:11:21.417	1.15547103E+0	2.48000000E+3	2.00000000E+0	-9.80632800E+0	7.16628800E+6
204	15/03/2023	17:11:22.915	3.40697133E+0	-2.49100000E+3	2.00000000E+0	-9.80632800E+0	7.16628800E+6
205	15/03/2023	17:11:24.398	3.80273837E+0	2.50000000E+3	2.00000000E+0	-9.80632800E+0	7.16628800E+6
206	15/03/2023	17:11:25.855	3.70609758E+0	-2.51100000E+3	2.00000000E+0	-9.80632800E+0	7.16628800E+6
207	15/03/2023	17:11:27.313	2.67449550E+0	2.51400000E+3	2.00000000E+0	-9.80632800E+0	7.16628800E+6
208	15/03/2023	17:11:28.815	3.12165090E+0	-2.51100000E+3	2.00000000E+0	-9.80632800E+0	7.16628800E+6
209	15/03/2023	17:11:30.334	4.05085977E+0	2.49100000E+3	2.00000000E+0	-9.80632800E+0	7.16628800E+6
210	15/03/2023	17:11:31.822	1.72112644E+0	-2.47600000E+3	2.00000000E+0	-9.80632800E+0	7.16628800E+6
211	15/03/2023	17:11:33.299	1.20647589E+0	2.48600000E+3	2.00000000E+0	-9.80632800E+0	7.16628800E+6
212	15/03/2023	17:11:34.798	1.58000021E+0	-2.50100000E+3	2.00000000E+0	-9.80632800E+0	7.16628800E+6
213	15/03/2023	17:11:36.304	5.34745703E+0	2.50800000E+3	2.00000000E+0	-9.80632800E+0	7.16628800E+6
214	15/03/2023	17:11:37.791	5.35014149E+0	-2.51600000E+3	2.00000000E+0	-9.80632800E+0	7.16628800E+6
215	15/03/2023	17:11:39.251	1.06650014E+0	2.51300000E+3	2.00000000E+0	-9.80632800E+0	7.16628800E+6
216	15/03/2023	17:11:40.791	2.91072855E-1	-2.50500000E+3	2.00000000E+0	-9.80632800E+0	7.16628800E+6
217	15/03/2023	17:11:42.281	1.30925260E+0	2.49900000E+3	2.00000000E+0	-9.80632800E+0	7.16628800E+6
218	15/03/2023	17:11:43.759	1.27090308E+0	-2.47600000E+3	2.00000000E+0	-9.80632800E+0	7.16628800E+6
219	15/03/2023	17:11:45.276	3.04380138E+0	2.49300000E+3	2.00000000E+0	-9.80632800E+0	7.16628800E+6
220	15/03/2023	17:11:46.781	3.35865094E+0	-2.51500000E+3	2.00000000E+0	-9.80632800E+0	7.16628800E+6
221	15/03/2023	17:11:48.251	5.23240847E+0	2.51500000E+3	2.00000000E+0	-9.80632800E+0	7.16628800E+6
222	15/03/2023	17:11:49.797	2.07624300E+0	-2.50500000E+3	2.00000000E+0	-9.80632800E+0	7.16628800E+6
223	15/03/2023	17:11:51.279	2.49041781E+0	2.49300000E+3	2.00000000E+0	-9.80632800E+0	7.16628800E+6
224	15/03/2023	17:11:52.793	2.56328190E+0	-2.48400000E+3	2.00000000E+0	-9.80632800E+0	7.16628800E+6
225	15/03/2023	17:11:54.338	1.34338367E+0	2.48200000E+3	2.00000000E+0	-9.80632800E+0	7.16628800E+6
226	15/03/2023	17:11:55.819	4.27060251E+0	-2.50200000E+3	2.00000000E+0	-9.80632800E+0	7.16628800E+6
227	15/03/2023	17:11:57.309	6.01473867E+0	2.51200000E+3	2.00000000E+0	-9.80632800E+0	7.16628800E+6
228	15/03/2023	17:11:58.791	6.24905423E+0	-2.51700000E+3	2.00000000E+0	-9.80632800E+0	7.16628800E+6
229	15/03/2023	17:12:00.306	5.87092797E+0	2.50700000E+3	2.00000000E+0	-9.80632800E+0	7.16628800E+6
230	15/03/2023	17:12:01.805	5.67304445E+0	-2.49300000E+3	2.00000000E+0	-9.80632800E+0	7.16628800E+6
231	15/03/2023	17:12:03.284	5.36893276E-1	2.45900000E+3	2.00000000E+0	-9.80632800E+0	7.16628800E+6
232	15/03/2023	17:12:04.763	4.37491321E+0	-2.47000000E+3	2.00000000E+0	-9.80632800E+0	7.16628800E+6
233	15/03/2023	17:12:06.286	3.30649559E+0	2.50000000E+3	2.00000000E+0	-9.80632800E+0	7.16628800E+6
234	15/03/2023	17:12:07.761	1.18883511E-1	-2.51600000E+3	2.00000000E+0	-9.80632800E+0	7.16628800E+6
235	15/03/2023	17:12:09.283	2.44938382E+0	2.51200000E+3	2.00000000E+0	-9.80632800E+0	7.16628800E+6
236	15/03/2023	17:12:10.716	5.64351532E+0	-2.49900000E+3	2.00000000E+0	-9.80632800E+0	7.16628800E+6
237	15/03/2023	17:12:12.208	4.21116076E+0	2.48900000E+3	2.00000000E+0	-9.80632800E+0	7.16628800E+6
238	15/03/2023	17:12:13.687	2.91533049E+0	-2.45200000E+3	2.00000000E+0	-9.80632800E+0	7.16628800E+6
239	15/03/2023	17:12:15.162	2.14718961E+0	2.47700000E+3	2.00000000E+0	-9.80632800E+0	7.16628800E+6
240	15/03/2023	17:12:16.597	4.75265598E+0	-2.50400000E+3	2.00000000E+0	-9.80632800E+0	7.16628800E+6
241	15/03/2023	17:12:18.077	1.52400991E+0	2.51500000E+3	2.00000000E+0	-9.80632800E+0	7.16628800E+6
242	15/03/2023	17:12:19.579	3.60792281E+0	-2.51100000E+3	2.00000000E+0	-9.80632800E+0	7.16628800E+6
