#Iteration	Date	Time	STSX	STSY	RotationRateX	RotationRateY	FrCntX	FrCntY	TiptiltCmd1	TiptiltCmd2	TiptiltMonitor1	TiptiltMonitor2
1	17/03/2023	15:38:22.418	0.00000E+0	0.00000E+0	1.32271E+2	1.30362E+0	0.00000E+0	0.00000E+0	2.31331E+1	1.17984E+1	2.31325E+1	1.17982E+1
2	17/03/2023	15:38:23.878	0.00000E+0	0.00000E+0	-1.21151E+2	-2.15190E+0	0.00000E+0	0.00000E+0	1.96406E+1	1.53137E+1	1.96415E+1	1.53145E+1
3	17/03/2023	15:38:25.421	0.00000E+0	0.00000E+0	-5.94169E+1	1.68639E+0	0.00000E+0	0.00000E+0	2.01928E+1	1.47492E+1	2.01930E+1	1.47497E+1
4	17/03/2023	15:38:26.893	0.00000E+0	0.00000E+0	2.44741E+2	1.76841E+0	0.00000E+0	0.00000E+0	2.46323E+1	1.03077E+1	2.46325E+1	1.03063E+1
5	17/03/2023	15:38:28.343	0.00000E+0	0.00000E+0	-2.68011E+2	-2.80887E+0	0.00000E+0	0.00000E+0	1.73981E+1	1.75401E+1	1.73952E+1	1.75413E+1
6	17/03/2023	15:38:29.829	0.00000E+0	0.00000E+0	1.72764E+2	8.08550E-1	0.00000E+0	0.00000E+0	2.37203E+1	1.12822E+1	2.37181E+1	1.12809E+1
7	17/03/2023	15:38:31.313	0.00000E+0	0.00000E+0	5.95919E+1	1.50453E-1	0.00000E+0	0.00000E+0	2.24918E+1	1.24738E+1	2.24924E+1	1.24739E+1
8	17/03/2023	15:38:32.825	0.00000E+0	0.00000E+0	-2.53538E+2	-2.43146E+0	0.00000E+0	0.00000E+0	1.77250E+1	1.72214E+1	1.77260E+1	1.72179E+1
9	17/03/2023	15:38:34.352	0.00000E+0	0.00000E+0	2.05225E+2	7.82338E-1	0.00000E+0	0.00000E+0	2.42267E+1	1.08227E+1	2.42274E+1	1.08221E+1
10	17/03/2023	15:38:35.829	0.00000E+0	0.00000E+0	-1.62855E+2	5.08000E-1	0.00000E+0	0.00000E+0	1.89759E+1	1.58932E+1	1.89746E+1	1.58936E+1
11	17/03/2023	15:38:37.354	0.00000E+0	0.00000E+0	-1.32888E+2	6.14265E-1	0.00000E+0	0.00000E+0	1.92353E+1	1.56476E+1	1.92362E+1	1.56467E+1
12	17/03/2023	15:38:38.850	0.00000E+0	0.00000E+0	2.12416E+2	1.82855E+0	0.00000E+0	0.00000E+0	2.42867E+1	1.07242E+1	2.42852E+1	1.07235E+1
13	17/03/2023	15:38:40.363	0.00000E+0	0.00000E+0	-1.42058E+2	-9.43004E-1	0.00000E+0	0.00000E+0	1.92753E+1	1.56226E+1	1.92735E+1	1.56226E+1
14	17/03/2023	15:38:41.853	0.00000E+0	0.00000E+0	-1.39262E+2	-1.98984E+0	0.00000E+0	0.00000E+0	1.91362E+1	1.58050E+1	1.91360E+1	1.58060E+1
15	17/03/2023	15:38:43.374	0.00000E+0	0.00000E+0	2.09263E+2	2.28441E+0	0.00000E+0	0.00000E+0	2.42130E+1	1.07411E+1	2.42118E+1	1.07417E+1
16	17/03/2023	15:38:44.870	0.00000E+0	0.00000E+0	-1.76306E+2	1.50886E-1	0.00000E+0	0.00000E+0	1.87953E+1	1.61769E+1	1.87946E+1	1.61779E+1
17	17/03/2023	15:38:46.413	0.00000E+0	0.00000E+0	-4.97067E+1	-1.88543E+0	0.00000E+0	0.00000E+0	2.01909E+1	1.47525E+1	2.01889E+1	1.47515E+1
18	17/03/2023	15:38:48.048	0.00000E+0	0.00000E+0	1.88817E+2	1.29450E+0	0.00000E+0	0.00000E+0	2.40438E+1	1.09667E+1	2.40416E+1	1.09650E+1
19	17/03/2023	15:38:49.559	0.00000E+0	0.00000E+0	-2.14104E+2	-1.40033E+0	0.00000E+0	0.00000E+0	1.82178E+1	1.66865E+1	1.82166E+1	1.66856E+1
20	17/03/2023	15:38:51.058	0.00000E+0	0.00000E+0	9.41403E+1	-1.26097E+0	0.00000E+0	0.00000E+0	2.23664E+1	1.25849E+1	2.23665E+1	1.25870E+1
21	17/03/2023	15:38:52.562	0.00000E+0	0.00000E+0	2.39377E+2	1.14921E+0	0.00000E+0	0.00000E+0	2.46538E+1	1.03198E+1	2.46566E+1	1.03199E+1
22	17/03/2023	15:38:54.066	0.00000E+0	0.00000E+0	-2.02761E+2	-1.84130E+0	0.00000E+0	0.00000E+0	1.83165E+1	1.65286E+1	1.83156E+1	1.65291E+1
23	17/03/2023	15:38:55.650	0.00000E+0	0.00000E+0	1.88440E+2	1.47753E+0	0.00000E+0	0.00000E+0	2.38493E+1	1.11566E+1	2.38478E+1	1.11568E+1
24	17/03/2023	15:38:57.160	0.00000E+0	0.00000E+0	-1.40204E+2	1.98507E+0	0.00000E+0	0.00000E+0	1.95354E+1	1.54262E+1	1.95345E+1	1.54273E+1
25	17/03/2023	15:38:58.662	0.00000E+0	0.00000E+0	-1.70721E+2	5.34253E-2	0.00000E+0	0.00000E+0	1.86255E+1	1.62272E+1	1.86269E+1	1.62273E+1
26	17/03/2023	15:39:00.153	0.00000E+0	0.00000E+0	2.47701E+2	2.23112E+0	0.00000E+0	0.00000E+0	2.48408E+1	1.01523E+1	2.48438E+1	1.01540E+1
27	17/03/2023	15:39:01.670	0.00000E+0	0.00000E+0	-2.33229E+2	-1.45296E+0	0.00000E+0	0.00000E+0	1.79576E+1	1.69248E+1	1.79567E+1	1.69255E+1
28	17/03/2023	15:39:03.197	0.00000E+0	0.00000E+0	1.86247E+2	2.49774E+0	0.00000E+0	0.00000E+0	2.37822E+1	1.12251E+1	2.37842E+1	1.12244E+1
29	17/03/2023	15:39:04.677	0.00000E+0	0.00000E+0	4.95686E+1	-5.06829E-1	0.00000E+0	0.00000E+0	2.22533E+1	1.26531E+1	2.22562E+1	1.26540E+1
30	17/03/2023	15:39:06.179	0.00000E+0	0.00000E+0	-1.94341E+2	9.82025E-1	0.00000E+0	0.00000E+0	1.85005E+1	1.65034E+1	1.84996E+1	1.65029E+1
31	17/03/2023	15:39:07.764	0.00000E+0	0.00000E+0	2.53350E+2	1.44679E+0	0.00000E+0	0.00000E+0	2.48624E+1	1.01483E+1	2.48648E+1	1.01478E+1
32	17/03/2023	15:39:09.259	0.00000E+0	0.00000E+0	-1.96683E+2	-2.71258E+0	0.00000E+0	0.00000E+0	1.85817E+1	1.63776E+1	1.85822E+1	1.63785E+1
33	17/03/2023	15:39:10.774	0.00000E+0	0.00000E+0	4.96200E+1	-5.90888E-1	0.00000E+0	0.00000E+0	2.15942E+1	1.33327E+1	2.15962E+1	1.33324E+1
34	17/03/2023	15:39:12.295	0.00000E+0	0.00000E+0	1.46263E+2	2.28334E+0	0.00000E+0	0.00000E+0	2.36130E+1	1.14247E+1	2.36100E+1	1.14252E+1
35	17/03/2023	15:39:13.835	0.00000E+0	0.00000E+0	-2.20162E+2	-2.56997E+0	0.00000E+0	0.00000E+0	1.80804E+1	1.68234E+1	1.80782E+1	1.68219E+1
36	17/03/2023	15:39:15.345	0.00000E+0	0.00000E+0	2.15498E+2	4.42747E+0	0.00000E+0	0.00000E+0	2.42436E+1	1.06940E+1	2.42437E+1	1.06955E+1
37	17/03/2023	15:39:16.864	0.00000E+0	0.00000E+0	-1.98480E+2	-1.42669E+0	0.00000E+0	0.00000E+0	1.84794E+1	1.64399E+1	1.84777E+1	1.64405E+1
38	17/03/2023	15:39:18.438	0.00000E+0	0.00000E+0	8.87333E+1	1.18981E+0	0.00000E+0	0.00000E+0	2.21077E+1	1.28620E+1	2.21082E+1	1.28616E+1
39	17/03/2023	15:39:19.943	0.00000E+0	0.00000E+0	9.75680E+1	2.06434E+0	0.00000E+0	0.00000E+0	2.30028E+1	1.20288E+1	2.30028E+1	1.20279E+1
40	17/03/2023	15:39:21.438	0.00000E+0	0.00000E+0	-2.15747E+2	-9.95104E-1	0.00000E+0	0.00000E+0	1.81567E+1	1.67193E+1	1.81531E+1	1.67204E+1
41	17/03/2023	15:39:22.947	0.00000E+0	0.00000E+0	2.21569E+2	3.37445E+0	0.00000E+0	0.00000E+0	2.44197E+1	1.05994E+1	2.44225E+1	1.05984E+1
42	17/03/2023	15:39:24.457	0.00000E+0	0.00000E+0	-1.57267E+2	-7.11418E-2	0.00000E+0	0.00000E+0	1.92251E+1	1.57296E+1	1.92275E+1	1.57287E+1
43	17/03/2023	15:39:25.967	0.00000E+0	0.00000E+0	-1.19074E+2	-3.32709E-1	0.00000E+0	0.00000E+0	1.94387E+1	1.55143E+1	1.94404E+1	1.55157E+1
44	17/03/2023	15:39:27.453	0.00000E+0	0.00000E+0	2.25911E+2	8.28074E-1	0.00000E+0	0.00000E+0	2.44573E+1	1.05255E+1	2.44586E+1	1.05248E+1
45	17/03/2023	15:39:28.961	0.00000E+0	0.00000E+0	-1.95953E+2	2.42976E+0	0.00000E+0	0.00000E+0	1.85074E+1	1.63916E+1	1.85092E+1	1.63920E+1
46	17/03/2023	15:39:30.461	0.00000E+0	0.00000E+0	-1.55591E+1	1.05370E-1	0.00000E+0	0.00000E+0	2.06887E+1	1.42719E+1	2.06876E+1	1.42732E+1
47	17/03/2023	15:39:31.978	0.00000E+0	0.00000E+0	2.30572E+2	1.45557E+0	0.00000E+0	0.00000E+0	2.46310E+1	1.04013E+1	2.46314E+1	1.04022E+1
48	17/03/2023	15:39:33.478	0.00000E+0	0.00000E+0	-2.09586E+2	-3.22989E-1	0.00000E+0	0.00000E+0	1.82243E+1	1.66707E+1	1.82242E+1	1.66706E+1
49	17/03/2023	15:39:35.000	0.00000E+0	0.00000E+0	1.95256E+2	1.45891E+0	0.00000E+0	0.00000E+0	2.38141E+1	1.12128E+1	2.38104E+1	1.12127E+1
50	17/03/2023	15:39:36.583	0.00000E+0	0.00000E+0	-1.47780E+2	-5.18919E-2	0.00000E+0	0.00000E+0	1.94289E+1	1.54597E+1	1.94283E+1	1.54567E+1
51	17/03/2023	15:39:38.089	0.00000E+0	0.00000E+0	-9.87537E+1	1.73648E+0	0.00000E+0	0.00000E+0	1.95728E+1	1.54161E+1	1.95719E+1	1.54190E+1
52	17/03/2023	15:39:39.595	0.00000E+0	0.00000E+0	1.85793E+2	-4.34452E-1	0.00000E+0	0.00000E+0	2.40108E+1	1.09832E+1	2.40110E+1	1.09829E+1
53	17/03/2023	15:39:41.167	0.00000E+0	0.00000E+0	-2.24911E+2	-3.86099E+0	0.00000E+0	0.00000E+0	1.80490E+1	1.68226E+1	1.80475E+1	1.68231E+1
54	17/03/2023	15:39:42.688	0.00000E+0	0.00000E+0	2.02705E+2	-3.98204E-1	0.00000E+0	0.00000E+0	2.40175E+1	1.09435E+1	2.40173E+1	1.09443E+1
55	17/03/2023	15:39:44.187	0.00000E+0	0.00000E+0	-5.84069E+1	-2.81686E-1	0.00000E+0	0.00000E+0	2.07316E+1	1.41502E+1	2.07290E+1	1.41517E+1
56	17/03/2023	15:39:45.683	0.00000E+0	0.00000E+0	-1.78229E+2	6.61900E-1	0.00000E+0	0.00000E+0	1.86456E+1	1.62724E+1	1.86439E+1	1.62707E+1
57	17/03/2023	15:39:47.194	0.00000E+0	0.00000E+0	2.12058E+2	8.90366E-1	0.00000E+0	0.00000E+0	2.42893E+1	1.07164E+1	2.42914E+1	1.07139E+1
58	17/03/2023	15:39:48.703	0.00000E+0	0.00000E+0	-1.44880E+2	5.08575E-1	0.00000E+0	0.00000E+0	1.94087E+1	1.55550E+1	1.94091E+1	1.55570E+1
59	17/03/2023	15:39:50.205	0.00000E+0	0.00000E+0	-1.11223E+2	-3.64886E-1	0.00000E+0	0.00000E+0	1.95059E+1	1.53919E+1	1.95066E+1	1.53920E+1
60	17/03/2023	15:39:51.788	0.00000E+0	0.00000E+0	2.08179E+2	-2.37807E+0	0.00000E+0	0.00000E+0	2.42881E+1	1.06870E+1	2.42884E+1	1.06874E+1
61	17/03/2023	15:39:53.288	0.00000E+0	0.00000E+0	-1.98473E+2	-2.09015E+0	0.00000E+0	0.00000E+0	1.84107E+1	1.65215E+1	1.84115E+1	1.65229E+1
62	17/03/2023	15:39:54.792	0.00000E+0	0.00000E+0	1.77504E+2	9.21740E-1	0.00000E+0	0.00000E+0	2.37276E+1	1.12908E+1	2.37266E+1	1.12919E+1
63	17/03/2023	15:39:56.282	0.00000E+0	0.00000E+0	-1.61711E+2	-3.00485E+0	0.00000E+0	0.00000E+0	1.89618E+1	1.59470E+1	1.89608E+1	1.59496E+1
64	17/03/2023	15:39:57.781	0.00000E+0	0.00000E+0	1.05071E+2	1.55622E+0	0.00000E+0	0.00000E+0	2.20525E+1	1.28074E+1	2.20534E+1	1.28057E+1
65	17/03/2023	15:39:59.283	0.00000E+0	0.00000E+0	1.62380E+2	2.37992E+0	0.00000E+0	0.00000E+0	2.36757E+1	1.12819E+1	2.36750E+1	1.12815E+1
66	17/03/2023	15:40:00.788	0.00000E+0	0.00000E+0	-2.04543E+2	-3.07975E+0	0.00000E+0	0.00000E+0	1.82874E+1	1.65419E+1	1.82873E+1	1.65417E+1
67	17/03/2023	15:40:02.309	0.00000E+0	0.00000E+0	1.84044E+2	1.87632E+0	0.00000E+0	0.00000E+0	2.37820E+1	1.12422E+1	2.37831E+1	1.12413E+1
68	17/03/2023	15:40:03.796	0.00000E+0	0.00000E+0	9.21407E+1	1.21825E+0	0.00000E+0	0.00000E+0	2.29304E+1	1.20548E+1	2.29305E+1	1.20528E+1
69	17/03/2023	15:40:05.319	0.00000E+0	0.00000E+0	-1.94417E+2	-8.37367E-1	0.00000E+0	0.00000E+0	1.84613E+1	1.64494E+1	1.84613E+1	1.64514E+1
70	17/03/2023	15:40:06.804	0.00000E+0	0.00000E+0	1.88391E+2	2.96239E-1	0.00000E+0	0.00000E+0	2.38169E+1	1.11396E+1	2.38173E+1	1.11417E+1
71	17/03/2023	15:40:08.328	0.00000E+0	0.00000E+0	5.55482E+1	1.50031E+0	0.00000E+0	0.00000E+0	2.25356E+1	1.24755E+1	2.25365E+1	1.24775E+1
72	17/03/2023	15:40:09.829	0.00000E+0	0.00000E+0	-2.02477E+2	-3.52164E+0	0.00000E+0	0.00000E+0	1.83622E+1	1.65568E+1	1.83605E+1	1.65566E+1
73	17/03/2023	15:40:11.331	0.00000E+0	0.00000E+0	2.14633E+2	2.84967E+0	0.00000E+0	0.00000E+0	2.43133E+1	1.07120E+1	2.43119E+1	1.07133E+1
74	17/03/2023	15:40:12.824	0.00000E+0	0.00000E+0	-3.51323E+1	-3.14612E-1	0.00000E+0	0.00000E+0	2.11065E+1	1.38432E+1	2.11077E+1	1.38436E+1
75	17/03/2023	15:40:14.354	0.00000E+0	0.00000E+0	-1.96633E+2	2.78343E-1	0.00000E+0	0.00000E+0	1.84613E+1	1.64754E+1	1.84596E+1	1.64744E+1
76	17/03/2023	15:40:15.852	0.00000E+0	0.00000E+0	1.99411E+2	1.27252E-1	0.00000E+0	0.00000E+0	2.40998E+1	1.08754E+1	2.40995E+1	1.08757E+1
77	17/03/2023	15:40:17.434	0.00000E+0	0.00000E+0	-1.32647E+2	-1.78690E+0	0.00000E+0	0.00000E+0	1.95251E+1	1.54147E+1	1.95224E+1	1.54170E+1
78	17/03/2023	15:40:18.925	0.00000E+0	0.00000E+0	-1.62885E+2	-5.18362E-1	0.00000E+0	0.00000E+0	1.87650E+1	1.61160E+1	1.87618E+1	1.61194E+1
79	17/03/2023	15:40:20.442	0.00000E+0	0.00000E+0	2.12821E+2	-1.45120E-1	0.00000E+0	0.00000E+0	2.42241E+1	1.06911E+1	2.42250E+1	1.06897E+1
80	17/03/2023	15:40:21.930	0.00000E+0	0.00000E+0	-1.60559E+2	-2.32007E+0	0.00000E+0	0.00000E+0	1.91554E+1	1.57839E+1	1.91564E+1	1.57830E+1
81	17/03/2023	15:40:23.442	0.00000E+0	0.00000E+0	-1.33146E+2	-3.05898E+0	0.00000E+0	0.00000E+0	1.92748E+1	1.56257E+1	1.92753E+1	1.56281E+1
82	17/03/2023	15:40:24.955	0.00000E+0	0.00000E+0	1.95719E+2	3.62771E+0	0.00000E+0	0.00000E+0	2.40144E+1	1.09848E+1	2.40135E+1	1.09839E+1
83	17/03/2023	15:40:26.460	0.00000E+0	0.00000E+0	-1.49396E+2	-9.32590E-1	0.00000E+0	0.00000E+0	1.92558E+1	1.57086E+1	1.92543E+1	1.57055E+1
84	17/03/2023	15:40:27.962	0.00000E+0	0.00000E+0	-1.59839E+2	4.75877E-1	0.00000E+0	0.00000E+0	1.87893E+1	1.61565E+1	1.87899E+1	1.61573E+1
85	17/03/2023	15:40:29.472	0.00000E+0	0.00000E+0	2.49700E+2	1.21905E+0	0.00000E+0	0.00000E+0	2.48002E+1	1.01863E+1	2.48017E+1	1.01874E+1
86	17/03/2023	15:40:30.970	0.00000E+0	0.00000E+0	-1.99903E+2	1.98374E-1	0.00000E+0	0.00000E+0	1.85089E+1	1.64540E+1	1.85078E+1	1.64534E+1
87	17/03/2023	15:40:32.472	0.00000E+0	0.00000E+0	7.23584E+1	2.11486E+0	0.00000E+0	0.00000E+0	2.19412E+1	1.29432E+1	2.19428E+1	1.29435E+1
88	17/03/2023	15:40:33.979	0.00000E+0	0.00000E+0	2.35657E+2	3.76963E+0	0.00000E+0	0.00000E+0	2.46424E+1	1.03270E+1	2.46420E+1	1.03243E+1
89	17/03/2023	15:40:35.478	0.00000E+0	0.00000E+0	-2.05154E+2	-6.27076E-1	0.00000E+0	0.00000E+0	1.82568E+1	1.65845E+1	1.82562E+1	1.65867E+1
90	17/03/2023	15:40:36.972	0.00000E+0	0.00000E+0	1.08704E+2	2.93470E+0	0.00000E+0	0.00000E+0	2.26480E+1	1.23252E+1	2.26457E+1	1.23228E+1
91	17/03/2023	15:40:38.555	0.00000E+0	0.00000E+0	1.37299E+2	2.32692E+0	0.00000E+0	0.00000E+0	2.34062E+1	1.16056E+1	2.34055E+1	1.16064E+1
92	17/03/2023	15:40:40.047	0.00000E+0	0.00000E+0	-2.17890E+2	-2.59182E+0	0.00000E+0	0.00000E+0	1.80733E+1	1.67619E+1	1.80731E+1	1.67646E+1
93	17/03/2023	15:40:41.575	0.00000E+0	0.00000E+0	2.08624E+2	-1.09143E+0	0.00000E+0	0.00000E+0	2.41295E+1	1.08727E+1	2.41276E+1	1.08733E+1
94	17/03/2023	15:40:43.069	0.00000E+0	0.00000E+0	-1.31206E+2	-1.40603E+0	0.00000E+0	0.00000E+0	1.95601E+1	1.53684E+1	1.95620E+1	1.53699E+1
95	17/03/2023	15:40:44.575	0.00000E+0	0.00000E+0	-1.73049E+2	-3.92280E-1	0.00000E+0	0.00000E+0	1.86838E+1	1.61908E+1	1.86844E+1	1.61916E+1
96	17/03/2023	15:40:46.064	0.00000E+0	0.00000E+0	2.47969E+2	4.70804E-1	0.00000E+0	0.00000E+0	2.47542E+1	1.02109E+1	2.47559E+1	1.02106E+1
97	17/03/2023	15:40:47.568	0.00000E+0	0.00000E+0	-2.02391E+2	-4.67902E-1	0.00000E+0	0.00000E+0	1.84423E+1	1.64689E+1	1.84423E+1	1.64674E+1
98	17/03/2023	15:40:49.071	0.00000E+0	0.00000E+0	-7.44004E+1	-1.15235E+0	0.00000E+0	0.00000E+0	1.96582E+1	1.52406E+1	1.96561E+1	1.52408E+1
99	17/03/2023	15:40:50.571	0.00000E+0	0.00000E+0	2.26664E+2	6.61205E-1	0.00000E+0	0.00000E+0	2.45049E+1	1.04914E+1	2.45044E+1	1.04915E+1
100	17/03/2023	15:40:52.075	0.00000E+0	0.00000E+0	-2.09955E+2	5.02544E-1	0.00000E+0	0.00000E+0	1.82324E+1	1.66362E+1	1.82314E+1	1.66366E+1
101	17/03/2023	15:40:53.607	0.00000E+0	0.00000E+0	1.05508E+2	-4.77494E-1	0.00000E+0	0.00000E+0	2.24883E+1	1.24738E+1	2.24922E+1	1.24755E+1
102	17/03/2023	15:40:55.180	0.00000E+0	0.00000E+0	7.78903E+1	2.34796E-1	0.00000E+0	0.00000E+0	2.27441E+1	1.22302E+1	2.27439E+1	1.22307E+1
103	17/03/2023	15:40:56.698	0.00000E+0	0.00000E+0	-1.88982E+2	1.52311E+0	0.00000E+0	0.00000E+0	1.85461E+1	1.63831E+1	1.85445E+1	1.63823E+1
104	17/03/2023	15:40:58.207	0.00000E+0	0.00000E+0	2.19821E+2	2.77940E+0	0.00000E+0	0.00000E+0	2.43247E+1	1.06826E+1	2.43254E+1	1.06827E+1
105	17/03/2023	15:40:59.705	0.00000E+0	0.00000E+0	-1.75267E+2	-1.22429E+0	0.00000E+0	0.00000E+0	1.89670E+1	1.60212E+1	1.89654E+1	1.60219E+1
106	17/03/2023	15:41:01.210	0.00000E+0	0.00000E+0	-9.07749E+1	-3.54484E+0	0.00000E+0	0.00000E+0	1.95870E+1	1.54039E+1	1.95858E+1	1.54046E+1
107	17/03/2023	15:41:02.767	0.00000E+0	0.00000E+0	2.18012E+2	2.92354E+0	0.00000E+0	0.00000E+0	2.44099E+1	1.05892E+1	2.44086E+1	1.05866E+1
108	17/03/2023	15:41:04.306	0.00000E+0	0.00000E+0	-2.07815E+2	9.62936E-1	0.00000E+0	0.00000E+0	1.83388E+1	1.66605E+1	1.83379E+1	1.66594E+1
109	17/03/2023	15:41:05.806	0.00000E+0	0.00000E+0	1.97163E+2	-5.56362E-1	0.00000E+0	0.00000E+0	2.38612E+1	1.11001E+1	2.38638E+1	1.11009E+1
110	17/03/2023	15:41:07.309	0.00000E+0	0.00000E+0	-7.49838E+1	1.73429E-1	0.00000E+0	0.00000E+0	2.05783E+1	1.44386E+1	2.05775E+1	1.44383E+1
111	17/03/2023	15:41:08.893	0.00000E+0	0.00000E+0	-1.34482E+2	1.38204E+0	0.00000E+0	0.00000E+0	1.91500E+1	1.57513E+1	1.91525E+1	1.57502E+1
112	17/03/2023	15:41:10.403	0.00000E+0	0.00000E+0	2.68700E+2	1.74954E+0	0.00000E+0	0.00000E+0	2.50563E+1	9.95329E+0	2.50574E+1	9.95332E+0
113	17/03/2023	15:41:11.905	0.00000E+0	0.00000E+0	-2.00165E+2	-1.27926E+0	0.00000E+0	0.00000E+0	1.85519E+1	1.63998E+1	1.85482E+1	1.64009E+1
114	17/03/2023	15:41:13.382	0.00000E+0	0.00000E+0	-4.36909E+1	5.96667E-1	0.00000E+0	0.00000E+0	2.03055E+1	1.46654E+1	2.03079E+1	1.46682E+1
115	17/03/2023	15:41:14.907	0.00000E+0	0.00000E+0	2.31916E+2	1.39046E+0	0.00000E+0	0.00000E+0	2.45470E+1	1.04551E+1	2.45459E+1	1.04578E+1
116	17/03/2023	15:41:16.406	0.00000E+0	0.00000E+0	-2.46319E+2	-9.20752E-1	0.00000E+0	0.00000E+0	1.78107E+1	1.70395E+1	1.78123E+1	1.70394E+1
117	17/03/2023	15:41:17.889	0.00000E+0	0.00000E+0	2.18413E+2	2.11066E+0	0.00000E+0	0.00000E+0	2.43144E+1	1.07004E+1	2.43145E+1	1.07027E+1
118	17/03/2023	15:41:19.407	0.00000E+0	0.00000E+0	-1.90781E+2	-1.95104E+0	0.00000E+0	0.00000E+0	1.85161E+1	1.63585E+1	1.85144E+1	1.63553E+1
119	17/03/2023	15:41:20.917	0.00000E+0	0.00000E+0	5.77273E+1	9.40817E-1	0.00000E+0	0.00000E+0	2.18200E+1	1.30909E+1	2.18223E+1	1.30929E+1
120	17/03/2023	15:41:22.401	0.00000E+0	0.00000E+0	1.76193E+2	1.29491E+0	0.00000E+0	0.00000E+0	2.40518E+1	1.10019E+1	2.40541E+1	1.10013E+1
121	17/03/2023	15:41:23.923	0.00000E+0	0.00000E+0	-1.96172E+2	-3.38580E+0	0.00000E+0	0.00000E+0	1.84544E+1	1.65151E+1	1.84561E+1	1.65130E+1
122	17/03/2023	15:41:25.414	0.00000E+0	0.00000E+0	2.75370E+2	1.75340E+0	0.00000E+0	0.00000E+0	2.50984E+1	9.90879E+0	2.50984E+1	9.90897E+0
123	17/03/2023	15:41:26.936	0.00000E+0	0.00000E+0	-1.61284E+2	-1.54153E+0	0.00000E+0	0.00000E+0	1.91140E+1	1.58083E+1	1.91154E+1	1.58086E+1
124	17/03/2023	15:41:28.417	0.00000E+0	0.00000E+0	-1.44161E+2	-5.21437E-1	0.00000E+0	0.00000E+0	1.91567E+1	1.57905E+1	1.91567E+1	1.57899E+1
125	17/03/2023	15:41:29.938	0.00000E+0	0.00000E+0	2.35859E+2	2.06392E+0	0.00000E+0	0.00000E+0	2.45869E+1	1.04201E+1	2.45879E+1	1.04190E+1
126	17/03/2023	15:41:31.505	0.00000E+0	0.00000E+0	-1.83148E+2	1.41339E+0	0.00000E+0	0.00000E+0	1.87391E+1	1.62470E+1	1.87374E+1	1.62461E+1
127	17/03/2023	15:41:33.011	0.00000E+0	0.00000E+0	-1.52287E+2	-2.87995E+0	0.00000E+0	0.00000E+0	1.89992E+1	1.58873E+1	1.89996E+1	1.58861E+1
128	17/03/2023	15:41:34.539	0.00000E+0	0.00000E+0	1.93593E+2	2.85091E+0	0.00000E+0	0.00000E+0	2.40490E+1	1.09474E+1	2.40485E+1	1.09473E+1
129	17/03/2023	15:41:36.047	0.00000E+0	0.00000E+0	-2.28987E+2	2.71131E+0	0.00000E+0	0.00000E+0	1.81191E+1	1.68493E+1	1.81207E+1	1.68465E+1
130	17/03/2023	15:41:37.536	0.00000E+0	0.00000E+0	4.01433E+1	-1.61084E+0	0.00000E+0	0.00000E+0	2.13719E+1	1.35715E+1	2.13711E+1	1.35693E+1
131	17/03/2023	15:41:39.051	0.00000E+0	0.00000E+0	2.01533E+2	2.81053E+0	0.00000E+0	0.00000E+0	2.41485E+1	1.08559E+1	2.41466E+1	1.08541E+1
132	17/03/2023	15:41:40.557	0.00000E+0	0.00000E+0	-2.14140E+2	-6.13210E+0	0.00000E+0	0.00000E+0	1.82221E+1	1.66954E+1	1.82221E+1	1.66975E+1
133	17/03/2023	15:41:42.061	0.00000E+0	0.00000E+0	1.88467E+2	1.32044E+0	0.00000E+0	0.00000E+0	2.36708E+1	1.12581E+1	2.36724E+1	1.12588E+1
134	17/03/2023	15:41:43.568	0.00000E+0	0.00000E+0	2.67602E+1	-2.04527E+0	0.00000E+0	0.00000E+0	2.21742E+1	1.28386E+1	2.21760E+1	1.28375E+1
135	17/03/2023	15:41:45.071	0.00000E+0	0.00000E+0	-1.16440E+2	-2.29726E+0	0.00000E+0	0.00000E+0	1.91979E+1	1.56427E+1	1.91966E+1	1.56438E+1
136	17/03/2023	15:41:46.652	0.00000E+0	0.00000E+0	2.21436E+2	1.93438E+0	0.00000E+0	0.00000E+0	2.44751E+1	1.05639E+1	2.44755E+1	1.05631E+1
137	17/03/2023	15:41:48.159	0.00000E+0	0.00000E+0	-2.13245E+2	-6.29537E-1	0.00000E+0	0.00000E+0	1.82760E+1	1.67590E+1	1.82759E+1	1.67571E+1
138	17/03/2023	15:41:49.735	0.00000E+0	0.00000E+0	2.13436E+2	2.21294E+0	0.00000E+0	0.00000E+0	2.41831E+1	1.08048E+1	2.41837E+1	1.08043E+1
139	17/03/2023	15:41:51.240	0.00000E+0	0.00000E+0	-9.41135E+1	-5.58166E-1	0.00000E+0	0.00000E+0	2.01953E+1	1.47340E+1	2.01940E+1	1.47363E+1
140	17/03/2023	15:41:52.756	0.00000E+0	0.00000E+0	-1.83230E+2	-4.64519E-1	0.00000E+0	0.00000E+0	1.85491E+1	1.62880E+1	1.85495E+1	1.62862E+1
141	17/03/2023	15:41:54.234	0.00000E+0	0.00000E+0	2.63804E+2	-1.34050E-2	0.00000E+0	0.00000E+0	2.50037E+1	1.00119E+1	2.50024E+1	1.00122E+1
142	17/03/2023	15:41:55.738	0.00000E+0	0.00000E+0	-2.33094E+2	7.81344E-1	0.00000E+0	0.00000E+0	1.79402E+1	1.70331E+1	1.79405E+1	1.70337E+1
143	17/03/2023	15:41:57.238	0.00000E+0	0.00000E+0	2.02272E+2	-1.58192E-1	0.00000E+0	0.00000E+0	2.38751E+1	1.10927E+1	2.38729E+1	1.10923E+1
144	17/03/2023	15:41:58.750	0.00000E+0	0.00000E+0	-1.03682E+2	-1.33849E+0	0.00000E+0	0.00000E+0	2.01614E+1	1.47522E+1	2.01604E+1	1.47528E+1
145	17/03/2023	15:42:00.255	0.00000E+0	0.00000E+0	-1.79551E+2	-5.54157E-1	0.00000E+0	0.00000E+0	1.86054E+1	1.62861E+1	1.86056E+1	1.62850E+1
146	17/03/2023	15:42:01.752	0.00000E+0	0.00000E+0	2.62899E+2	2.43431E+0	0.00000E+0	0.00000E+0	2.49771E+1	1.00605E+1	2.49776E+1	1.00614E+1
147	17/03/2023	15:42:03.252	0.00000E+0	0.00000E+0	-2.32756E+2	1.33819E+0	0.00000E+0	0.00000E+0	1.79700E+1	1.69413E+1	1.79655E+1	1.69410E+1
148	17/03/2023	15:42:04.753	0.00000E+0	0.00000E+0	2.02364E+2	2.19060E+0	0.00000E+0	0.00000E+0	2.39129E+1	1.10174E+1	2.39120E+1	1.10178E+1
149	17/03/2023	15:42:06.261	0.00000E+0	0.00000E+0	2.10483E+1	1.08797E+0	0.00000E+0	0.00000E+0	2.18085E+1	1.30561E+1	2.18080E+1	1.30531E+1
150	17/03/2023	15:42:07.795	0.00000E+0	0.00000E+0	-2.02594E+2	-5.07045E+0	0.00000E+0	0.00000E+0	1.82918E+1	1.65617E+1	1.82908E+1	1.65638E+1
151	17/03/2023	15:42:09.373	0.00000E+0	0.00000E+0	2.25904E+2	1.57771E+0	0.00000E+0	0.00000E+0	2.44474E+1	1.04796E+1	2.44452E+1	1.04790E+1
152	17/03/2023	15:42:10.856	0.00000E+0	0.00000E+0	-6.39060E+1	8.03147E-1	0.00000E+0	0.00000E+0	2.06007E+1	1.43548E+1	2.06010E+1	1.43565E+1
153	17/03/2023	15:42:12.380	0.00000E+0	0.00000E+0	-1.93267E+2	1.17879E+0	0.00000E+0	0.00000E+0	1.84436E+1	1.65300E+1	1.84435E+1	1.65311E+1
154	17/03/2023	15:42:13.889	0.00000E+0	0.00000E+0	2.04336E+2	-3.51344E-1	0.00000E+0	0.00000E+0	2.41710E+1	1.08181E+1	2.41735E+1	1.08191E+1
155	17/03/2023	15:42:15.386	0.00000E+0	0.00000E+0	-1.28673E+2	7.27228E-1	0.00000E+0	0.00000E+0	1.97843E+1	1.51427E+1	1.97849E+1	1.51429E+1
156	17/03/2023	15:42:16.882	0.00000E+0	0.00000E+0	-1.98593E+2	-2.82420E+0	0.00000E+0	0.00000E+0	1.83102E+1	1.66175E+1	1.83090E+1	1.66152E+1
157	17/03/2023	15:42:18.398	0.00000E+0	0.00000E+0	2.40620E+2	1.14587E+0	0.00000E+0	0.00000E+0	2.47387E+1	1.02189E+1	2.47388E+1	1.02160E+1
158	17/03/2023	15:42:19.903	0.00000E+0	0.00000E+0	-2.07525E+2	-5.45844E-1	0.00000E+0	0.00000E+0	1.83595E+1	1.65885E+1	1.83601E+1	1.65914E+1
159	17/03/2023	15:42:21.405	0.00000E+0	0.00000E+0	1.63376E+2	2.43497E-1	0.00000E+0	0.00000E+0	2.33551E+1	1.16349E+1	2.33552E+1	1.16336E+1
160	17/03/2023	15:42:22.911	0.00000E+0	0.00000E+0	1.19695E+1	-1.02707E+0	0.00000E+0	0.00000E+0	2.18143E+1	1.31659E+1	2.18142E+1	1.31646E+1
161	17/03/2023	15:42:24.490	0.00000E+0	0.00000E+0	-1.21548E+2	-1.57574E+0	0.00000E+0	0.00000E+0	1.93045E+1	1.56379E+1	1.93050E+1	1.56366E+1
162	17/03/2023	15:42:26.002	0.00000E+0	0.00000E+0	2.54812E+2	2.07061E+0	0.00000E+0	0.00000E+0	2.48694E+1	1.01110E+1	2.48697E+1	1.01124E+1
163	17/03/2023	15:42:27.586	0.00000E+0	0.00000E+0	-2.45344E+2	-2.12480E+0	0.00000E+0	0.00000E+0	1.78029E+1	1.70688E+1	1.78027E+1	1.70680E+1
164	17/03/2023	15:42:29.095	0.00000E+0	0.00000E+0	1.10507E+2	7.14221E-1	0.00000E+0	0.00000E+0	2.25726E+1	1.23879E+1	2.25721E+1	1.23885E+1
165	17/03/2023	15:42:30.594	0.00000E+0	0.00000E+0	1.03624E+2	-1.86861E-3	0.00000E+0	0.00000E+0	2.30356E+1	1.19424E+1	2.30359E+1	1.19437E+1
166	17/03/2023	15:42:32.101	0.00000E+0	0.00000E+0	-1.86279E+2	-2.43909E+0	0.00000E+0	0.00000E+0	1.86324E+1	1.63187E+1	1.86311E+1	1.63184E+1
167	17/03/2023	15:42:33.681	0.00000E+0	0.00000E+0	1.73527E+2	3.05142E-1	0.00000E+0	0.00000E+0	2.36164E+1	1.13308E+1	2.36151E+1	1.13307E+1
168	17/03/2023	15:42:35.165	0.00000E+0	0.00000E+0	-4.64530E+1	4.73250E-1	0.00000E+0	0.00000E+0	2.09125E+1	1.40399E+1	2.09102E+1	1.40393E+1
169	17/03/2023	15:42:36.688	0.00000E+0	0.00000E+0	-1.83369E+2	9.38039E-1	0.00000E+0	0.00000E+0	1.85971E+1	1.63036E+1	1.85970E+1	1.63029E+1
170	17/03/2023	15:42:38.253	0.00000E+0	0.00000E+0	2.21690E+2	3.42607E-1	0.00000E+0	0.00000E+0	2.43827E+1	1.06352E+1	2.43822E+1	1.06339E+1
171	17/03/2023	15:42:39.760	0.00000E+0	0.00000E+0	-2.35147E+2	1.18304E+0	0.00000E+0	0.00000E+0	1.79516E+1	1.70040E+1	1.79534E+1	1.70030E+1
172	17/03/2023	15:42:41.252	0.00000E+0	0.00000E+0	1.56651E+2	2.20606E+0	0.00000E+0	0.00000E+0	2.32542E+1	1.16376E+1	2.32540E+1	1.16360E+1
173	17/03/2023	15:42:42.788	0.00000E+0	0.00000E+0	1.95719E+1	-1.08067E-1	0.00000E+0	0.00000E+0	2.19312E+1	1.30465E+1	2.19329E+1	1.30452E+1
174	17/03/2023	15:42:44.268	0.00000E+0	0.00000E+0	-2.07041E+2	3.50433E+0	0.00000E+0	0.00000E+0	1.82523E+1	1.66704E+1	1.82517E+1	1.66718E+1
175	17/03/2023	15:42:45.768	0.00000E+0	0.00000E+0	2.72090E+2	-4.32057E-2	0.00000E+0	0.00000E+0	2.50784E+1	9.92590E+0	2.50788E+1	9.92750E+0
176	17/03/2023	15:42:47.355	0.00000E+0	0.00000E+0	-2.32922E+2	-4.13294E+0	0.00000E+0	0.00000E+0	1.80619E+1	1.68654E+1	1.80636E+1	1.68655E+1
177	17/03/2023	15:42:48.886	0.00000E+0	0.00000E+0	3.33641E+1	4.72445E-1	0.00000E+0	0.00000E+0	2.14240E+1	1.35250E+1	2.14244E+1	1.35258E+1
178	17/03/2023	15:42:50.380	0.00000E+0	0.00000E+0	1.77471E+2	-3.40844E-1	0.00000E+0	0.00000E+0	2.41625E+1	1.08743E+1	2.41597E+1	1.08741E+1
179	17/03/2023	15:42:51.973	0.00000E+0	0.00000E+0	-2.05673E+2	-2.87561E+0	0.00000E+0	0.00000E+0	1.82952E+1	1.66253E+1	1.82933E+1	1.66274E+1
180	17/03/2023	15:42:53.485	0.00000E+0	0.00000E+0	2.26740E+2	-8.84350E-1	0.00000E+0	0.00000E+0	2.44206E+1	1.06004E+1	2.44179E+1	1.05987E+1
181	17/03/2023	15:42:54.989	0.00000E+0	0.00000E+0	-1.31524E+2	-2.22294E-1	0.00000E+0	0.00000E+0	1.96003E+1	1.53123E+1	1.95992E+1	1.53130E+1
182	17/03/2023	15:42:56.494	0.00000E+0	0.00000E+0	-1.40769E+2	1.47104E-1	0.00000E+0	0.00000E+0	1.90581E+1	1.58104E+1	1.90599E+1	1.58113E+1
183	17/03/2023	15:42:58.074	0.00000E+0	0.00000E+0	2.32333E+2	-1.42483E+0	0.00000E+0	0.00000E+0	2.45027E+1	1.04398E+1	2.45009E+1	1.04409E+1
184	17/03/2023	15:42:59.584	0.00000E+0	0.00000E+0	-1.99905E+2	-1.16776E+0	0.00000E+0	0.00000E+0	1.84832E+1	1.63845E+1	1.84821E+1	1.63847E+1
185	17/03/2023	15:43:01.086	0.00000E+0	0.00000E+0	-7.52213E+1	8.12964E-2	0.00000E+0	0.00000E+0	1.99657E+1	1.50346E+1	1.99684E+1	1.50354E+1
186	17/03/2023	15:43:02.626	0.00000E+0	0.00000E+0	2.25483E+2	6.47047E-1	0.00000E+0	0.00000E+0	2.44628E+1	1.05018E+1	2.44648E+1	1.05011E+1
187	17/03/2023	15:43:04.175	0.00000E+0	0.00000E+0	-2.24615E+2	1.14092E+0	0.00000E+0	0.00000E+0	1.80503E+1	1.68418E+1	1.80494E+1	1.68414E+1
188	17/03/2023	15:43:05.701	0.00000E+0	0.00000E+0	8.19992E+1	6.59522E-1	0.00000E+0	0.00000E+0	2.21604E+1	1.28035E+1	2.21606E+1	1.28040E+1
189	17/03/2023	15:43:07.242	0.00000E+0	0.00000E+0	1.68872E+2	6.46412E-1	0.00000E+0	0.00000E+0	2.38885E+1	1.10378E+1	2.38897E+1	1.10374E+1
190	17/03/2023	15:43:08.797	0.00000E+0	0.00000E+0	-2.10861E+2	3.83902E-3	0.00000E+0	0.00000E+0	1.81490E+1	1.67474E+1	1.81461E+1	1.67467E+1
191	17/03/2023	15:43:10.298	0.00000E+0	0.00000E+0	1.70349E+2	6.42710E-1	0.00000E+0	0.00000E+0	2.34792E+1	1.15061E+1	2.34788E+1	1.15048E+1
192	17/03/2023	15:43:11.823	0.00000E+0	0.00000E+0	2.12776E+2	8.28034E-1	0.00000E+0	0.00000E+0	2.44843E+1	1.05039E+1	2.44849E+1	1.05043E+1
193	17/03/2023	15:43:13.363	0.00000E+0	0.00000E+0	-2.60593E+2	-2.33137E+0	0.00000E+0	0.00000E+0	1.74354E+1	1.73887E+1	1.74349E+1	1.73877E+1
194	17/03/2023	15:43:14.875	0.00000E+0	0.00000E+0	1.54898E+2	2.36436E+0	0.00000E+0	0.00000E+0	2.33732E+1	1.16119E+1	2.33720E+1	1.16120E+1
195	17/03/2023	15:43:16.388	0.00000E+0	0.00000E+0	-4.48367E+0	-1.13495E+0	0.00000E+0	0.00000E+0	2.15010E+1	1.34627E+1	2.15022E+1	1.34617E+1
196	17/03/2023	15:43:17.874	0.00000E+0	0.00000E+0	-1.97794E+2	-1.57492E+0	0.00000E+0	0.00000E+0	1.83722E+1	1.64107E+1	1.83709E+1	1.64098E+1
197	17/03/2023	15:43:19.399	0.00000E+0	0.00000E+0	1.82766E+2	1.36054E+0	0.00000E+0	0.00000E+0	2.37821E+1	1.12347E+1	2.37844E+1	1.12358E+1
198	17/03/2023	15:43:20.886	0.00000E+0	0.00000E+0	8.01906E+1	-1.26820E+0	0.00000E+0	0.00000E+0	2.29190E+1	1.21046E+1	2.29206E+1	1.21052E+1
199	17/03/2023	15:43:22.402	0.00000E+0	0.00000E+0	-2.16444E+2	-2.78581E+0	0.00000E+0	0.00000E+0	1.81764E+1	1.67367E+1	1.81778E+1	1.67364E+1
200	17/03/2023	15:43:23.896	0.00000E+0	0.00000E+0	1.89247E+2	2.48211E+0	0.00000E+0	0.00000E+0	2.39084E+1	1.10720E+1	2.39088E+1	1.10729E+1
201	17/03/2023	15:43:25.467	0.00000E+0	0.00000E+0	-3.10003E+1	-1.85069E-1	0.00000E+0	0.00000E+0	2.09846E+1	1.39322E+1	2.09830E+1	1.39312E+1
202	17/03/2023	15:43:26.993	0.00000E+0	0.00000E+0	-1.55008E+2	6.91645E-1	0.00000E+0	0.00000E+0	1.88602E+1	1.61292E+1	1.88626E+1	1.61300E+1
203	17/03/2023	15:43:28.495	0.00000E+0	0.00000E+0	1.83610E+2	2.23915E+0	0.00000E+0	0.00000E+0	2.39083E+1	1.10348E+1	2.39093E+1	1.10349E+1
204	17/03/2023	15:43:29.998	0.00000E+0	0.00000E+0	-1.88730E+2	-1.92131E-1	0.00000E+0	0.00000E+0	1.85086E+1	1.63254E+1	1.85089E+1	1.63254E+1
205	17/03/2023	15:43:31.582	0.00000E+0	0.00000E+0	1.91835E+2	2.47620E+0	0.00000E+0	0.00000E+0	2.37318E+1	1.11968E+1	2.37304E+1	1.11967E+1
206	17/03/2023	15:43:33.091	0.00000E+0	0.00000E+0	-5.41968E+1	-2.13754E+0	0.00000E+0	0.00000E+0	2.08065E+1	1.41235E+1	2.08040E+1	1.41221E+1
207	17/03/2023	15:43:34.622	0.00000E+0	0.00000E+0	-1.50537E+2	-1.70746E+0	0.00000E+0	0.00000E+0	1.89877E+1	1.59333E+1	1.89867E+1	1.59336E+1
208	17/03/2023	15:43:36.124	0.00000E+0	0.00000E+0	2.22441E+2	2.22107E+0	0.00000E+0	0.00000E+0	2.43932E+1	1.05876E+1	2.43930E+1	1.05882E+1
209	17/03/2023	15:43:37.629	0.00000E+0	0.00000E+0	-1.77445E+2	2.65756E+0	0.00000E+0	0.00000E+0	1.87685E+1	1.61053E+1	1.87694E+1	1.61065E+1
210	17/03/2023	15:43:39.132	0.00000E+0	0.00000E+0	-1.01525E+2	-1.33256E+0	0.00000E+0	0.00000E+0	1.94864E+1	1.55052E+1	1.94886E+1	1.55039E+1
211	17/03/2023	15:43:40.634	0.00000E+0	0.00000E+0	2.18585E+2	1.99345E+0	0.00000E+0	0.00000E+0	2.44447E+1	1.05684E+1	2.44455E+1	1.05679E+1
212	17/03/2023	15:43:42.141	0.00000E+0	0.00000E+0	-2.03909E+2	1.86213E+0	0.00000E+0	0.00000E+0	1.84435E+1	1.64768E+1	1.84428E+1	1.64772E+1
213	17/03/2023	15:43:43.645	0.00000E+0	0.00000E+0	-1.06165E+1	8.06660E-2	0.00000E+0	0.00000E+0	2.07237E+1	1.42011E+1	2.07215E+1	1.42030E+1
214	17/03/2023	15:43:45.152	0.00000E+0	0.00000E+0	1.69537E+2	-2.83594E-1	0.00000E+0	0.00000E+0	2.37125E+1	1.12918E+1	2.37119E+1	1.12908E+1
215	17/03/2023	15:43:46.655	0.00000E+0	0.00000E+0	-1.58387E+2	-2.37152E+0	0.00000E+0	0.00000E+0	1.90389E+1	1.58903E+1	1.90376E+1	1.58907E+1
216	17/03/2023	15:43:48.155	0.00000E+0	0.00000E+0	2.62177E+1	-2.48542E+0	0.00000E+0	0.00000E+0	2.12489E+1	1.36940E+1	2.12467E+1	1.36937E+1
217	17/03/2023	15:43:49.659	0.00000E+0	0.00000E+0	1.62682E+2	-4.48349E-1	0.00000E+0	0.00000E+0	2.36521E+1	1.12991E+1	2.36516E+1	1.12996E+1
218	17/03/2023	15:43:51.163	0.00000E+0	0.00000E+0	-1.55193E+2	-7.60657E-1	0.00000E+0	0.00000E+0	1.91268E+1	1.58126E+1	1.91241E+1	1.58103E+1
219	17/03/2023	15:43:52.665	0.00000E+0	0.00000E+0	-1.05004E+2	-2.41551E-1	0.00000E+0	0.00000E+0	1.95844E+1	1.53565E+1	1.95851E+1	1.53574E+1
220	17/03/2023	15:43:54.234	0.00000E+0	0.00000E+0	1.81559E+2	7.73919E-1	0.00000E+0	0.00000E+0	2.38813E+1	1.10884E+1	2.38800E+1	1.10872E+1
221	17/03/2023	15:43:55.824	0.00000E+0	0.00000E+0	-2.48957E+2	5.37905E-1	0.00000E+0	0.00000E+0	1.77391E+1	1.71357E+1	1.77375E+1	1.71355E+1
222	17/03/2023	15:43:57.319	0.00000E+0	0.00000E+0	1.70186E+1	1.56349E+0	0.00000E+0	0.00000E+0	2.10640E+1	1.38631E+1	2.10643E+1	1.38610E+1
223	17/03/2023	15:43:58.844	0.00000E+0	0.00000E+0	4.72836E+1	-5.58742E-1	0.00000E+0	0.00000E+0	2.24295E+1	1.25015E+1	2.24300E+1	1.25036E+1
224	17/03/2023	15:44:00.344	0.00000E+0	0.00000E+0	-1.86930E+2	-5.09251E+0	0.00000E+0	0.00000E+0	1.85643E+1	1.63583E+1	1.85661E+1	1.63577E+1
225	17/03/2023	15:44:01.852	0.00000E+0	0.00000E+0	2.44322E+2	8.84630E-1	0.00000E+0	0.00000E+0	2.47202E+1	1.02558E+1	2.47189E+1	1.02550E+1
226	17/03/2023	15:44:03.337	0.00000E+0	0.00000E+0	-2.14917E+2	9.61586E-1	0.00000E+0	0.00000E+0	1.83207E+1	1.66269E+1	1.83214E+1	1.66256E+1
227	17/03/2023	15:44:04.857	0.00000E+0	0.00000E+0	1.49203E+1	1.81467E+0	0.00000E+0	0.00000E+0	2.11919E+1	1.38141E+1	2.11920E+1	1.38152E+1
228	17/03/2023	15:44:06.344	0.00000E+0	0.00000E+0	2.10158E+2	3.05509E-1	0.00000E+0	0.00000E+0	2.42842E+1	1.06987E+1	2.42859E+1	1.06974E+1
229	17/03/2023	15:44:07.859	0.00000E+0	0.00000E+0	-2.08084E+2	-2.92617E+0	0.00000E+0	0.00000E+0	1.82571E+1	1.66171E+1	1.82574E+1	1.66167E+1
230	17/03/2023	15:44:09.376	0.00000E+0	0.00000E+0	8.19228E+1	-3.00453E+0	0.00000E+0	0.00000E+0	2.22743E+1	1.26852E+1	2.22753E+1	1.26851E+1
231	17/03/2023	15:44:10.873	0.00000E+0	0.00000E+0	1.87053E+2	2.14541E+0	0.00000E+0	0.00000E+0	2.40028E+1	1.10079E+1	2.40010E+1	1.10087E+1
232	17/03/2023	15:44:12.354	0.00000E+0	0.00000E+0	-2.20030E+2	1.14176E+0	0.00000E+0	0.00000E+0	1.80825E+1	1.68506E+1	1.80822E+1	1.68509E+1
233	17/03/2023	15:44:13.882	0.00000E+0	0.00000E+0	2.38809E+2	1.93616E+0	0.00000E+0	0.00000E+0	2.45786E+1	1.03817E+1	2.45777E+1	1.03796E+1
234	17/03/2023	15:44:15.384	0.00000E+0	0.00000E+0	-1.04412E+2	1.23620E+0	0.00000E+0	0.00000E+0	2.02344E+1	1.47029E+1	2.02332E+1	1.47041E+1
235	17/03/2023	15:44:16.907	0.00000E+0	0.00000E+0	-4.93590E+1	-3.10586E-1	0.00000E+0	0.00000E+0	2.00499E+1	1.48752E+1	2.00516E+1	1.48750E+1
236	17/03/2023	15:44:18.467	0.00000E+0	0.00000E+0	1.97809E+2	-4.24530E-1	0.00000E+0	0.00000E+0	2.40793E+1	1.08589E+1	2.40778E+1	1.08593E+1
237	17/03/2023	15:44:20.065	0.00000E+0	0.00000E+0	-2.04952E+2	-3.42030E+0	0.00000E+0	0.00000E+0	1.83064E+1	1.65525E+1	1.83061E+1	1.65524E+1
238	17/03/2023	15:44:21.581	0.00000E+0	0.00000E+0	1.31027E+2	-7.38865E-1	0.00000E+0	0.00000E+0	2.30463E+1	1.18969E+1	2.30450E+1	1.18975E+1
239	17/03/2023	15:44:23.168	0.00000E+0	0.00000E+0	-5.46717E+1	-1.28708E+0	0.00000E+0	0.00000E+0	2.07625E+1	1.41739E+1	2.07598E+1	1.41750E+1
240	17/03/2023	15:44:24.669	0.00000E+0	0.00000E+0	-1.21835E+2	-1.24659E+0	0.00000E+0	0.00000E+0	1.93892E+1	1.56174E+1	1.93880E+1	1.56182E+1
241	17/03/2023	15:44:26.180	0.00000E+0	0.00000E+0	1.64485E+2	1.80513E+0	0.00000E+0	0.00000E+0	2.35622E+1	1.13987E+1	2.35634E+1	1.13990E+1
242	17/03/2023	15:44:27.683	0.00000E+0	0.00000E+0	-1.45603E+2	7.00912E-2	0.00000E+0	0.00000E+0	1.92799E+1	1.56336E+1	1.92808E+1	1.56336E+1
