#Iteration	Date	Time	Chirp	Phase	RamanAxis	RTPhase	NFringe	Ratio
1	02/09/2022	15:24:13.154	0.00000000E+0	-3.14159265E+1	5.00000000E+0	4.57202974E+0	-2.51800000E+3	4.51158960E-1
2	02/09/2022	15:24:14.559	0.00000000E+0	-3.12065382E+1	5.00000000E+0	3.56957329E+0	-2.51900000E+3	4.45521055E-1
3	02/09/2022	15:24:16.142	0.00000000E+0	-3.09971498E+1	5.00000000E+0	5.16146186E+0	-2.51600000E+3	4.45119523E-1
4	02/09/2022	15:24:17.536	0.00000000E+0	-3.07877614E+1	5.00000000E+0	4.68017538E+0	-2.51700000E+3	4.46868414E-1
5	02/09/2022	15:24:19.019	0.00000000E+0	-3.05779895E+1	5.00000000E+0	6.27091346E+0	-2.51600000E+3	4.47290381E-1
6	02/09/2022	15:24:20.399	0.00000000E+0	-3.03686012E+1	5.00000000E+0	5.59787939E+0	-2.51900000E+3	4.49924958E-1
7	02/09/2022	15:24:21.801	0.00000000E+0	-3.01592128E+1	5.00000000E+0	5.18102011E+0	-2.51600000E+3	4.46160844E-1
8	02/09/2022	15:24:23.290	0.00000000E+0	-2.99498244E+1	5.00000000E+0	5.59442793E+0	-2.51600000E+3	4.46977943E-1
9	02/09/2022	15:24:24.705	0.00000000E+0	-2.97404360E+1	5.00000000E+0	5.59212696E+0	-2.51600000E+3	4.41087112E-1
10	02/09/2022	15:24:26.164	0.00000000E+0	-2.95310476E+1	5.00000000E+0	5.51734540E+0	-2.51600000E+3	4.43983210E-1
11	02/09/2022	15:24:27.557	0.00000000E+0	-2.93216593E+1	5.00000000E+0	2.27719448E+0	-2.51800000E+3	4.42249521E-1
12	02/09/2022	15:24:28.954	0.00000000E+0	-2.91122709E+1	5.00000000E+0	4.95475794E+0	-2.51500000E+3	4.39490763E-1
13	02/09/2022	15:24:30.518	0.00000000E+0	-2.89024990E+1	5.00000000E+0	4.76416083E+0	-2.51700000E+3	4.49577869E-1
14	02/09/2022	15:24:31.914	0.00000000E+0	-2.86931106E+1	5.00000000E+0	4.30856854E+0	-2.51500000E+3	4.43161317E-1
15	02/09/2022	15:24:33.344	0.00000000E+0	-2.84837223E+1	5.00000000E+0	1.71997596E+0	-2.51600000E+3	4.47303871E-1
16	02/09/2022	15:24:34.732	0.00000000E+0	-2.82743339E+1	5.00000000E+0	5.11314146E+0	-2.51900000E+3	4.48085394E-1
17	02/09/2022	15:24:36.118	0.00000000E+0	-2.80649455E+1	5.00000000E+0	5.86172409E+0	-2.51500000E+3	4.47038044E-1
18	02/09/2022	15:24:37.614	0.00000000E+0	-2.78555571E+1	5.00000000E+0	3.31186452E+0	-2.51600000E+3	4.51395724E-1
19	02/09/2022	15:24:38.998	0.00000000E+0	-2.76461687E+1	5.00000000E+0	7.78111755E-1	-2.51500000E+3	4.47984369E-1
20	02/09/2022	15:24:40.444	0.00000000E+0	-2.74363969E+1	5.00000000E+0	2.96096642E+0	-2.51500000E+3	4.49186906E-1
21	02/09/2022	15:24:41.944	0.00000000E+0	-2.72270085E+1	5.00000000E+0	2.95022855E+0	-2.51700000E+3	4.44598303E-1
22	02/09/2022	15:24:43.322	0.00000000E+0	-2.70176201E+1	5.00000000E+0	2.76193241E+0	-2.51500000E+3	4.56422350E-1
23	02/09/2022	15:24:44.819	0.00000000E+0	-2.68082317E+1	5.00000000E+0	2.97592273E-1	-2.51700000E+3	4.51428022E-1
24	02/09/2022	15:24:46.225	0.00000000E+0	-2.65988434E+1	5.00000000E+0	1.79092257E-1	-2.51800000E+3	4.45924710E-1
25	02/09/2022	15:24:47.610	0.00000000E+0	-2.63894550E+1	5.00000000E+0	4.32352485E+0	-2.51500000E+3	4.46363273E-1
26	02/09/2022	15:24:49.065	0.00000000E+0	-2.61800666E+1	5.00000000E+0	4.17933066E+0	-2.51600000E+3	4.43698131E-1
27	02/09/2022	15:24:50.474	0.00000000E+0	-2.59706782E+1	5.00000000E+0	4.36609282E+0	-2.51800000E+3	4.43871408E-1
28	02/09/2022	15:24:51.923	0.00000000E+0	-2.57609064E+1	5.00000000E+0	8.48674871E-1	-2.51800000E+3	4.46695403E-1
29	02/09/2022	15:24:53.413	0.00000000E+0	-2.55515180E+1	5.00000000E+0	6.56543777E-1	-2.51400000E+3	4.42383160E-1
30	02/09/2022	15:24:54.805	0.00000000E+0	-2.53421296E+1	5.00000000E+0	4.46311710E+0	-2.51900000E+3	4.50540132E-1
31	02/09/2022	15:24:56.334	0.00000000E+0	-2.51327412E+1	5.00000000E+0	5.47861238E+0	-2.51500000E+3	4.45555843E-1
32	02/09/2022	15:24:57.713	0.00000000E+0	-2.49233529E+1	5.00000000E+0	3.77282575E+0	-2.51800000E+3	4.47116704E-1
33	02/09/2022	15:24:59.118	0.00000000E+0	-2.47139645E+1	5.00000000E+0	2.36539837E+0	-2.51500000E+3	4.48149180E-1
34	02/09/2022	15:25:00.660	0.00000000E+0	-2.45045761E+1	5.00000000E+0	3.02577710E-1	-2.51400000E+3	4.44549624E-1
35	02/09/2022	15:25:02.055	0.00000000E+0	-2.42948042E+1	5.00000000E+0	2.20471389E+0	-2.51900000E+3	4.42171135E-1
36	02/09/2022	15:25:03.563	0.00000000E+0	-2.40854158E+1	5.00000000E+0	3.76285487E+0	-2.51900000E+3	4.45975006E-1
37	02/09/2022	15:25:04.999	0.00000000E+0	-2.38760275E+1	5.00000000E+0	1.12402442E+0	-2.51400000E+3	4.44916115E-1
38	02/09/2022	15:25:06.383	0.00000000E+0	-2.36666391E+1	5.00000000E+0	4.19275299E+0	-2.51800000E+3	4.42847727E-1
39	02/09/2022	15:25:07.922	0.00000000E+0	-2.34572507E+1	5.00000000E+0	8.96995266E-1	-2.51500000E+3	4.42998700E-1
40	02/09/2022	15:25:09.309	0.00000000E+0	-2.32478623E+1	5.00000000E+0	1.91594200E+0	-2.51900000E+3	4.42050470E-1
41	02/09/2022	15:25:10.747	0.00000000E+0	-2.30384740E+1	5.00000000E+0	6.84538927E-1	-2.51400000E+3	4.46602669E-1
42	02/09/2022	15:25:12.277	0.00000000E+0	-2.28290856E+1	5.00000000E+0	1.09986422E+0	-2.51800000E+3	4.42889946E-1
43	02/09/2022	15:25:13.673	0.00000000E+0	-2.26193137E+1	5.00000000E+0	3.74176264E+0	-2.51500000E+3	4.44708982E-1
44	02/09/2022	15:25:15.150	0.00000000E+0	-2.24099253E+1	5.00000000E+0	4.63262198E+0	-2.51900000E+3	4.45500693E-1
45	02/09/2022	15:25:16.543	0.00000000E+0	-2.22005370E+1	5.00000000E+0	6.27014647E+0	-2.51500000E+3	4.43837077E-1
46	02/09/2022	15:25:17.928	0.00000000E+0	-2.19911486E+1	5.00000000E+0	4.58238411E+0	-2.51900000E+3	4.50087662E-1
47	02/09/2022	15:25:19.408	0.00000000E+0	-2.17817602E+1	5.00000000E+0	4.66061713E+0	-2.51600000E+3	4.46113121E-1
48	02/09/2022	15:25:20.800	0.00000000E+0	-2.15723718E+1	5.00000000E+0	3.42691308E+0	-2.51800000E+3	4.47893995E-1
49	02/09/2022	15:25:22.241	0.00000000E+0	-2.13629834E+1	5.00000000E+0	5.53498618E+0	-2.51500000E+3	4.49156096E-1
50	02/09/2022	15:25:23.640	0.00000000E+0	-2.11532116E+1	5.00000000E+0	4.04970928E-1	-2.51700000E+3	4.46942585E-1
51	02/09/2022	15:25:25.032	0.00000000E+0	-2.09438232E+1	5.00000000E+0	5.31677741E+0	-2.51500000E+3	4.46683877E-1
52	02/09/2022	15:25:26.492	0.00000000E+0	-2.07344348E+1	5.00000000E+0	3.18185965E+0	-2.51500000E+3	4.48333851E-1
53	02/09/2022	15:25:27.888	0.00000000E+0	-2.05250464E+1	5.00000000E+0	2.75157804E+0	-2.51700000E+3	4.43396147E-1
54	02/09/2022	15:25:29.275	0.00000000E+0	-2.03156581E+1	5.00000000E+0	4.84469482E+0	-2.51500000E+3	4.44210493E-1
55	02/09/2022	15:25:30.862	0.00000000E+0	-2.01062697E+1	5.00000000E+0	9.72160324E-1	-2.51500000E+3	4.40307354E-1
56	02/09/2022	15:25:32.244	0.00000000E+0	-1.98968813E+1	5.00000000E+0	4.02324811E+0	-2.51600000E+3	4.44475583E-1
57	02/09/2022	15:25:33.737	0.00000000E+0	-1.96874929E+1	5.00000000E+0	5.32904926E+0	-2.51500000E+3	4.47260580E-1
58	02/09/2022	15:25:35.125	0.00000000E+0	-1.94777211E+1	5.00000000E+0	6.21453967E+0	-2.51800000E+3	4.43942084E-1
59	02/09/2022	15:25:36.513	0.00000000E+0	-1.92683327E+1	5.00000000E+0	2.52684985E+0	-2.51700000E+3	4.45845228E-1
60	02/09/2022	15:25:37.987	0.00000000E+0	-1.90589443E+1	5.00000000E+0	3.55039853E+0	-2.51400000E+3	4.40818314E-1
61	02/09/2022	15:25:39.388	0.00000000E+0	-1.88495559E+1	5.00000000E+0	3.74981604E+0	-2.51700000E+3	4.44019102E-1
62	02/09/2022	15:25:40.828	0.00000000E+0	-1.86401675E+1	5.00000000E+0	3.26277714E+0	-2.51800000E+3	4.42366898E-1
63	02/09/2022	15:25:42.349	0.00000000E+0	-1.84307792E+1	5.00000000E+0	5.53000074E-1	-2.51700000E+3	4.54281864E-1
64	02/09/2022	15:25:43.732	0.00000000E+0	-1.82213908E+1	5.00000000E+0	5.82682602E+0	-2.51500000E+3	4.44558351E-1
65	02/09/2022	15:25:45.151	0.00000000E+0	-1.80116189E+1	5.00000000E+0	5.55761239E+0	-2.51500000E+3	4.46079156E-1
66	02/09/2022	15:25:46.558	0.00000000E+0	-1.78022305E+1	5.00000000E+0	1.82121869E+0	-2.51500000E+3	4.49018326E-1
67	02/09/2022	15:25:47.945	0.00000000E+0	-1.75928422E+1	5.00000000E+0	5.01304921E+0	-2.51800000E+3	4.44270430E-1
68	02/09/2022	15:25:49.443	0.00000000E+0	-1.73834538E+1	5.00000000E+0	6.21875811E+0	-2.51600000E+3	4.48555709E-1
69	02/09/2022	15:25:50.826	0.00000000E+0	-1.71740654E+1	5.00000000E+0	6.02701052E+0	-2.51900000E+3	4.40632920E-1
70	02/09/2022	15:25:52.296	0.00000000E+0	-1.69646770E+1	5.00000000E+0	5.88703477E+0	-2.51800000E+3	4.45503090E-1
71	02/09/2022	15:25:53.701	0.00000000E+0	-1.67552887E+1	5.00000000E+0	2.70210716E+0	-2.51900000E+3	4.39832247E-1
72	02/09/2022	15:25:55.081	0.00000000E+0	-1.65459003E+1	5.00000000E+0	5.74207358E+0	-2.51800000E+3	4.48915632E-1
73	02/09/2022	15:25:56.543	0.00000000E+0	-1.63361284E+1	5.00000000E+0	3.90014615E-1	-2.51600000E+3	4.37921896E-1
74	02/09/2022	15:25:57.933	0.00000000E+0	-1.61267400E+1	5.00000000E+0	1.83885947E+0	-2.51600000E+3	4.49741218E-1
75	02/09/2022	15:25:59.376	0.00000000E+0	-1.59173516E+1	5.00000000E+0	4.85236473E+0	-2.51500000E+3	4.39720120E-1
76	02/09/2022	15:26:00.861	0.00000000E+0	-1.57079633E+1	5.00000000E+0	4.28018989E+0	-2.51900000E+3	4.41106861E-1
77	02/09/2022	15:26:02.244	0.00000000E+0	-1.54985749E+1	5.00000000E+0	3.93619470E+0	-2.51700000E+3	4.45326952E-1
78	02/09/2022	15:26:03.778	0.00000000E+0	-1.52891865E+1	5.00000000E+0	2.02562163E+0	-2.51800000E+3	4.43915047E-1
79	02/09/2022	15:26:05.161	0.00000000E+0	-1.50797981E+1	5.00000000E+0	5.20978225E+0	-2.51800000E+3	4.41467660E-1
80	02/09/2022	15:26:06.538	0.00000000E+0	-1.48700263E+1	5.00000000E+0	3.30611209E+0	-2.51600000E+3	4.44788539E-1
81	02/09/2022	15:26:08.058	0.00000000E+0	-1.46606379E+1	5.00000000E+0	7.96136029E-1	-2.51500000E+3	4.40421689E-1
82	02/09/2022	15:26:09.449	0.00000000E+0	-1.44512495E+1	5.00000000E+0	4.50645206E+0	-2.51800000E+3	4.38759744E-1
83	02/09/2022	15:26:10.835	0.00000000E+0	-1.42418611E+1	5.00000000E+0	4.03705394E+0	-2.51500000E+3	4.45657017E-1
84	02/09/2022	15:26:12.328	0.00000000E+0	-1.40324728E+1	5.00000000E+0	3.14235964E+0	-2.51700000E+3	4.45689528E-1
85	02/09/2022	15:26:13.722	0.00000000E+0	-1.38230844E+1	5.00000000E+0	2.47201004E+0	-2.51700000E+3	4.44108811E-1
86	02/09/2022	15:26:15.184	0.00000000E+0	-1.36136960E+1	5.00000000E+0	4.29092776E+0	-2.51800000E+3	4.44503755E-1
87	02/09/2022	15:26:16.585	0.00000000E+0	-1.34043076E+1	5.00000000E+0	1.73838373E+0	-2.51400000E+3	4.44907716E-1
88	02/09/2022	15:26:17.980	0.00000000E+0	-1.31945357E+1	5.00000000E+0	2.28639836E+0	-2.51800000E+3	4.45213394E-1
89	02/09/2022	15:26:19.469	0.00000000E+0	-1.29851474E+1	5.00000000E+0	1.69121382E-1	-2.51600000E+3	4.48867290E-1
90	02/09/2022	15:26:20.867	0.00000000E+0	-1.27757590E+1	5.00000000E+0	2.28524788E+0	-2.51400000E+3	4.41553664E-1
91	02/09/2022	15:26:22.310	0.00000000E+0	-1.25663706E+1	5.00000000E+0	4.65102975E+0	-2.51900000E+3	4.41757839E-1
92	02/09/2022	15:26:23.784	0.00000000E+0	-1.23569822E+1	5.00000000E+0	4.77144724E+0	-2.51500000E+3	4.49626534E-1
93	02/09/2022	15:26:25.165	0.00000000E+0	-1.21475939E+1	5.00000000E+0	6.04465129E+0	-2.51500000E+3	4.47062696E-1
94	02/09/2022	15:26:26.690	0.00000000E+0	-1.19382055E+1	5.00000000E+0	6.71883585E-1	-2.51800000E+3	4.45443435E-1
95	02/09/2022	15:26:28.077	0.00000000E+0	-1.17284336E+1	5.00000000E+0	3.72220438E+0	-2.51500000E+3	4.44359603E-1
96	02/09/2022	15:26:29.480	0.00000000E+0	-1.15190452E+1	5.00000000E+0	4.62303460E+0	-2.51800000E+3	4.47658529E-1
97	02/09/2022	15:26:30.995	0.00000000E+0	-1.13096569E+1	5.00000000E+0	2.53797121E+0	-2.51500000E+3	4.50732353E-1
98	02/09/2022	15:26:32.390	0.00000000E+0	-1.11002685E+1	5.00000000E+0	3.11666547E+0	-2.51900000E+3	4.44468351E-1
99	02/09/2022	15:26:33.869	0.00000000E+0	-1.08908801E+1	5.00000000E+0	2.74812658E+0	-2.51500000E+3	4.48366629E-1
100	02/09/2022	15:26:35.254	0.00000000E+0	-1.06814917E+1	5.00000000E+0	2.26645661E+0	-2.51600000E+3	4.43846790E-1
101	02/09/2022	15:26:36.634	0.00000000E+0	-1.04721033E+1	5.00000000E+0	2.60469938E+0	-2.51900000E+3	4.46182454E-1
102	02/09/2022	15:26:38.119	0.00000000E+0	-1.02627150E+1	5.00000000E+0	3.31493248E+0	-2.51400000E+3	4.44253567E-1
103	02/09/2022	15:26:39.513	0.00000000E+0	-1.00529431E+1	5.00000000E+0	8.31801082E-1	-2.51800000E+3	4.38225658E-1
104	02/09/2022	15:26:40.911	0.00000000E+0	-9.84355472E+0	5.00000000E+0	2.55407801E+0	-2.51600000E+3	4.41492414E-1
105	02/09/2022	15:26:42.311	0.00000000E+0	-9.63416634E+0	5.00000000E+0	1.34683513E+0	-2.51400000E+3	4.48852453E-1
106	02/09/2022	15:26:43.714	0.00000000E+0	-9.42477796E+0	5.00000000E+0	3.01312176E+0	-2.51800000E+3	4.46346851E-1
107	02/09/2022	15:26:45.227	0.00000000E+0	-9.21538958E+0	5.00000000E+0	1.57693225E+0	-2.51500000E+3	4.48214811E-1
108	02/09/2022	15:26:46.612	0.00000000E+0	-9.00600121E+0	5.00000000E+0	3.01158778E+0	-2.51600000E+3	4.46647143E-1
109	02/09/2022	15:26:48.102	0.00000000E+0	-8.79661283E+0	5.00000000E+0	1.15815549E+0	-2.51500000E+3	4.47586903E-1
110	02/09/2022	15:26:49.615	0.00000000E+0	-8.58684096E+0	5.00000000E+0	4.72849578E+0	-2.51500000E+3	4.45556051E-1
111	02/09/2022	15:26:51.011	0.00000000E+0	-8.37745258E+0	5.00000000E+0	5.25733566E+0	-2.51800000E+3	4.45197101E-1
112	02/09/2022	15:26:52.452	0.00000000E+0	-8.16806420E+0	5.00000000E+0	3.52662183E+0	-2.51600000E+3	4.43609785E-1
113	02/09/2022	15:26:53.903	0.00000000E+0	-7.95867582E+0	5.00000000E+0	1.79284005E+0	-2.51400000E+3	4.47509089E-1
114	02/09/2022	15:26:55.285	0.00000000E+0	-7.74928745E+0	5.00000000E+0	9.08116626E-1	-2.51700000E+3	4.45486845E-1
115	02/09/2022	15:26:56.786	0.00000000E+0	-7.53989907E+0	5.00000000E+0	5.07095699E+0	-2.51600000E+3	4.44694045E-1
116	02/09/2022	15:26:58.164	0.00000000E+0	-7.33051069E+0	5.00000000E+0	8.82038953E-2	-2.51700000E+3	4.44587358E-1
117	02/09/2022	15:26:59.622	0.00000000E+0	-7.12112231E+0	5.00000000E+0	4.76147637E+0	-2.51800000E+3	4.43487506E-1
118	02/09/2022	15:27:01.126	0.00000000E+0	-6.91135044E+0	5.00000000E+0	2.07931096E+0	-2.51700000E+3	4.40531900E-1
119	02/09/2022	15:27:02.512	0.00000000E+0	-6.70196206E+0	5.00000000E+0	7.71975832E-1	-2.51700000E+3	4.42623208E-1
120	02/09/2022	15:27:03.994	0.00000000E+0	-6.49257368E+0	5.00000000E+0	3.12510236E+0	-2.51500000E+3	4.39935541E-1
121	02/09/2022	15:27:05.388	0.00000000E+0	-6.28318531E+0	5.00000000E+0	1.26936910E-1	-2.51600000E+3	4.44284707E-1
122	02/09/2022	15:27:06.780	0.00000000E+0	-6.07379693E+0	5.00000000E+0	4.04779180E+0	-2.51700000E+3	4.46490264E-1
123	02/09/2022	15:27:08.229	0.00000000E+0	-5.86440855E+0	5.00000000E+0	9.07733131E-1	-2.51400000E+3	4.46102280E-1
124	02/09/2022	15:27:09.602	0.00000000E+0	-5.65502017E+0	5.00000000E+0	1.94623812E+0	-2.51500000E+3	4.46122828E-1
125	02/09/2022	15:27:11.043	0.00000000E+0	-5.44524830E+0	5.00000000E+0	3.66583059E+0	-2.51800000E+3	4.46471578E-1
126	02/09/2022	15:27:12.427	0.00000000E+0	-5.23585992E+0	5.00000000E+0	3.17725771E+0	-2.51500000E+3	4.38599610E-1
127	02/09/2022	15:27:13.813	0.00000000E+0	-5.02647155E+0	5.00000000E+0	5.78962699E+0	-2.51900000E+3	4.40826873E-1
128	02/09/2022	15:27:15.280	0.00000000E+0	-4.81708317E+0	5.00000000E+0	4.45889866E+0	-2.51900000E+3	4.49040829E-1
129	02/09/2022	15:27:16.674	0.00000000E+0	-4.60769479E+0	5.00000000E+0	3.55845193E+0	-2.51500000E+3	4.48706111E-1
130	02/09/2022	15:27:18.080	0.00000000E+0	-4.39830641E+0	5.00000000E+0	1.16620889E+0	-2.51400000E+3	4.47297590E-1
131	02/09/2022	15:27:19.592	0.00000000E+0	-4.18891804E+0	5.00000000E+0	3.52432086E+0	-2.51400000E+3	4.48712871E-1
132	02/09/2022	15:27:20.964	0.00000000E+0	-3.97952966E+0	5.00000000E+0	2.91609748E+0	-2.51500000E+3	4.45801676E-1
133	02/09/2022	15:27:22.464	0.00000000E+0	-3.76975779E+0	5.00000000E+0	5.64658328E+0	-2.51500000E+3	4.53089996E-1
134	02/09/2022	15:27:23.835	0.00000000E+0	-3.56036941E+0	5.00000000E+0	1.49563127E-2	-2.51400000E+3	4.48071452E-1
135	02/09/2022	15:27:25.231	0.00000000E+0	-3.35098103E+0	5.00000000E+0	6.18117558E+0	-2.51800000E+3	4.49312761E-1
136	02/09/2022	15:27:26.700	0.00000000E+0	-3.14159265E+0	5.00000000E+0	5.83257845E+0	-2.51600000E+3	4.48643316E-1
137	02/09/2022	15:27:28.103	0.00000000E+0	-2.93220428E+0	5.00000000E+0	1.62563614E+0	-2.51800000E+3	4.43064671E-1
138	02/09/2022	15:27:29.532	0.00000000E+0	-2.72281590E+0	5.00000000E+0	8.29883606E-1	-2.51400000E+3	4.41854782E-1
139	02/09/2022	15:27:31.020	0.00000000E+0	-2.51342752E+0	5.00000000E+0	1.31462154E+0	-2.51800000E+3	4.48130028E-1
140	02/09/2022	15:27:32.402	0.00000000E+0	-2.30365565E+0	5.00000000E+0	3.78241313E+0	-2.51600000E+3	4.42714411E-1
141	02/09/2022	15:27:33.930	0.00000000E+0	-2.09426727E+0	5.00000000E+0	2.39684498E+0	-2.51700000E+3	4.40516023E-1
142	02/09/2022	15:27:35.315	0.00000000E+0	-1.88487889E+0	5.00000000E+0	1.84461190E-1	-2.51700000E+3	4.45787835E-1
143	02/09/2022	15:27:36.697	0.00000000E+0	-1.67549052E+0	5.00000000E+0	8.11475837E-1	-2.51400000E+3	4.42632464E-1
144	02/09/2022	15:27:38.190	0.00000000E+0	-1.46610214E+0	5.00000000E+0	5.87131147E+0	-2.51800000E+3	4.46413991E-1
145	02/09/2022	15:27:39.581	0.00000000E+0	-1.25671376E+0	5.00000000E+0	3.56650533E-2	-2.51500000E+3	4.48971908E-1
146	02/09/2022	15:27:41.063	0.00000000E+0	-1.04732538E+0	5.00000000E+0	2.99701496E+0	-2.51800000E+3	4.46745668E-1
147	02/09/2022	15:27:42.497	0.00000000E+0	-8.37937005E-1	5.00000000E+0	4.99617543E+0	-2.51500000E+3	4.42952090E-1
148	02/09/2022	15:27:43.892	0.00000000E+0	-6.28165133E-1	5.00000000E+0	2.72051493E+0	-2.51700000E+3	4.45914471E-1
149	02/09/2022	15:27:45.433	0.00000000E+0	-4.18776755E-1	5.00000000E+0	5.97600565E+0	-2.51900000E+3	4.42259358E-1
150	02/09/2022	15:27:46.810	0.00000000E+0	-2.09388378E-1	5.00000000E+0	3.36670433E+0	-2.51900000E+3	4.39613897E-1
151	02/09/2022	15:27:48.212	0.00000000E+0	0.00000000E+0	5.00000000E+0	6.03276294E+0	-2.51800000E+3	4.44713439E-1
152	02/09/2022	15:27:49.708	0.00000000E+0	2.09388378E-1	5.00000000E+0	3.32260239E+0	-2.51500000E+3	4.43152204E-1
153	02/09/2022	15:27:51.104	0.00000000E+0	4.18776755E-1	5.00000000E+0	5.51504443E+0	-2.51700000E+3	4.46375839E-1
154	02/09/2022	15:27:52.672	0.00000000E+0	6.28165133E-1	5.00000000E+0	2.28984982E+0	-2.51500000E+3	4.41415149E-1
155	02/09/2022	15:27:54.057	0.00000000E+0	8.37937005E-1	5.00000000E+0	4.73731617E+0	-2.51900000E+3	4.46797110E-1
156	02/09/2022	15:27:55.446	0.00000000E+0	1.04732538E+0	5.00000000E+0	1.19267006E+0	-2.51500000E+3	4.46270091E-1
157	02/09/2022	15:27:56.972	0.00000000E+0	1.25671376E+0	5.00000000E+0	6.02087459E-1	-2.51700000E+3	4.43917555E-1
158	02/09/2022	15:27:58.354	0.00000000E+0	1.46610214E+0	5.00000000E+0	9.00063227E-1	-2.51700000E+3	4.42445140E-1
159	02/09/2022	15:27:59.802	0.00000000E+0	1.67549052E+0	5.00000000E+0	3.04571885E+0	-2.51800000E+3	4.46040265E-1
160	02/09/2022	15:28:01.151	0.00000000E+0	1.88487889E+0	5.00000000E+0	4.80519482E+0	-2.51500000E+3	4.37372351E-1
161	02/09/2022	15:28:02.537	0.00000000E+0	2.09426727E+0	5.00000000E+0	5.31562693E+0	-2.51800000E+3	4.47674999E-1
162	02/09/2022	15:28:04.101	0.00000000E+0	2.30365565E+0	5.00000000E+0	3.06796158E-1	-2.51800000E+3	4.44071240E-1
163	02/09/2022	15:28:05.491	0.00000000E+0	2.51342752E+0	5.00000000E+0	2.76768484E+0	-2.51400000E+3	4.41238918E-1
164	02/09/2022	15:28:06.938	0.00000000E+0	2.72281590E+0	5.00000000E+0	1.73953421E+0	-2.51600000E+3	4.43400386E-1
165	02/09/2022	15:28:08.455	0.00000000E+0	2.93220428E+0	5.00000000E+0	4.25372872E+0	-2.51400000E+3	4.44216776E-1
166	02/09/2022	15:28:09.832	0.00000000E+0	3.14159265E+0	5.00000000E+0	5.63776289E+0	-2.51700000E+3	4.41050523E-1
167	02/09/2022	15:28:11.253	0.00000000E+0	3.35098103E+0	5.00000000E+0	1.22104871E+0	-2.51800000E+3	4.42517778E-1
168	02/09/2022	15:28:12.698	0.00000000E+0	3.56036941E+0	5.00000000E+0	5.36509781E+0	-2.51400000E+3	4.46228286E-1
169	02/09/2022	15:28:14.086	0.00000000E+0	3.76975779E+0	5.00000000E+0	4.64220936E+0	-2.51900000E+3	4.45162541E-1
170	02/09/2022	15:28:15.617	0.00000000E+0	3.97952966E+0	5.00000000E+0	8.29500111E-1	-2.51400000E+3	4.45546067E-1
171	02/09/2022	15:28:17.001	0.00000000E+0	4.18891804E+0	5.00000000E+0	5.72136484E+0	-2.51800000E+3	4.47702793E-1
172	02/09/2022	15:28:18.432	0.00000000E+0	4.39830641E+0	5.00000000E+0	6.01895712E+0	-2.51700000E+3	4.48887802E-1
173	02/09/2022	15:28:19.953	0.00000000E+0	4.60769479E+0	5.00000000E+0	5.89048623E+0	-2.51500000E+3	4.46032514E-1
174	02/09/2022	15:28:21.343	0.00000000E+0	4.81708317E+0	5.00000000E+0	2.98512661E+0	-2.51900000E+3	4.42349677E-1
175	02/09/2022	15:28:22.861	0.00000000E+0	5.02647155E+0	5.00000000E+0	1.07186908E+0	-2.51600000E+3	4.41508931E-1
176	02/09/2022	15:28:24.246	0.00000000E+0	5.23585992E+0	5.00000000E+0	2.58130617E+0	-2.51500000E+3	4.44488691E-1
177	02/09/2022	15:28:25.645	0.00000000E+0	5.44524830E+0	5.00000000E+0	3.56267038E+0	-2.51600000E+3	4.37702367E-1
178	02/09/2022	15:28:27.098	0.00000000E+0	5.65502017E+0	5.00000000E+0	1.67088857E+0	-2.51700000E+3	4.45907126E-1
179	02/09/2022	15:28:28.483	0.00000000E+0	5.86440855E+0	5.00000000E+0	4.87230648E+0	-2.51500000E+3	4.42352359E-1
180	02/09/2022	15:28:29.914	0.00000000E+0	6.07379693E+0	5.00000000E+0	1.19113608E+0	-2.51800000E+3	4.43901855E-1
181	02/09/2022	15:28:31.312	0.00000000E+0	6.28318531E+0	5.00000000E+0	3.45030629E+0	-2.51400000E+3	4.41774370E-1
182	02/09/2022	15:28:32.699	0.00000000E+0	6.49257368E+0	5.00000000E+0	5.84676777E+0	-2.51900000E+3	4.46251284E-1
183	02/09/2022	15:28:34.315	0.00000000E+0	6.70196206E+0	5.00000000E+0	2.49770422E+0	-2.51600000E+3	4.39226658E-1
184	02/09/2022	15:28:35.781	0.00000000E+0	6.91135044E+0	5.00000000E+0	2.86854407E+0	-2.51400000E+3	4.47051953E-1
185	02/09/2022	15:28:37.197	0.00000000E+0	7.12112231E+0	5.00000000E+0	3.08406837E+0	-2.51400000E+3	4.45672306E-1
186	02/09/2022	15:28:38.689	0.00000000E+0	7.33051069E+0	5.00000000E+0	1.94355366E+0	-2.51700000E+3	4.40991731E-1
187	02/09/2022	15:28:40.084	0.00000000E+0	7.53989907E+0	5.00000000E+0	1.83118957E+0	-2.51700000E+3	4.45994079E-1
188	02/09/2022	15:28:41.616	0.00000000E+0	7.74928745E+0	5.00000000E+0	1.47300505E+0	-2.51400000E+3	4.41384003E-1
189	02/09/2022	15:28:42.999	0.00000000E+0	7.95867582E+0	5.00000000E+0	1.68737887E-2	-2.51500000E+3	4.40330631E-1
190	02/09/2022	15:28:44.402	0.00000000E+0	8.16806420E+0	5.00000000E+0	2.24958283E+0	-2.51500000E+3	4.44959977E-1
191	02/09/2022	15:28:45.871	0.00000000E+0	8.37745258E+0	5.00000000E+0	1.35450504E+0	-2.51500000E+3	4.42044124E-1
192	02/09/2022	15:28:47.258	0.00000000E+0	8.58684096E+0	5.00000000E+0	9.10034102E-1	-2.51800000E+3	4.51543755E-1
193	02/09/2022	15:28:48.695	0.00000000E+0	8.79661283E+0	5.00000000E+0	9.16553521E-2	-2.51400000E+3	4.40845578E-1
194	02/09/2022	15:28:50.175	0.00000000E+0	9.00600121E+0	5.00000000E+0	8.77820506E-1	-2.51800000E+3	4.45306950E-1
195	02/09/2022	15:28:51.575	0.00000000E+0	9.21538958E+0	5.00000000E+0	2.79491300E+0	-2.51600000E+3	4.42682986E-1
196	02/09/2022	15:28:53.074	0.00000000E+0	9.42477796E+0	5.00000000E+0	4.58506857E+0	-2.51500000E+3	4.43607803E-1
197	02/09/2022	15:28:54.462	0.00000000E+0	9.63416634E+0	5.00000000E+0	5.13615117E+0	-2.51900000E+3	4.44647641E-1
198	02/09/2022	15:28:55.838	0.00000000E+0	9.84355472E+0	5.00000000E+0	3.32106841E-1	-2.51800000E+3	4.46030661E-1
199	02/09/2022	15:28:57.353	0.00000000E+0	1.00529431E+1	5.00000000E+0	1.30388367E+0	-2.51600000E+3	4.46931757E-1
200	02/09/2022	15:28:58.747	0.00000000E+0	1.02627150E+1	5.00000000E+0	3.65279175E+0	-2.51800000E+3	4.43189515E-1
201	02/09/2022	15:29:00.258	0.00000000E+0	1.04721033E+1	5.00000000E+0	5.47669491E+0	-2.52000000E+3	4.45768924E-1
202	02/09/2022	15:29:01.693	0.00000000E+0	1.06814917E+1	5.00000000E+0	4.77911714E+0	-2.51500000E+3	4.47208986E-1
203	02/09/2022	15:29:03.077	0.00000000E+0	1.08908801E+1	5.00000000E+0	1.77596626E+0	-2.51700000E+3	4.49261851E-1
204	02/09/2022	15:29:04.557	0.00000000E+0	1.11002685E+1	5.00000000E+0	6.06612703E+0	-2.51800000E+3	4.45238432E-1
205	02/09/2022	15:29:05.955	0.00000000E+0	1.13096569E+1	5.00000000E+0	4.68899577E+0	-2.51800000E+3	4.44136156E-1
206	02/09/2022	15:29:07.351	0.00000000E+0	1.15190452E+1	5.00000000E+0	1.80319442E+0	-2.51400000E+3	4.40288379E-1
207	02/09/2022	15:29:08.853	0.00000000E+0	1.17284336E+1	5.00000000E+0	1.90673812E+0	-2.51500000E+3	4.44231344E-1
208	02/09/2022	15:29:10.243	0.00000000E+0	1.19382055E+1	5.00000000E+0	2.51496150E+0	-2.51700000E+3	4.46519545E-1
209	02/09/2022	15:29:11.762	0.00000000E+0	1.21475939E+1	5.00000000E+0	4.81669967E-1	-2.51800000E+3	4.41447215E-1
210	02/09/2022	15:29:13.142	0.00000000E+0	1.23569822E+1	5.00000000E+0	4.44125788E+0	-2.51600000E+3	4.48486115E-1
211	02/09/2022	15:29:14.521	0.00000000E+0	1.25663706E+1	5.00000000E+0	1.91210705E+0	-2.51400000E+3	4.40530876E-1
212	02/09/2022	15:29:16.036	0.00000000E+0	1.27757590E+1	5.00000000E+0	1.71805848E-1	-2.51600000E+3	4.46487341E-1
213	02/09/2022	15:29:17.427	0.00000000E+0	1.29851474E+1	5.00000000E+0	4.78908802E+0	-2.51700000E+3	4.42830702E-1
214	02/09/2022	15:29:18.873	0.00000000E+0	1.31945357E+1	5.00000000E+0	4.82897152E+0	-2.51900000E+3	4.44148450E-1
215	02/09/2022	15:29:20.218	0.00000000E+0	1.34043076E+1	5.00000000E+0	9.08883617E-1	-2.51400000E+3	4.43230390E-1
216	02/09/2022	15:29:21.591	0.00000000E+0	1.36136960E+1	5.00000000E+0	6.08453480E+0	-2.51500000E+3	4.44821832E-1
217	02/09/2022	15:29:23.064	0.00000000E+0	1.38230844E+1	5.00000000E+0	1.03236907E+0	-2.51800000E+3	4.47919490E-1
218	02/09/2022	15:29:24.456	0.00000000E+0	1.40324728E+1	5.00000000E+0	5.10432107E+0	-2.51500000E+3	4.41581548E-1
219	02/09/2022	15:29:25.901	0.00000000E+0	1.42418611E+1	5.00000000E+0	2.96250040E+0	-2.51900000E+3	4.50028383E-1
220	02/09/2022	15:29:27.383	0.00000000E+0	1.44512495E+1	5.00000000E+0	5.61245221E+0	-2.51500000E+3	4.45663853E-1
221	02/09/2022	15:29:28.767	0.00000000E+0	1.46606379E+1	5.00000000E+0	5.73363669E+0	-2.51800000E+3	4.45306949E-1
222	02/09/2022	15:29:30.173	0.00000000E+0	1.48700263E+1	5.00000000E+0	5.58369007E+0	-2.51600000E+3	4.41912103E-1
223	02/09/2022	15:29:31.617	0.00000000E+0	1.50797981E+1	5.00000000E+0	5.45636966E+0	-2.51700000E+3	4.41459100E-1
224	02/09/2022	15:29:32.994	0.00000000E+0	1.52891865E+1	5.00000000E+0	3.62364612E+0	-2.51500000E+3	4.50231623E-1
225	02/09/2022	15:29:34.520	0.00000000E+0	1.54985749E+1	5.00000000E+0	5.17143273E+0	-2.51900000E+3	4.45452847E-1
226	02/09/2022	15:29:35.906	0.00000000E+0	1.57079633E+1	5.00000000E+0	2.82329164E+0	-2.51600000E+3	4.37613835E-1
227	02/09/2022	15:29:37.331	0.00000000E+0	1.59173516E+1	5.00000000E+0	2.85128679E+0	-2.51400000E+3	4.43817553E-1
228	02/09/2022	15:29:38.822	0.00000000E+0	1.61267400E+1	5.00000000E+0	5.85942311E+0	-2.51800000E+3	4.50453467E-1
229	02/09/2022	15:29:40.202	0.00000000E+0	1.63361284E+1	5.00000000E+0	2.50920907E+0	-2.51400000E+3	4.44360421E-1
230	02/09/2022	15:29:41.721	0.00000000E+0	1.65459003E+1	5.00000000E+0	3.42154415E+0	-2.51700000E+3	4.44341912E-1
231	02/09/2022	15:29:43.104	0.00000000E+0	1.67552887E+1	5.00000000E+0	5.13921913E+0	-2.51900000E+3	4.41206484E-1
232	02/09/2022	15:29:44.492	0.00000000E+0	1.69646770E+1	5.00000000E+0	5.89623865E+0	-2.51500000E+3	4.44016188E-1
233	02/09/2022	15:29:45.928	0.00000000E+0	1.71740654E+1	5.00000000E+0	1.21452929E+0	-2.51900000E+3	4.45475085E-1
234	02/09/2022	15:29:47.320	0.00000000E+0	1.73834538E+1	5.00000000E+0	5.69758814E+0	-2.51500000E+3	4.48052100E-1
235	02/09/2022	15:29:48.724	0.00000000E+0	1.75928422E+1	5.00000000E+0	3.07256352E+0	-2.51600000E+3	4.41157249E-1
236	02/09/2022	15:29:50.059	0.00000000E+0	1.78022305E+1	5.00000000E+0	5.15034050E-1	-2.51400000E+3	4.40000012E-1
237	02/09/2022	15:29:51.444	0.00000000E+0	1.80116189E+1	5.00000000E+0	1.60684488E-1	-2.51700000E+3	4.43841881E-1
238	02/09/2022	15:29:52.985	0.00000000E+0	1.82213908E+1	5.00000000E+0	3.07218002E+0	-2.51500000E+3	4.43398201E-1
239	02/09/2022	15:29:54.352	0.00000000E+0	1.84307792E+1	5.00000000E+0	3.77819468E+0	-2.51500000E+3	4.41095325E-1
240	02/09/2022	15:29:55.735	0.00000000E+0	1.86401675E+1	5.00000000E+0	3.82766556E+0	-2.51900000E+3	4.44144595E-1
241	02/09/2022	15:29:57.252	0.00000000E+0	1.88495559E+1	5.00000000E+0	6.27129696E+0	-2.51800000E+3	4.44119550E-1
242	02/09/2022	15:29:58.634	0.00000000E+0	1.90589443E+1	5.00000000E+0	5.50507355E+0	-2.51500000E+3	4.41767023E-1
243	02/09/2022	15:30:00.099	0.00000000E+0	1.92683327E+1	5.00000000E+0	3.79430148E+0	-2.51500000E+3	4.46642617E-1
244	02/09/2022	15:30:01.530	0.00000000E+0	1.94777211E+1	5.00000000E+0	6.06536004E+0	-2.51900000E+3	4.43418867E-1
245	02/09/2022	15:30:02.929	0.00000000E+0	1.96874929E+1	5.00000000E+0	5.34553955E+0	-2.51500000E+3	4.46195457E-1
246	02/09/2022	15:30:04.436	0.00000000E+0	1.98968813E+1	5.00000000E+0	9.25757405E-1	-2.51500000E+3	4.39506103E-1
247	02/09/2022	15:30:05.824	0.00000000E+0	2.01062697E+1	5.00000000E+0	4.03206850E+0	-2.51900000E+3	4.38244391E-1
248	02/09/2022	15:30:07.257	0.00000000E+0	2.03156581E+1	5.00000000E+0	5.20249584E+0	-2.51400000E+3	4.46274892E-1
249	02/09/2022	15:30:08.750	0.00000000E+0	2.05250464E+1	5.00000000E+0	3.75786944E+0	-2.51700000E+3	4.51340836E-1
250	02/09/2022	15:30:10.130	0.00000000E+0	2.07344348E+1	5.00000000E+0	2.34622362E+0	-2.51500000E+3	4.45756141E-1
251	02/09/2022	15:30:11.637	0.00000000E+0	2.09438232E+1	5.00000000E+0	5.57717065E+0	-2.51500000E+3	4.46476180E-1
252	02/09/2022	15:30:13.023	0.00000000E+0	2.11532116E+1	5.00000000E+0	6.07034547E+0	-2.51900000E+3	4.43685202E-1
253	02/09/2022	15:30:14.410	0.00000000E+0	2.13629834E+1	5.00000000E+0	2.77880620E+0	-2.51700000E+3	4.46924153E-1
254	02/09/2022	15:30:15.868	0.00000000E+0	2.15723718E+1	5.00000000E+0	1.41433029E+0	-2.51700000E+3	4.43678452E-1
255	02/09/2022	15:30:17.251	0.00000000E+0	2.17817602E+1	5.00000000E+0	1.56734487E+0	-2.51400000E+3	4.47937074E-1
256	02/09/2022	15:30:18.736	0.00000000E+0	2.19911486E+1	5.00000000E+0	5.65732115E+0	-2.51900000E+3	4.44456099E-1
257	02/09/2022	15:30:20.176	0.00000000E+0	2.22005370E+1	5.00000000E+0	3.41617521E+0	-2.51500000E+3	4.48848523E-1
258	02/09/2022	15:30:21.564	0.00000000E+0	2.24099253E+1	5.00000000E+0	1.30350017E+0	-2.51800000E+3	4.42372803E-1
259	02/09/2022	15:30:23.085	0.00000000E+0	2.26193137E+1	5.00000000E+0	3.31339850E+0	-2.51500000E+3	4.47364617E-1
260	02/09/2022	15:30:24.478	0.00000000E+0	2.28290856E+1	5.00000000E+0	4.66713655E-1	-2.51800000E+3	4.46705095E-1
261	02/09/2022	15:30:25.949	0.00000000E+0	2.30384740E+1	5.00000000E+0	4.23800542E+0	-2.51900000E+3	4.45519710E-1
262	02/09/2022	15:30:27.450	0.00000000E+0	2.32478623E+1	5.00000000E+0	4.50798604E+0	-2.51900000E+3	4.43783867E-1
263	02/09/2022	15:30:28.847	0.00000000E+0	2.34572507E+1	5.00000000E+0	3.46986454E+0	-2.51500000E+3	4.47860106E-1
264	02/09/2022	15:30:30.294	0.00000000E+0	2.36666391E+1	5.00000000E+0	5.38580655E+0	-2.51500000E+3	4.39750404E-1
265	02/09/2022	15:30:31.684	0.00000000E+0	2.38760275E+1	5.00000000E+0	3.19796645E+0	-2.51800000E+3	4.44238144E-1
266	02/09/2022	15:30:33.076	0.00000000E+0	2.40854158E+1	5.00000000E+0	2.73048580E-1	-2.51400000E+3	4.44268296E-1
267	02/09/2022	15:30:34.678	0.00000000E+0	2.42948042E+1	5.00000000E+0	2.02523814E+0	-2.51400000E+3	4.45705998E-1
268	02/09/2022	15:30:36.064	0.00000000E+0	2.45045761E+1	5.00000000E+0	1.63790799E+0	-2.51800000E+3	4.49807742E-1
269	02/09/2022	15:30:37.512	0.00000000E+0	2.47139645E+1	5.00000000E+0	1.49793224E+0	-2.51500000E+3	4.49075629E-1
270	02/09/2022	15:30:38.909	0.00000000E+0	2.49233529E+1	5.00000000E+0	1.48259243E+0	-2.51600000E+3	4.46864784E-1
271	02/09/2022	15:30:40.301	0.00000000E+0	2.51327412E+1	5.00000000E+0	2.73048580E-1	-2.51600000E+3	4.42211904E-1
272	02/09/2022	15:30:41.798	0.00000000E+0	2.53421296E+1	5.00000000E+0	4.31662194E+0	-2.51500000E+3	4.48718281E-1
273	02/09/2022	15:30:43.181	0.00000000E+0	2.55515180E+1	5.00000000E+0	2.65033531E+0	-2.51800000E+3	4.43114393E-1
274	02/09/2022	15:30:44.629	0.00000000E+0	2.57609064E+1	5.00000000E+0	3.64972379E+0	-2.51500000E+3	4.39919204E-1
275	02/09/2022	15:30:46.119	0.00000000E+0	2.59706782E+1	5.00000000E+0	5.53958812E+0	-2.51700000E+3	4.44192823E-1
276	02/09/2022	15:30:47.503	0.00000000E+0	2.61800666E+1	5.00000000E+0	1.67165556E+0	-2.51400000E+3	4.41512992E-1
277	02/09/2022	15:30:49.006	0.00000000E+0	2.63894550E+1	5.00000000E+0	1.30234969E+0	-2.51400000E+3	4.48590226E-1
278	02/09/2022	15:30:50.380	0.00000000E+0	2.65988434E+1	5.00000000E+0	1.65248080E+0	-2.51500000E+3	4.39758719E-1
279	02/09/2022	15:30:51.770	0.00000000E+0	2.68082317E+1	5.00000000E+0	1.31423804E+0	-2.51800000E+3	4.49196915E-1
280	02/09/2022	15:30:53.241	0.00000000E+0	2.70176201E+1	5.00000000E+0	3.81194226E-1	-2.51500000E+3	4.43216912E-1
281	02/09/2022	15:30:54.631	0.00000000E+0	2.72270085E+1	5.00000000E+0	1.09986422E+0	-2.51700000E+3	4.47814943E-1
282	02/09/2022	15:30:56.048	0.00000000E+0	2.74363969E+1	5.00000000E+0	2.74620911E+0	-2.51900000E+3	4.48173615E-1
283	02/09/2022	15:30:57.551	0.00000000E+0	2.76461687E+1	5.00000000E+0	4.32735980E+0	-2.51800000E+3	4.49928953E-1
284	02/09/2022	15:30:58.937	0.00000000E+0	2.78555571E+1	5.00000000E+0	1.54280118E+0	-2.51700000E+3	4.50076027E-1
285	02/09/2022	15:31:00.411	0.00000000E+0	2.80649455E+1	5.00000000E+0	3.89899567E+0	-2.51500000E+3	4.50548849E-1
286	02/09/2022	15:31:01.792	0.00000000E+0	2.82743339E+1	5.00000000E+0	3.87330149E-2	-2.51700000E+3	4.49888859E-1
287	02/09/2022	15:31:03.169	0.00000000E+0	2.84837223E+1	5.00000000E+0	2.61160229E-1	-2.51800000E+3	4.35119906E-1
288	02/09/2022	15:31:04.688	0.00000000E+0	2.86931106E+1	5.00000000E+0	4.06466559E+0	-2.51700000E+3	4.45763447E-1
289	02/09/2022	15:31:06.075	0.00000000E+0	2.89024990E+1	5.00000000E+0	6.07494742E+0	-2.51600000E+3	4.42618652E-1
290	02/09/2022	15:31:07.451	0.00000000E+0	2.91122709E+1	5.00000000E+0	3.45184027E+0	-2.51700000E+3	4.49160320E-1
291	02/09/2022	15:31:08.833	0.00000000E+0	2.93216593E+1	5.00000000E+0	2.79721397E+0	-2.51800000E+3	4.46720164E-1
292	02/09/2022	15:31:10.235	0.00000000E+0	2.95310476E+1	5.00000000E+0	4.70778704E+0	-2.51800000E+3	4.45635656E-1
293	02/09/2022	15:31:11.769	0.00000000E+0	2.97404360E+1	5.00000000E+0	2.05054882E+0	-2.51500000E+3	4.42496100E-1
294	02/09/2022	15:31:13.207	0.00000000E+0	2.99498244E+1	5.00000000E+0	5.51159297E+0	-2.51900000E+3	4.42658808E-1
295	02/09/2022	15:31:14.640	0.00000000E+0	3.01592128E+1	5.00000000E+0	5.38849101E+0	-2.51500000E+3	4.40305211E-1
296	02/09/2022	15:31:16.129	0.00000000E+0	3.03686012E+1	5.00000000E+0	9.74077800E-2	-2.51800000E+3	4.43374435E-1
297	02/09/2022	15:31:17.514	0.00000000E+0	3.05779895E+1	5.00000000E+0	5.25733566E+0	-2.51500000E+3	4.43010358E-1
298	02/09/2022	15:31:19.023	0.00000000E+0	3.07877614E+1	5.00000000E+0	6.28203482E+0	-2.51500000E+3	4.49368951E-1
299	02/09/2022	15:31:20.400	0.00000000E+0	3.09971498E+1	5.00000000E+0	3.46372862E+0	-2.51500000E+3	4.49890195E-1
300	02/09/2022	15:31:21.829	0.00000000E+0	3.12065382E+1	5.00000000E+0	3.90244712E+0	-2.52000000E+3	4.44057765E-1
301	02/09/2022	15:31:23.324	0.00000000E+0	3.14159265E+1	5.00000000E+0	4.87077250E+0	-2.51700000E+3	4.41920733E-1
