#Iteration	Date	Time	STSX	STSY	RotationRateX	RotationRateY	FrCntX	FrCntY	TiptiltCmd1	TiptiltCmd2	TiptiltMonitor1	TiptiltMonitor2
1	02/09/2022	15:24:13.154	0.00000E+0	0.00000E+0	6.00000E+1	0.00000E+0	0.00000E+0	0.00000E+0	2.00000E+1	1.40000E+1	2.00007E+1	1.40017E+1
2	02/09/2022	15:24:14.559	0.00000E+0	0.00000E+0	6.00000E+1	0.00000E+0	0.00000E+0	0.00000E+0	2.00000E+1	1.40000E+1	2.00001E+1	1.40007E+1
3	02/09/2022	15:24:16.142	0.00000E+0	0.00000E+0	6.00000E+1	0.00000E+0	0.00000E+0	0.00000E+0	2.00000E+1	1.40000E+1	1.99979E+1	1.40000E+1
4	02/09/2022	15:24:17.536	0.00000E+0	0.00000E+0	6.00000E+1	0.00000E+0	0.00000E+0	0.00000E+0	2.00000E+1	1.40000E+1	1.99998E+1	1.40004E+1
5	02/09/2022	15:24:19.019	0.00000E+0	0.00000E+0	6.00000E+1	0.00000E+0	0.00000E+0	0.00000E+0	2.00000E+1	1.40000E+1	2.00023E+1	1.40003E+1
6	02/09/2022	15:24:20.399	0.00000E+0	0.00000E+0	6.00000E+1	0.00000E+0	0.00000E+0	0.00000E+0	2.00000E+1	1.40000E+1	2.00011E+1	1.39992E+1
7	02/09/2022	15:24:21.801	0.00000E+0	0.00000E+0	6.00000E+1	0.00000E+0	0.00000E+0	0.00000E+0	2.00000E+1	1.40000E+1	1.99988E+1	1.40014E+1
8	02/09/2022	15:24:23.290	0.00000E+0	0.00000E+0	6.00000E+1	0.00000E+0	0.00000E+0	0.00000E+0	2.00000E+1	1.40000E+1	1.99993E+1	1.39998E+1
9	02/09/2022	15:24:24.705	0.00000E+0	0.00000E+0	6.00000E+1	0.00000E+0	0.00000E+0	0.00000E+0	2.00000E+1	1.40000E+1	2.00004E+1	1.39967E+1
10	02/09/2022	15:24:26.164	0.00000E+0	0.00000E+0	6.00000E+1	0.00000E+0	0.00000E+0	0.00000E+0	2.00000E+1	1.40000E+1	2.00025E+1	1.40010E+1
11	02/09/2022	15:24:27.557	0.00000E+0	0.00000E+0	6.00000E+1	0.00000E+0	0.00000E+0	0.00000E+0	2.00000E+1	1.40000E+1	2.00034E+1	1.39970E+1
12	02/09/2022	15:24:28.954	0.00000E+0	0.00000E+0	6.00000E+1	0.00000E+0	0.00000E+0	0.00000E+0	2.00000E+1	1.40000E+1	2.00003E+1	1.39997E+1
13	02/09/2022	15:24:30.518	0.00000E+0	0.00000E+0	6.00000E+1	0.00000E+0	0.00000E+0	0.00000E+0	2.00000E+1	1.40000E+1	2.00020E+1	1.39996E+1
14	02/09/2022	15:24:31.914	0.00000E+0	0.00000E+0	6.00000E+1	0.00000E+0	0.00000E+0	0.00000E+0	2.00000E+1	1.40000E+1	2.00011E+1	1.40004E+1
15	02/09/2022	15:24:33.344	0.00000E+0	0.00000E+0	6.00000E+1	0.00000E+0	0.00000E+0	0.00000E+0	2.00000E+1	1.40000E+1	1.99995E+1	1.39997E+1
16	02/09/2022	15:24:34.732	0.00000E+0	0.00000E+0	6.00000E+1	0.00000E+0	0.00000E+0	0.00000E+0	2.00000E+1	1.40000E+1	1.99995E+1	1.39992E+1
17	02/09/2022	15:24:36.118	0.00000E+0	0.00000E+0	6.00000E+1	0.00000E+0	0.00000E+0	0.00000E+0	2.00000E+1	1.40000E+1	2.00022E+1	1.40024E+1
18	02/09/2022	15:24:37.614	0.00000E+0	0.00000E+0	6.00000E+1	0.00000E+0	0.00000E+0	0.00000E+0	2.00000E+1	1.40000E+1	1.99980E+1	1.39982E+1
19	02/09/2022	15:24:38.998	0.00000E+0	0.00000E+0	6.00000E+1	0.00000E+0	0.00000E+0	0.00000E+0	2.00000E+1	1.40000E+1	1.99991E+1	1.40002E+1
20	02/09/2022	15:24:40.444	0.00000E+0	0.00000E+0	6.00000E+1	0.00000E+0	0.00000E+0	0.00000E+0	2.00000E+1	1.40000E+1	2.00007E+1	1.39982E+1
21	02/09/2022	15:24:41.944	0.00000E+0	0.00000E+0	6.00000E+1	0.00000E+0	0.00000E+0	0.00000E+0	2.00000E+1	1.40000E+1	2.00005E+1	1.40000E+1
22	02/09/2022	15:24:43.322	0.00000E+0	0.00000E+0	6.00000E+1	0.00000E+0	0.00000E+0	0.00000E+0	2.00000E+1	1.40000E+1	2.00022E+1	1.40007E+1
23	02/09/2022	15:24:44.819	0.00000E+0	0.00000E+0	6.00000E+1	0.00000E+0	0.00000E+0	0.00000E+0	2.00000E+1	1.40000E+1	2.00006E+1	1.40021E+1
24	02/09/2022	15:24:46.225	0.00000E+0	0.00000E+0	6.00000E+1	0.00000E+0	0.00000E+0	0.00000E+0	2.00000E+1	1.40000E+1	2.00004E+1	1.40004E+1
25	02/09/2022	15:24:47.610	0.00000E+0	0.00000E+0	6.00000E+1	0.00000E+0	0.00000E+0	0.00000E+0	2.00000E+1	1.40000E+1	2.00005E+1	1.39980E+1
26	02/09/2022	15:24:49.065	0.00000E+0	0.00000E+0	6.00000E+1	0.00000E+0	0.00000E+0	0.00000E+0	2.00000E+1	1.40000E+1	1.99985E+1	1.39995E+1
27	02/09/2022	15:24:50.474	0.00000E+0	0.00000E+0	6.00000E+1	0.00000E+0	0.00000E+0	0.00000E+0	2.00000E+1	1.40000E+1	1.99998E+1	1.40004E+1
28	02/09/2022	15:24:51.923	0.00000E+0	0.00000E+0	6.00000E+1	0.00000E+0	0.00000E+0	0.00000E+0	2.00000E+1	1.40000E+1	1.99961E+1	1.39997E+1
29	02/09/2022	15:24:53.413	0.00000E+0	0.00000E+0	6.00000E+1	0.00000E+0	0.00000E+0	0.00000E+0	2.00000E+1	1.40000E+1	2.00002E+1	1.40026E+1
30	02/09/2022	15:24:54.805	0.00000E+0	0.00000E+0	6.00000E+1	0.00000E+0	0.00000E+0	0.00000E+0	2.00000E+1	1.40000E+1	2.00026E+1	1.39988E+1
31	02/09/2022	15:24:56.334	0.00000E+0	0.00000E+0	6.00000E+1	0.00000E+0	0.00000E+0	0.00000E+0	2.00000E+1	1.40000E+1	2.00016E+1	1.39979E+1
32	02/09/2022	15:24:57.713	0.00000E+0	0.00000E+0	6.00000E+1	0.00000E+0	0.00000E+0	0.00000E+0	2.00000E+1	1.40000E+1	2.00008E+1	1.40004E+1
33	02/09/2022	15:24:59.118	0.00000E+0	0.00000E+0	6.00000E+1	0.00000E+0	0.00000E+0	0.00000E+0	2.00000E+1	1.40000E+1	1.99994E+1	1.40012E+1
34	02/09/2022	15:25:00.660	0.00000E+0	0.00000E+0	6.00000E+1	0.00000E+0	0.00000E+0	0.00000E+0	2.00000E+1	1.40000E+1	1.99991E+1	1.39984E+1
35	02/09/2022	15:25:02.055	0.00000E+0	0.00000E+0	6.00000E+1	0.00000E+0	0.00000E+0	0.00000E+0	2.00000E+1	1.40000E+1	2.00010E+1	1.40018E+1
36	02/09/2022	15:25:03.563	0.00000E+0	0.00000E+0	6.00000E+1	0.00000E+0	0.00000E+0	0.00000E+0	2.00000E+1	1.40000E+1	1.99997E+1	1.39994E+1
37	02/09/2022	15:25:04.999	0.00000E+0	0.00000E+0	6.00000E+1	0.00000E+0	0.00000E+0	0.00000E+0	2.00000E+1	1.40000E+1	1.99965E+1	1.40007E+1
38	02/09/2022	15:25:06.383	0.00000E+0	0.00000E+0	6.00000E+1	0.00000E+0	0.00000E+0	0.00000E+0	2.00000E+1	1.40000E+1	2.00012E+1	1.40027E+1
39	02/09/2022	15:25:07.922	0.00000E+0	0.00000E+0	6.00000E+1	0.00000E+0	0.00000E+0	0.00000E+0	2.00000E+1	1.40000E+1	2.00000E+1	1.39998E+1
40	02/09/2022	15:25:09.309	0.00000E+0	0.00000E+0	6.00000E+1	0.00000E+0	0.00000E+0	0.00000E+0	2.00000E+1	1.40000E+1	1.99974E+1	1.40002E+1
41	02/09/2022	15:25:10.747	0.00000E+0	0.00000E+0	6.00000E+1	0.00000E+0	0.00000E+0	0.00000E+0	2.00000E+1	1.40000E+1	1.99998E+1	1.40002E+1
42	02/09/2022	15:25:12.277	0.00000E+0	0.00000E+0	6.00000E+1	0.00000E+0	0.00000E+0	0.00000E+0	2.00000E+1	1.40000E+1	2.00012E+1	1.39993E+1
43	02/09/2022	15:25:13.673	0.00000E+0	0.00000E+0	6.00000E+1	0.00000E+0	0.00000E+0	0.00000E+0	2.00000E+1	1.40000E+1	1.99992E+1	1.40017E+1
44	02/09/2022	15:25:15.150	0.00000E+0	0.00000E+0	6.00000E+1	0.00000E+0	0.00000E+0	0.00000E+0	2.00000E+1	1.40000E+1	2.00001E+1	1.39973E+1
45	02/09/2022	15:25:16.543	0.00000E+0	0.00000E+0	6.00000E+1	0.00000E+0	0.00000E+0	0.00000E+0	2.00000E+1	1.40000E+1	1.99998E+1	1.39985E+1
46	02/09/2022	15:25:17.928	0.00000E+0	0.00000E+0	6.00000E+1	0.00000E+0	0.00000E+0	0.00000E+0	2.00000E+1	1.40000E+1	2.00015E+1	1.40000E+1
47	02/09/2022	15:25:19.408	0.00000E+0	0.00000E+0	6.00000E+1	0.00000E+0	0.00000E+0	0.00000E+0	2.00000E+1	1.40000E+1	2.00023E+1	1.40030E+1
48	02/09/2022	15:25:20.800	0.00000E+0	0.00000E+0	6.00000E+1	0.00000E+0	0.00000E+0	0.00000E+0	2.00000E+1	1.40000E+1	2.00040E+1	1.40002E+1
49	02/09/2022	15:25:22.241	0.00000E+0	0.00000E+0	6.00000E+1	0.00000E+0	0.00000E+0	0.00000E+0	2.00000E+1	1.40000E+1	1.99991E+1	1.39986E+1
50	02/09/2022	15:25:23.640	0.00000E+0	0.00000E+0	6.00000E+1	0.00000E+0	0.00000E+0	0.00000E+0	2.00000E+1	1.40000E+1	2.00003E+1	1.39989E+1
51	02/09/2022	15:25:25.032	0.00000E+0	0.00000E+0	6.00000E+1	0.00000E+0	0.00000E+0	0.00000E+0	2.00000E+1	1.40000E+1	2.00035E+1	1.40009E+1
52	02/09/2022	15:25:26.492	0.00000E+0	0.00000E+0	6.00000E+1	0.00000E+0	0.00000E+0	0.00000E+0	2.00000E+1	1.40000E+1	1.99994E+1	1.40017E+1
53	02/09/2022	15:25:27.888	0.00000E+0	0.00000E+0	6.00000E+1	0.00000E+0	0.00000E+0	0.00000E+0	2.00000E+1	1.40000E+1	1.99985E+1	1.40014E+1
54	02/09/2022	15:25:29.275	0.00000E+0	0.00000E+0	6.00000E+1	0.00000E+0	0.00000E+0	0.00000E+0	2.00000E+1	1.40000E+1	1.99995E+1	1.39999E+1
55	02/09/2022	15:25:30.862	0.00000E+0	0.00000E+0	6.00000E+1	0.00000E+0	0.00000E+0	0.00000E+0	2.00000E+1	1.40000E+1	2.00027E+1	1.39999E+1
56	02/09/2022	15:25:32.244	0.00000E+0	0.00000E+0	6.00000E+1	0.00000E+0	0.00000E+0	0.00000E+0	2.00000E+1	1.40000E+1	2.00016E+1	1.39995E+1
57	02/09/2022	15:25:33.737	0.00000E+0	0.00000E+0	6.00000E+1	0.00000E+0	0.00000E+0	0.00000E+0	2.00000E+1	1.40000E+1	2.00010E+1	1.40013E+1
58	02/09/2022	15:25:35.125	0.00000E+0	0.00000E+0	6.00000E+1	0.00000E+0	0.00000E+0	0.00000E+0	2.00000E+1	1.40000E+1	1.99994E+1	1.39995E+1
59	02/09/2022	15:25:36.513	0.00000E+0	0.00000E+0	6.00000E+1	0.00000E+0	0.00000E+0	0.00000E+0	2.00000E+1	1.40000E+1	2.00021E+1	1.40002E+1
60	02/09/2022	15:25:37.987	0.00000E+0	0.00000E+0	6.00000E+1	0.00000E+0	0.00000E+0	0.00000E+0	2.00000E+1	1.40000E+1	2.00001E+1	1.40031E+1
61	02/09/2022	15:25:39.388	0.00000E+0	0.00000E+0	6.00000E+1	0.00000E+0	0.00000E+0	0.00000E+0	2.00000E+1	1.40000E+1	2.00007E+1	1.39976E+1
62	02/09/2022	15:25:40.828	0.00000E+0	0.00000E+0	6.00000E+1	0.00000E+0	0.00000E+0	0.00000E+0	2.00000E+1	1.40000E+1	2.00003E+1	1.39997E+1
63	02/09/2022	15:25:42.349	0.00000E+0	0.00000E+0	6.00000E+1	0.00000E+0	0.00000E+0	0.00000E+0	2.00000E+1	1.40000E+1	1.99993E+1	1.40002E+1
64	02/09/2022	15:25:43.732	0.00000E+0	0.00000E+0	6.00000E+1	0.00000E+0	0.00000E+0	0.00000E+0	2.00000E+1	1.40000E+1	1.99979E+1	1.39996E+1
65	02/09/2022	15:25:45.151	0.00000E+0	0.00000E+0	6.00000E+1	0.00000E+0	0.00000E+0	0.00000E+0	2.00000E+1	1.40000E+1	2.00001E+1	1.40005E+1
66	02/09/2022	15:25:46.558	0.00000E+0	0.00000E+0	6.00000E+1	0.00000E+0	0.00000E+0	0.00000E+0	2.00000E+1	1.40000E+1	2.00038E+1	1.39981E+1
67	02/09/2022	15:25:47.945	0.00000E+0	0.00000E+0	6.00000E+1	0.00000E+0	0.00000E+0	0.00000E+0	2.00000E+1	1.40000E+1	1.99992E+1	1.40007E+1
68	02/09/2022	15:25:49.443	0.00000E+0	0.00000E+0	6.00000E+1	0.00000E+0	0.00000E+0	0.00000E+0	2.00000E+1	1.40000E+1	1.99985E+1	1.40017E+1
69	02/09/2022	15:25:50.826	0.00000E+0	0.00000E+0	6.00000E+1	0.00000E+0	0.00000E+0	0.00000E+0	2.00000E+1	1.40000E+1	1.99988E+1	1.39995E+1
70	02/09/2022	15:25:52.296	0.00000E+0	0.00000E+0	6.00000E+1	0.00000E+0	0.00000E+0	0.00000E+0	2.00000E+1	1.40000E+1	1.99962E+1	1.40017E+1
71	02/09/2022	15:25:53.701	0.00000E+0	0.00000E+0	6.00000E+1	0.00000E+0	0.00000E+0	0.00000E+0	2.00000E+1	1.40000E+1	1.99994E+1	1.39994E+1
72	02/09/2022	15:25:55.081	0.00000E+0	0.00000E+0	6.00000E+1	0.00000E+0	0.00000E+0	0.00000E+0	2.00000E+1	1.40000E+1	1.99990E+1	1.40028E+1
73	02/09/2022	15:25:56.543	0.00000E+0	0.00000E+0	6.00000E+1	0.00000E+0	0.00000E+0	0.00000E+0	2.00000E+1	1.40000E+1	1.99983E+1	1.40013E+1
74	02/09/2022	15:25:57.933	0.00000E+0	0.00000E+0	6.00000E+1	0.00000E+0	0.00000E+0	0.00000E+0	2.00000E+1	1.40000E+1	2.00022E+1	1.39983E+1
75	02/09/2022	15:25:59.376	0.00000E+0	0.00000E+0	6.00000E+1	0.00000E+0	0.00000E+0	0.00000E+0	2.00000E+1	1.40000E+1	1.99996E+1	1.39991E+1
76	02/09/2022	15:26:00.861	0.00000E+0	0.00000E+0	6.00000E+1	0.00000E+0	0.00000E+0	0.00000E+0	2.00000E+1	1.40000E+1	1.99995E+1	1.40014E+1
77	02/09/2022	15:26:02.244	0.00000E+0	0.00000E+0	6.00000E+1	0.00000E+0	0.00000E+0	0.00000E+0	2.00000E+1	1.40000E+1	2.00012E+1	1.40005E+1
78	02/09/2022	15:26:03.778	0.00000E+0	0.00000E+0	6.00000E+1	0.00000E+0	0.00000E+0	0.00000E+0	2.00000E+1	1.40000E+1	1.99985E+1	1.39985E+1
79	02/09/2022	15:26:05.161	0.00000E+0	0.00000E+0	6.00000E+1	0.00000E+0	0.00000E+0	0.00000E+0	2.00000E+1	1.40000E+1	2.00015E+1	1.39995E+1
80	02/09/2022	15:26:06.538	0.00000E+0	0.00000E+0	6.00000E+1	0.00000E+0	0.00000E+0	0.00000E+0	2.00000E+1	1.40000E+1	2.00000E+1	1.40009E+1
81	02/09/2022	15:26:08.058	0.00000E+0	0.00000E+0	6.00000E+1	0.00000E+0	0.00000E+0	0.00000E+0	2.00000E+1	1.40000E+1	2.00000E+1	1.40002E+1
82	02/09/2022	15:26:09.449	0.00000E+0	0.00000E+0	6.00000E+1	0.00000E+0	0.00000E+0	0.00000E+0	2.00000E+1	1.40000E+1	2.00004E+1	1.39994E+1
83	02/09/2022	15:26:10.835	0.00000E+0	0.00000E+0	6.00000E+1	0.00000E+0	0.00000E+0	0.00000E+0	2.00000E+1	1.40000E+1	1.99981E+1	1.39979E+1
84	02/09/2022	15:26:12.328	0.00000E+0	0.00000E+0	6.00000E+1	0.00000E+0	0.00000E+0	0.00000E+0	2.00000E+1	1.40000E+1	2.00004E+1	1.40024E+1
85	02/09/2022	15:26:13.722	0.00000E+0	0.00000E+0	6.00000E+1	0.00000E+0	0.00000E+0	0.00000E+0	2.00000E+1	1.40000E+1	2.00011E+1	1.40005E+1
86	02/09/2022	15:26:15.184	0.00000E+0	0.00000E+0	6.00000E+1	0.00000E+0	0.00000E+0	0.00000E+0	2.00000E+1	1.40000E+1	2.00005E+1	1.40001E+1
87	02/09/2022	15:26:16.585	0.00000E+0	0.00000E+0	6.00000E+1	0.00000E+0	0.00000E+0	0.00000E+0	2.00000E+1	1.40000E+1	1.99993E+1	1.39992E+1
88	02/09/2022	15:26:17.980	0.00000E+0	0.00000E+0	6.00000E+1	0.00000E+0	0.00000E+0	0.00000E+0	2.00000E+1	1.40000E+1	2.00011E+1	1.39985E+1
89	02/09/2022	15:26:19.469	0.00000E+0	0.00000E+0	6.00000E+1	0.00000E+0	0.00000E+0	0.00000E+0	2.00000E+1	1.40000E+1	1.99999E+1	1.39972E+1
90	02/09/2022	15:26:20.867	0.00000E+0	0.00000E+0	6.00000E+1	0.00000E+0	0.00000E+0	0.00000E+0	2.00000E+1	1.40000E+1	1.99993E+1	1.39994E+1
91	02/09/2022	15:26:22.310	0.00000E+0	0.00000E+0	6.00000E+1	0.00000E+0	0.00000E+0	0.00000E+0	2.00000E+1	1.40000E+1	1.99991E+1	1.40002E+1
92	02/09/2022	15:26:23.784	0.00000E+0	0.00000E+0	6.00000E+1	0.00000E+0	0.00000E+0	0.00000E+0	2.00000E+1	1.40000E+1	2.00029E+1	1.39990E+1
93	02/09/2022	15:26:25.165	0.00000E+0	0.00000E+0	6.00000E+1	0.00000E+0	0.00000E+0	0.00000E+0	2.00000E+1	1.40000E+1	1.99991E+1	1.39991E+1
94	02/09/2022	15:26:26.690	0.00000E+0	0.00000E+0	6.00000E+1	0.00000E+0	0.00000E+0	0.00000E+0	2.00000E+1	1.40000E+1	1.99993E+1	1.39995E+1
95	02/09/2022	15:26:28.077	0.00000E+0	0.00000E+0	6.00000E+1	0.00000E+0	0.00000E+0	0.00000E+0	2.00000E+1	1.40000E+1	2.00017E+1	1.39999E+1
96	02/09/2022	15:26:29.480	0.00000E+0	0.00000E+0	6.00000E+1	0.00000E+0	0.00000E+0	0.00000E+0	2.00000E+1	1.40000E+1	1.99993E+1	1.40020E+1
97	02/09/2022	15:26:30.995	0.00000E+0	0.00000E+0	6.00000E+1	0.00000E+0	0.00000E+0	0.00000E+0	2.00000E+1	1.40000E+1	1.99996E+1	1.40004E+1
98	02/09/2022	15:26:32.390	0.00000E+0	0.00000E+0	6.00000E+1	0.00000E+0	0.00000E+0	0.00000E+0	2.00000E+1	1.40000E+1	1.99996E+1	1.39976E+1
99	02/09/2022	15:26:33.869	0.00000E+0	0.00000E+0	6.00000E+1	0.00000E+0	0.00000E+0	0.00000E+0	2.00000E+1	1.40000E+1	2.00016E+1	1.40009E+1
100	02/09/2022	15:26:35.254	0.00000E+0	0.00000E+0	6.00000E+1	0.00000E+0	0.00000E+0	0.00000E+0	2.00000E+1	1.40000E+1	1.99984E+1	1.39998E+1
101	02/09/2022	15:26:36.634	0.00000E+0	0.00000E+0	6.00000E+1	0.00000E+0	0.00000E+0	0.00000E+0	2.00000E+1	1.40000E+1	2.00018E+1	1.40004E+1
102	02/09/2022	15:26:38.119	0.00000E+0	0.00000E+0	6.00000E+1	0.00000E+0	0.00000E+0	0.00000E+0	2.00000E+1	1.40000E+1	1.99987E+1	1.39998E+1
103	02/09/2022	15:26:39.513	0.00000E+0	0.00000E+0	6.00000E+1	0.00000E+0	0.00000E+0	0.00000E+0	2.00000E+1	1.40000E+1	2.00010E+1	1.40011E+1
104	02/09/2022	15:26:40.911	0.00000E+0	0.00000E+0	6.00000E+1	0.00000E+0	0.00000E+0	0.00000E+0	2.00000E+1	1.40000E+1	1.99996E+1	1.40020E+1
105	02/09/2022	15:26:42.311	0.00000E+0	0.00000E+0	6.00000E+1	0.00000E+0	0.00000E+0	0.00000E+0	2.00000E+1	1.40000E+1	2.00031E+1	1.40015E+1
106	02/09/2022	15:26:43.714	0.00000E+0	0.00000E+0	6.00000E+1	0.00000E+0	0.00000E+0	0.00000E+0	2.00000E+1	1.40000E+1	2.00001E+1	1.40040E+1
107	02/09/2022	15:26:45.227	0.00000E+0	0.00000E+0	6.00000E+1	0.00000E+0	0.00000E+0	0.00000E+0	2.00000E+1	1.40000E+1	1.99977E+1	1.40006E+1
108	02/09/2022	15:26:46.612	0.00000E+0	0.00000E+0	6.00000E+1	0.00000E+0	0.00000E+0	0.00000E+0	2.00000E+1	1.40000E+1	1.99983E+1	1.39995E+1
109	02/09/2022	15:26:48.102	0.00000E+0	0.00000E+0	6.00000E+1	0.00000E+0	0.00000E+0	0.00000E+0	2.00000E+1	1.40000E+1	1.99988E+1	1.39995E+1
110	02/09/2022	15:26:49.615	0.00000E+0	0.00000E+0	6.00000E+1	0.00000E+0	0.00000E+0	0.00000E+0	2.00000E+1	1.40000E+1	2.00010E+1	1.40003E+1
111	02/09/2022	15:26:51.011	0.00000E+0	0.00000E+0	6.00000E+1	0.00000E+0	0.00000E+0	0.00000E+0	2.00000E+1	1.40000E+1	2.00012E+1	1.39994E+1
112	02/09/2022	15:26:52.452	0.00000E+0	0.00000E+0	6.00000E+1	0.00000E+0	0.00000E+0	0.00000E+0	2.00000E+1	1.40000E+1	1.99989E+1	1.39983E+1
113	02/09/2022	15:26:53.903	0.00000E+0	0.00000E+0	6.00000E+1	0.00000E+0	0.00000E+0	0.00000E+0	2.00000E+1	1.40000E+1	2.00035E+1	1.40008E+1
114	02/09/2022	15:26:55.285	0.00000E+0	0.00000E+0	6.00000E+1	0.00000E+0	0.00000E+0	0.00000E+0	2.00000E+1	1.40000E+1	2.00017E+1	1.39985E+1
115	02/09/2022	15:26:56.786	0.00000E+0	0.00000E+0	6.00000E+1	0.00000E+0	0.00000E+0	0.00000E+0	2.00000E+1	1.40000E+1	2.00008E+1	1.40002E+1
116	02/09/2022	15:26:58.164	0.00000E+0	0.00000E+0	6.00000E+1	0.00000E+0	0.00000E+0	0.00000E+0	2.00000E+1	1.40000E+1	1.99970E+1	1.39994E+1
117	02/09/2022	15:26:59.622	0.00000E+0	0.00000E+0	6.00000E+1	0.00000E+0	0.00000E+0	0.00000E+0	2.00000E+1	1.40000E+1	2.00004E+1	1.40008E+1
118	02/09/2022	15:27:01.126	0.00000E+0	0.00000E+0	6.00000E+1	0.00000E+0	0.00000E+0	0.00000E+0	2.00000E+1	1.40000E+1	2.00005E+1	1.40024E+1
119	02/09/2022	15:27:02.512	0.00000E+0	0.00000E+0	6.00000E+1	0.00000E+0	0.00000E+0	0.00000E+0	2.00000E+1	1.40000E+1	2.00016E+1	1.39975E+1
120	02/09/2022	15:27:03.994	0.00000E+0	0.00000E+0	6.00000E+1	0.00000E+0	0.00000E+0	0.00000E+0	2.00000E+1	1.40000E+1	2.00018E+1	1.40003E+1
121	02/09/2022	15:27:05.388	0.00000E+0	0.00000E+0	6.00000E+1	0.00000E+0	0.00000E+0	0.00000E+0	2.00000E+1	1.40000E+1	2.00009E+1	1.40016E+1
122	02/09/2022	15:27:06.780	0.00000E+0	0.00000E+0	6.00000E+1	0.00000E+0	0.00000E+0	0.00000E+0	2.00000E+1	1.40000E+1	1.99991E+1	1.39987E+1
123	02/09/2022	15:27:08.229	0.00000E+0	0.00000E+0	6.00000E+1	0.00000E+0	0.00000E+0	0.00000E+0	2.00000E+1	1.40000E+1	1.99971E+1	1.39988E+1
124	02/09/2022	15:27:09.602	0.00000E+0	0.00000E+0	6.00000E+1	0.00000E+0	0.00000E+0	0.00000E+0	2.00000E+1	1.40000E+1	1.99983E+1	1.39988E+1
125	02/09/2022	15:27:11.043	0.00000E+0	0.00000E+0	6.00000E+1	0.00000E+0	0.00000E+0	0.00000E+0	2.00000E+1	1.40000E+1	2.00021E+1	1.40015E+1
126	02/09/2022	15:27:12.427	0.00000E+0	0.00000E+0	6.00000E+1	0.00000E+0	0.00000E+0	0.00000E+0	2.00000E+1	1.40000E+1	1.99973E+1	1.39991E+1
127	02/09/2022	15:27:13.813	0.00000E+0	0.00000E+0	6.00000E+1	0.00000E+0	0.00000E+0	0.00000E+0	2.00000E+1	1.40000E+1	1.99988E+1	1.40000E+1
128	02/09/2022	15:27:15.280	0.00000E+0	0.00000E+0	6.00000E+1	0.00000E+0	0.00000E+0	0.00000E+0	2.00000E+1	1.40000E+1	1.99986E+1	1.40007E+1
129	02/09/2022	15:27:16.674	0.00000E+0	0.00000E+0	6.00000E+1	0.00000E+0	0.00000E+0	0.00000E+0	2.00000E+1	1.40000E+1	1.99991E+1	1.40003E+1
130	02/09/2022	15:27:18.080	0.00000E+0	0.00000E+0	6.00000E+1	0.00000E+0	0.00000E+0	0.00000E+0	2.00000E+1	1.40000E+1	1.99994E+1	1.40006E+1
131	02/09/2022	15:27:19.592	0.00000E+0	0.00000E+0	6.00000E+1	0.00000E+0	0.00000E+0	0.00000E+0	2.00000E+1	1.40000E+1	2.00007E+1	1.40002E+1
132	02/09/2022	15:27:20.964	0.00000E+0	0.00000E+0	6.00000E+1	0.00000E+0	0.00000E+0	0.00000E+0	2.00000E+1	1.40000E+1	1.99993E+1	1.39975E+1
133	02/09/2022	15:27:22.464	0.00000E+0	0.00000E+0	6.00000E+1	0.00000E+0	0.00000E+0	0.00000E+0	2.00000E+1	1.40000E+1	1.99981E+1	1.39995E+1
134	02/09/2022	15:27:23.835	0.00000E+0	0.00000E+0	6.00000E+1	0.00000E+0	0.00000E+0	0.00000E+0	2.00000E+1	1.40000E+1	1.99997E+1	1.39998E+1
135	02/09/2022	15:27:25.231	0.00000E+0	0.00000E+0	6.00000E+1	0.00000E+0	0.00000E+0	0.00000E+0	2.00000E+1	1.40000E+1	2.00003E+1	1.39999E+1
136	02/09/2022	15:27:26.700	0.00000E+0	0.00000E+0	6.00000E+1	0.00000E+0	0.00000E+0	0.00000E+0	2.00000E+1	1.40000E+1	2.00004E+1	1.40002E+1
137	02/09/2022	15:27:28.103	0.00000E+0	0.00000E+0	6.00000E+1	0.00000E+0	0.00000E+0	0.00000E+0	2.00000E+1	1.40000E+1	1.99988E+1	1.39996E+1
138	02/09/2022	15:27:29.532	0.00000E+0	0.00000E+0	6.00000E+1	0.00000E+0	0.00000E+0	0.00000E+0	2.00000E+1	1.40000E+1	2.00026E+1	1.39990E+1
139	02/09/2022	15:27:31.020	0.00000E+0	0.00000E+0	6.00000E+1	0.00000E+0	0.00000E+0	0.00000E+0	2.00000E+1	1.40000E+1	1.99999E+1	1.39999E+1
140	02/09/2022	15:27:32.402	0.00000E+0	0.00000E+0	6.00000E+1	0.00000E+0	0.00000E+0	0.00000E+0	2.00000E+1	1.40000E+1	1.99997E+1	1.39994E+1
141	02/09/2022	15:27:33.930	0.00000E+0	0.00000E+0	6.00000E+1	0.00000E+0	0.00000E+0	0.00000E+0	2.00000E+1	1.40000E+1	1.99978E+1	1.39999E+1
142	02/09/2022	15:27:35.315	0.00000E+0	0.00000E+0	6.00000E+1	0.00000E+0	0.00000E+0	0.00000E+0	2.00000E+1	1.40000E+1	2.00011E+1	1.40017E+1
143	02/09/2022	15:27:36.697	0.00000E+0	0.00000E+0	6.00000E+1	0.00000E+0	0.00000E+0	0.00000E+0	2.00000E+1	1.40000E+1	1.99982E+1	1.40010E+1
144	02/09/2022	15:27:38.190	0.00000E+0	0.00000E+0	6.00000E+1	0.00000E+0	0.00000E+0	0.00000E+0	2.00000E+1	1.40000E+1	1.99992E+1	1.39996E+1
145	02/09/2022	15:27:39.581	0.00000E+0	0.00000E+0	6.00000E+1	0.00000E+0	0.00000E+0	0.00000E+0	2.00000E+1	1.40000E+1	1.99998E+1	1.39977E+1
146	02/09/2022	15:27:41.063	0.00000E+0	0.00000E+0	6.00000E+1	0.00000E+0	0.00000E+0	0.00000E+0	2.00000E+1	1.40000E+1	2.00014E+1	1.40017E+1
147	02/09/2022	15:27:42.497	0.00000E+0	0.00000E+0	6.00000E+1	0.00000E+0	0.00000E+0	0.00000E+0	2.00000E+1	1.40000E+1	2.00003E+1	1.39998E+1
148	02/09/2022	15:27:43.892	0.00000E+0	0.00000E+0	6.00000E+1	0.00000E+0	0.00000E+0	0.00000E+0	2.00000E+1	1.40000E+1	1.99981E+1	1.39985E+1
149	02/09/2022	15:27:45.433	0.00000E+0	0.00000E+0	6.00000E+1	0.00000E+0	0.00000E+0	0.00000E+0	2.00000E+1	1.40000E+1	1.99979E+1	1.39992E+1
150	02/09/2022	15:27:46.810	0.00000E+0	0.00000E+0	6.00000E+1	0.00000E+0	0.00000E+0	0.00000E+0	2.00000E+1	1.40000E+1	1.99988E+1	1.40004E+1
151	02/09/2022	15:27:48.212	0.00000E+0	0.00000E+0	6.00000E+1	0.00000E+0	0.00000E+0	0.00000E+0	2.00000E+1	1.40000E+1	2.00017E+1	1.40004E+1
152	02/09/2022	15:27:49.708	0.00000E+0	0.00000E+0	6.00000E+1	0.00000E+0	0.00000E+0	0.00000E+0	2.00000E+1	1.40000E+1	1.99998E+1	1.40005E+1
153	02/09/2022	15:27:51.104	0.00000E+0	0.00000E+0	6.00000E+1	0.00000E+0	0.00000E+0	0.00000E+0	2.00000E+1	1.40000E+1	2.00050E+1	1.39996E+1
154	02/09/2022	15:27:52.672	0.00000E+0	0.00000E+0	6.00000E+1	0.00000E+0	0.00000E+0	0.00000E+0	2.00000E+1	1.40000E+1	1.99998E+1	1.40009E+1
155	02/09/2022	15:27:54.057	0.00000E+0	0.00000E+0	6.00000E+1	0.00000E+0	0.00000E+0	0.00000E+0	2.00000E+1	1.40000E+1	1.99996E+1	1.39987E+1
156	02/09/2022	15:27:55.446	0.00000E+0	0.00000E+0	6.00000E+1	0.00000E+0	0.00000E+0	0.00000E+0	2.00000E+1	1.40000E+1	1.99992E+1	1.40000E+1
157	02/09/2022	15:27:56.972	0.00000E+0	0.00000E+0	6.00000E+1	0.00000E+0	0.00000E+0	0.00000E+0	2.00000E+1	1.40000E+1	1.99979E+1	1.40009E+1
158	02/09/2022	15:27:58.354	0.00000E+0	0.00000E+0	6.00000E+1	0.00000E+0	0.00000E+0	0.00000E+0	2.00000E+1	1.40000E+1	2.00008E+1	1.39981E+1
159	02/09/2022	15:27:59.802	0.00000E+0	0.00000E+0	6.00000E+1	0.00000E+0	0.00000E+0	0.00000E+0	2.00000E+1	1.40000E+1	1.99993E+1	1.40008E+1
160	02/09/2022	15:28:01.151	0.00000E+0	0.00000E+0	6.00000E+1	0.00000E+0	0.00000E+0	0.00000E+0	2.00000E+1	1.40000E+1	1.99996E+1	1.40009E+1
161	02/09/2022	15:28:02.537	0.00000E+0	0.00000E+0	6.00000E+1	0.00000E+0	0.00000E+0	0.00000E+0	2.00000E+1	1.40000E+1	2.00007E+1	1.39991E+1
162	02/09/2022	15:28:04.101	0.00000E+0	0.00000E+0	6.00000E+1	0.00000E+0	0.00000E+0	0.00000E+0	2.00000E+1	1.40000E+1	1.99998E+1	1.39979E+1
163	02/09/2022	15:28:05.491	0.00000E+0	0.00000E+0	6.00000E+1	0.00000E+0	0.00000E+0	0.00000E+0	2.00000E+1	1.40000E+1	2.00000E+1	1.40002E+1
164	02/09/2022	15:28:06.938	0.00000E+0	0.00000E+0	6.00000E+1	0.00000E+0	0.00000E+0	0.00000E+0	2.00000E+1	1.40000E+1	1.99993E+1	1.40013E+1
165	02/09/2022	15:28:08.455	0.00000E+0	0.00000E+0	6.00000E+1	0.00000E+0	0.00000E+0	0.00000E+0	2.00000E+1	1.40000E+1	1.99989E+1	1.39992E+1
166	02/09/2022	15:28:09.832	0.00000E+0	0.00000E+0	6.00000E+1	0.00000E+0	0.00000E+0	0.00000E+0	2.00000E+1	1.40000E+1	2.00012E+1	1.39981E+1
167	02/09/2022	15:28:11.253	0.00000E+0	0.00000E+0	6.00000E+1	0.00000E+0	0.00000E+0	0.00000E+0	2.00000E+1	1.40000E+1	2.00009E+1	1.39962E+1
168	02/09/2022	15:28:12.698	0.00000E+0	0.00000E+0	6.00000E+1	0.00000E+0	0.00000E+0	0.00000E+0	2.00000E+1	1.40000E+1	1.99973E+1	1.39999E+1
169	02/09/2022	15:28:14.086	0.00000E+0	0.00000E+0	6.00000E+1	0.00000E+0	0.00000E+0	0.00000E+0	2.00000E+1	1.40000E+1	2.00007E+1	1.39971E+1
170	02/09/2022	15:28:15.617	0.00000E+0	0.00000E+0	6.00000E+1	0.00000E+0	0.00000E+0	0.00000E+0	2.00000E+1	1.40000E+1	1.99997E+1	1.40021E+1
171	02/09/2022	15:28:17.001	0.00000E+0	0.00000E+0	6.00000E+1	0.00000E+0	0.00000E+0	0.00000E+0	2.00000E+1	1.40000E+1	2.00000E+1	1.39994E+1
172	02/09/2022	15:28:18.432	0.00000E+0	0.00000E+0	6.00000E+1	0.00000E+0	0.00000E+0	0.00000E+0	2.00000E+1	1.40000E+1	1.99988E+1	1.40015E+1
173	02/09/2022	15:28:19.953	0.00000E+0	0.00000E+0	6.00000E+1	0.00000E+0	0.00000E+0	0.00000E+0	2.00000E+1	1.40000E+1	1.99987E+1	1.39999E+1
174	02/09/2022	15:28:21.343	0.00000E+0	0.00000E+0	6.00000E+1	0.00000E+0	0.00000E+0	0.00000E+0	2.00000E+1	1.40000E+1	1.99981E+1	1.40011E+1
175	02/09/2022	15:28:22.861	0.00000E+0	0.00000E+0	6.00000E+1	0.00000E+0	0.00000E+0	0.00000E+0	2.00000E+1	1.40000E+1	2.00014E+1	1.40007E+1
176	02/09/2022	15:28:24.246	0.00000E+0	0.00000E+0	6.00000E+1	0.00000E+0	0.00000E+0	0.00000E+0	2.00000E+1	1.40000E+1	1.99994E+1	1.39988E+1
177	02/09/2022	15:28:25.645	0.00000E+0	0.00000E+0	6.00000E+1	0.00000E+0	0.00000E+0	0.00000E+0	2.00000E+1	1.40000E+1	1.99998E+1	1.40009E+1
178	02/09/2022	15:28:27.098	0.00000E+0	0.00000E+0	6.00000E+1	0.00000E+0	0.00000E+0	0.00000E+0	2.00000E+1	1.40000E+1	1.99997E+1	1.39983E+1
179	02/09/2022	15:28:28.483	0.00000E+0	0.00000E+0	6.00000E+1	0.00000E+0	0.00000E+0	0.00000E+0	2.00000E+1	1.40000E+1	2.00002E+1	1.40002E+1
180	02/09/2022	15:28:29.914	0.00000E+0	0.00000E+0	6.00000E+1	0.00000E+0	0.00000E+0	0.00000E+0	2.00000E+1	1.40000E+1	1.99987E+1	1.40002E+1
181	02/09/2022	15:28:31.312	0.00000E+0	0.00000E+0	6.00000E+1	0.00000E+0	0.00000E+0	0.00000E+0	2.00000E+1	1.40000E+1	1.99990E+1	1.39988E+1
182	02/09/2022	15:28:32.699	0.00000E+0	0.00000E+0	6.00000E+1	0.00000E+0	0.00000E+0	0.00000E+0	2.00000E+1	1.40000E+1	1.99982E+1	1.40010E+1
183	02/09/2022	15:28:34.315	0.00000E+0	0.00000E+0	6.00000E+1	0.00000E+0	0.00000E+0	0.00000E+0	2.00000E+1	1.40000E+1	2.00029E+1	1.40010E+1
184	02/09/2022	15:28:35.781	0.00000E+0	0.00000E+0	6.00000E+1	0.00000E+0	0.00000E+0	0.00000E+0	2.00000E+1	1.40000E+1	1.99991E+1	1.40009E+1
185	02/09/2022	15:28:37.197	0.00000E+0	0.00000E+0	6.00000E+1	0.00000E+0	0.00000E+0	0.00000E+0	2.00000E+1	1.40000E+1	2.00000E+1	1.40008E+1
186	02/09/2022	15:28:38.689	0.00000E+0	0.00000E+0	6.00000E+1	0.00000E+0	0.00000E+0	0.00000E+0	2.00000E+1	1.40000E+1	1.99992E+1	1.39996E+1
187	02/09/2022	15:28:40.084	0.00000E+0	0.00000E+0	6.00000E+1	0.00000E+0	0.00000E+0	0.00000E+0	2.00000E+1	1.40000E+1	2.00011E+1	1.40005E+1
188	02/09/2022	15:28:41.616	0.00000E+0	0.00000E+0	6.00000E+1	0.00000E+0	0.00000E+0	0.00000E+0	2.00000E+1	1.40000E+1	1.99964E+1	1.39996E+1
189	02/09/2022	15:28:42.999	0.00000E+0	0.00000E+0	6.00000E+1	0.00000E+0	0.00000E+0	0.00000E+0	2.00000E+1	1.40000E+1	2.00000E+1	1.39997E+1
190	02/09/2022	15:28:44.402	0.00000E+0	0.00000E+0	6.00000E+1	0.00000E+0	0.00000E+0	0.00000E+0	2.00000E+1	1.40000E+1	2.00001E+1	1.39987E+1
191	02/09/2022	15:28:45.871	0.00000E+0	0.00000E+0	6.00000E+1	0.00000E+0	0.00000E+0	0.00000E+0	2.00000E+1	1.40000E+1	1.99998E+1	1.39979E+1
192	02/09/2022	15:28:47.258	0.00000E+0	0.00000E+0	6.00000E+1	0.00000E+0	0.00000E+0	0.00000E+0	2.00000E+1	1.40000E+1	2.00007E+1	1.39981E+1
193	02/09/2022	15:28:48.695	0.00000E+0	0.00000E+0	6.00000E+1	0.00000E+0	0.00000E+0	0.00000E+0	2.00000E+1	1.40000E+1	1.99996E+1	1.39997E+1
194	02/09/2022	15:28:50.175	0.00000E+0	0.00000E+0	6.00000E+1	0.00000E+0	0.00000E+0	0.00000E+0	2.00000E+1	1.40000E+1	1.99999E+1	1.39990E+1
195	02/09/2022	15:28:51.575	0.00000E+0	0.00000E+0	6.00000E+1	0.00000E+0	0.00000E+0	0.00000E+0	2.00000E+1	1.40000E+1	2.00016E+1	1.39984E+1
196	02/09/2022	15:28:53.074	0.00000E+0	0.00000E+0	6.00000E+1	0.00000E+0	0.00000E+0	0.00000E+0	2.00000E+1	1.40000E+1	1.99982E+1	1.40013E+1
197	02/09/2022	15:28:54.462	0.00000E+0	0.00000E+0	6.00000E+1	0.00000E+0	0.00000E+0	0.00000E+0	2.00000E+1	1.40000E+1	2.00000E+1	1.39989E+1
198	02/09/2022	15:28:55.838	0.00000E+0	0.00000E+0	6.00000E+1	0.00000E+0	0.00000E+0	0.00000E+0	2.00000E+1	1.40000E+1	2.00013E+1	1.40015E+1
199	02/09/2022	15:28:57.353	0.00000E+0	0.00000E+0	6.00000E+1	0.00000E+0	0.00000E+0	0.00000E+0	2.00000E+1	1.40000E+1	2.00015E+1	1.39987E+1
200	02/09/2022	15:28:58.747	0.00000E+0	0.00000E+0	6.00000E+1	0.00000E+0	0.00000E+0	0.00000E+0	2.00000E+1	1.40000E+1	1.99995E+1	1.40009E+1
201	02/09/2022	15:29:00.258	0.00000E+0	0.00000E+0	6.00000E+1	0.00000E+0	0.00000E+0	0.00000E+0	2.00000E+1	1.40000E+1	1.99974E+1	1.39980E+1
202	02/09/2022	15:29:01.693	0.00000E+0	0.00000E+0	6.00000E+1	0.00000E+0	0.00000E+0	0.00000E+0	2.00000E+1	1.40000E+1	2.00000E+1	1.40009E+1
203	02/09/2022	15:29:03.077	0.00000E+0	0.00000E+0	6.00000E+1	0.00000E+0	0.00000E+0	0.00000E+0	2.00000E+1	1.40000E+1	2.00006E+1	1.39999E+1
204	02/09/2022	15:29:04.557	0.00000E+0	0.00000E+0	6.00000E+1	0.00000E+0	0.00000E+0	0.00000E+0	2.00000E+1	1.40000E+1	1.99995E+1	1.40006E+1
205	02/09/2022	15:29:05.955	0.00000E+0	0.00000E+0	6.00000E+1	0.00000E+0	0.00000E+0	0.00000E+0	2.00000E+1	1.40000E+1	1.99994E+1	1.40002E+1
206	02/09/2022	15:29:07.351	0.00000E+0	0.00000E+0	6.00000E+1	0.00000E+0	0.00000E+0	0.00000E+0	2.00000E+1	1.40000E+1	2.00005E+1	1.40009E+1
207	02/09/2022	15:29:08.853	0.00000E+0	0.00000E+0	6.00000E+1	0.00000E+0	0.00000E+0	0.00000E+0	2.00000E+1	1.40000E+1	2.00017E+1	1.39999E+1
208	02/09/2022	15:29:10.243	0.00000E+0	0.00000E+0	6.00000E+1	0.00000E+0	0.00000E+0	0.00000E+0	2.00000E+1	1.40000E+1	1.99984E+1	1.40016E+1
209	02/09/2022	15:29:11.762	0.00000E+0	0.00000E+0	6.00000E+1	0.00000E+0	0.00000E+0	0.00000E+0	2.00000E+1	1.40000E+1	2.00015E+1	1.40007E+1
210	02/09/2022	15:29:13.142	0.00000E+0	0.00000E+0	6.00000E+1	0.00000E+0	0.00000E+0	0.00000E+0	2.00000E+1	1.40000E+1	1.99976E+1	1.40014E+1
211	02/09/2022	15:29:14.521	0.00000E+0	0.00000E+0	6.00000E+1	0.00000E+0	0.00000E+0	0.00000E+0	2.00000E+1	1.40000E+1	1.99989E+1	1.40004E+1
212	02/09/2022	15:29:16.036	0.00000E+0	0.00000E+0	6.00000E+1	0.00000E+0	0.00000E+0	0.00000E+0	2.00000E+1	1.40000E+1	1.99993E+1	1.39969E+1
213	02/09/2022	15:29:17.427	0.00000E+0	0.00000E+0	6.00000E+1	0.00000E+0	0.00000E+0	0.00000E+0	2.00000E+1	1.40000E+1	1.99995E+1	1.39991E+1
214	02/09/2022	15:29:18.873	0.00000E+0	0.00000E+0	6.00000E+1	0.00000E+0	0.00000E+0	0.00000E+0	2.00000E+1	1.40000E+1	1.99999E+1	1.39981E+1
215	02/09/2022	15:29:20.218	0.00000E+0	0.00000E+0	6.00000E+1	0.00000E+0	0.00000E+0	0.00000E+0	2.00000E+1	1.40000E+1	2.00021E+1	1.40011E+1
216	02/09/2022	15:29:21.591	0.00000E+0	0.00000E+0	6.00000E+1	0.00000E+0	0.00000E+0	0.00000E+0	2.00000E+1	1.40000E+1	2.00041E+1	1.40017E+1
217	02/09/2022	15:29:23.064	0.00000E+0	0.00000E+0	6.00000E+1	0.00000E+0	0.00000E+0	0.00000E+0	2.00000E+1	1.40000E+1	2.00014E+1	1.39982E+1
218	02/09/2022	15:29:24.456	0.00000E+0	0.00000E+0	6.00000E+1	0.00000E+0	0.00000E+0	0.00000E+0	2.00000E+1	1.40000E+1	2.00011E+1	1.40015E+1
219	02/09/2022	15:29:25.901	0.00000E+0	0.00000E+0	6.00000E+1	0.00000E+0	0.00000E+0	0.00000E+0	2.00000E+1	1.40000E+1	1.99962E+1	1.39990E+1
220	02/09/2022	15:29:27.383	0.00000E+0	0.00000E+0	6.00000E+1	0.00000E+0	0.00000E+0	0.00000E+0	2.00000E+1	1.40000E+1	2.00008E+1	1.39998E+1
221	02/09/2022	15:29:28.767	0.00000E+0	0.00000E+0	6.00000E+1	0.00000E+0	0.00000E+0	0.00000E+0	2.00000E+1	1.40000E+1	1.99996E+1	1.39989E+1
222	02/09/2022	15:29:30.173	0.00000E+0	0.00000E+0	6.00000E+1	0.00000E+0	0.00000E+0	0.00000E+0	2.00000E+1	1.40000E+1	1.99999E+1	1.39975E+1
223	02/09/2022	15:29:31.617	0.00000E+0	0.00000E+0	6.00000E+1	0.00000E+0	0.00000E+0	0.00000E+0	2.00000E+1	1.40000E+1	2.00008E+1	1.40003E+1
224	02/09/2022	15:29:32.994	0.00000E+0	0.00000E+0	6.00000E+1	0.00000E+0	0.00000E+0	0.00000E+0	2.00000E+1	1.40000E+1	2.00013E+1	1.40002E+1
225	02/09/2022	15:29:34.520	0.00000E+0	0.00000E+0	6.00000E+1	0.00000E+0	0.00000E+0	0.00000E+0	2.00000E+1	1.40000E+1	2.00016E+1	1.40009E+1
226	02/09/2022	15:29:35.906	0.00000E+0	0.00000E+0	6.00000E+1	0.00000E+0	0.00000E+0	0.00000E+0	2.00000E+1	1.40000E+1	1.99974E+1	1.40011E+1
227	02/09/2022	15:29:37.331	0.00000E+0	0.00000E+0	6.00000E+1	0.00000E+0	0.00000E+0	0.00000E+0	2.00000E+1	1.40000E+1	1.99975E+1	1.39992E+1
228	02/09/2022	15:29:38.822	0.00000E+0	0.00000E+0	6.00000E+1	0.00000E+0	0.00000E+0	0.00000E+0	2.00000E+1	1.40000E+1	1.99996E+1	1.39981E+1
229	02/09/2022	15:29:40.202	0.00000E+0	0.00000E+0	6.00000E+1	0.00000E+0	0.00000E+0	0.00000E+0	2.00000E+1	1.40000E+1	2.00002E+1	1.40012E+1
230	02/09/2022	15:29:41.721	0.00000E+0	0.00000E+0	6.00000E+1	0.00000E+0	0.00000E+0	0.00000E+0	2.00000E+1	1.40000E+1	2.00029E+1	1.40000E+1
231	02/09/2022	15:29:43.104	0.00000E+0	0.00000E+0	6.00000E+1	0.00000E+0	0.00000E+0	0.00000E+0	2.00000E+1	1.40000E+1	2.00024E+1	1.39994E+1
232	02/09/2022	15:29:44.492	0.00000E+0	0.00000E+0	6.00000E+1	0.00000E+0	0.00000E+0	0.00000E+0	2.00000E+1	1.40000E+1	2.00009E+1	1.40010E+1
233	02/09/2022	15:29:45.928	0.00000E+0	0.00000E+0	6.00000E+1	0.00000E+0	0.00000E+0	0.00000E+0	2.00000E+1	1.40000E+1	2.00000E+1	1.39987E+1
234	02/09/2022	15:29:47.320	0.00000E+0	0.00000E+0	6.00000E+1	0.00000E+0	0.00000E+0	0.00000E+0	2.00000E+1	1.40000E+1	1.99970E+1	1.40003E+1
235	02/09/2022	15:29:48.724	0.00000E+0	0.00000E+0	6.00000E+1	0.00000E+0	0.00000E+0	0.00000E+0	2.00000E+1	1.40000E+1	2.00017E+1	1.39999E+1
236	02/09/2022	15:29:50.059	0.00000E+0	0.00000E+0	6.00000E+1	0.00000E+0	0.00000E+0	0.00000E+0	2.00000E+1	1.40000E+1	1.99995E+1	1.39998E+1
237	02/09/2022	15:29:51.444	0.00000E+0	0.00000E+0	6.00000E+1	0.00000E+0	0.00000E+0	0.00000E+0	2.00000E+1	1.40000E+1	1.99997E+1	1.39972E+1
238	02/09/2022	15:29:52.985	0.00000E+0	0.00000E+0	6.00000E+1	0.00000E+0	0.00000E+0	0.00000E+0	2.00000E+1	1.40000E+1	1.99991E+1	1.39991E+1
239	02/09/2022	15:29:54.352	0.00000E+0	0.00000E+0	6.00000E+1	0.00000E+0	0.00000E+0	0.00000E+0	2.00000E+1	1.40000E+1	2.00014E+1	1.39995E+1
240	02/09/2022	15:29:55.735	0.00000E+0	0.00000E+0	6.00000E+1	0.00000E+0	0.00000E+0	0.00000E+0	2.00000E+1	1.40000E+1	2.00010E+1	1.40008E+1
241	02/09/2022	15:29:57.252	0.00000E+0	0.00000E+0	6.00000E+1	0.00000E+0	0.00000E+0	0.00000E+0	2.00000E+1	1.40000E+1	2.00007E+1	1.40007E+1
242	02/09/2022	15:29:58.634	0.00000E+0	0.00000E+0	6.00000E+1	0.00000E+0	0.00000E+0	0.00000E+0	2.00000E+1	1.40000E+1	1.99983E+1	1.39972E+1
243	02/09/2022	15:30:00.099	0.00000E+0	0.00000E+0	6.00000E+1	0.00000E+0	0.00000E+0	0.00000E+0	2.00000E+1	1.40000E+1	1.99993E+1	1.39978E+1
244	02/09/2022	15:30:01.530	0.00000E+0	0.00000E+0	6.00000E+1	0.00000E+0	0.00000E+0	0.00000E+0	2.00000E+1	1.40000E+1	2.00004E+1	1.40004E+1
245	02/09/2022	15:30:02.929	0.00000E+0	0.00000E+0	6.00000E+1	0.00000E+0	0.00000E+0	0.00000E+0	2.00000E+1	1.40000E+1	2.00000E+1	1.39981E+1
246	02/09/2022	15:30:04.436	0.00000E+0	0.00000E+0	6.00000E+1	0.00000E+0	0.00000E+0	0.00000E+0	2.00000E+1	1.40000E+1	2.00025E+1	1.39991E+1
247	02/09/2022	15:30:05.824	0.00000E+0	0.00000E+0	6.00000E+1	0.00000E+0	0.00000E+0	0.00000E+0	2.00000E+1	1.40000E+1	2.00006E+1	1.40005E+1
248	02/09/2022	15:30:07.257	0.00000E+0	0.00000E+0	6.00000E+1	0.00000E+0	0.00000E+0	0.00000E+0	2.00000E+1	1.40000E+1	1.99979E+1	1.39996E+1
249	02/09/2022	15:30:08.750	0.00000E+0	0.00000E+0	6.00000E+1	0.00000E+0	0.00000E+0	0.00000E+0	2.00000E+1	1.40000E+1	1.99992E+1	1.39996E+1
250	02/09/2022	15:30:10.130	0.00000E+0	0.00000E+0	6.00000E+1	0.00000E+0	0.00000E+0	0.00000E+0	2.00000E+1	1.40000E+1	1.99982E+1	1.39994E+1
251	02/09/2022	15:30:11.637	0.00000E+0	0.00000E+0	6.00000E+1	0.00000E+0	0.00000E+0	0.00000E+0	2.00000E+1	1.40000E+1	1.99987E+1	1.40008E+1
252	02/09/2022	15:30:13.023	0.00000E+0	0.00000E+0	6.00000E+1	0.00000E+0	0.00000E+0	0.00000E+0	2.00000E+1	1.40000E+1	2.00011E+1	1.39994E+1
253	02/09/2022	15:30:14.410	0.00000E+0	0.00000E+0	6.00000E+1	0.00000E+0	0.00000E+0	0.00000E+0	2.00000E+1	1.40000E+1	2.00019E+1	1.39981E+1
254	02/09/2022	15:30:15.868	0.00000E+0	0.00000E+0	6.00000E+1	0.00000E+0	0.00000E+0	0.00000E+0	2.00000E+1	1.40000E+1	1.99986E+1	1.40009E+1
255	02/09/2022	15:30:17.251	0.00000E+0	0.00000E+0	6.00000E+1	0.00000E+0	0.00000E+0	0.00000E+0	2.00000E+1	1.40000E+1	1.99996E+1	1.40005E+1
256	02/09/2022	15:30:18.736	0.00000E+0	0.00000E+0	6.00000E+1	0.00000E+0	0.00000E+0	0.00000E+0	2.00000E+1	1.40000E+1	1.99993E+1	1.39969E+1
257	02/09/2022	15:30:20.176	0.00000E+0	0.00000E+0	6.00000E+1	0.00000E+0	0.00000E+0	0.00000E+0	2.00000E+1	1.40000E+1	1.99993E+1	1.39995E+1
258	02/09/2022	15:30:21.564	0.00000E+0	0.00000E+0	6.00000E+1	0.00000E+0	0.00000E+0	0.00000E+0	2.00000E+1	1.40000E+1	2.00002E+1	1.40027E+1
259	02/09/2022	15:30:23.085	0.00000E+0	0.00000E+0	6.00000E+1	0.00000E+0	0.00000E+0	0.00000E+0	2.00000E+1	1.40000E+1	2.00000E+1	1.40029E+1
260	02/09/2022	15:30:24.478	0.00000E+0	0.00000E+0	6.00000E+1	0.00000E+0	0.00000E+0	0.00000E+0	2.00000E+1	1.40000E+1	1.99984E+1	1.40005E+1
261	02/09/2022	15:30:25.949	0.00000E+0	0.00000E+0	6.00000E+1	0.00000E+0	0.00000E+0	0.00000E+0	2.00000E+1	1.40000E+1	2.00006E+1	1.40007E+1
262	02/09/2022	15:30:27.450	0.00000E+0	0.00000E+0	6.00000E+1	0.00000E+0	0.00000E+0	0.00000E+0	2.00000E+1	1.40000E+1	2.00014E+1	1.40007E+1
263	02/09/2022	15:30:28.847	0.00000E+0	0.00000E+0	6.00000E+1	0.00000E+0	0.00000E+0	0.00000E+0	2.00000E+1	1.40000E+1	1.99993E+1	1.39995E+1
264	02/09/2022	15:30:30.294	0.00000E+0	0.00000E+0	6.00000E+1	0.00000E+0	0.00000E+0	0.00000E+0	2.00000E+1	1.40000E+1	2.00010E+1	1.40013E+1
265	02/09/2022	15:30:31.684	0.00000E+0	0.00000E+0	6.00000E+1	0.00000E+0	0.00000E+0	0.00000E+0	2.00000E+1	1.40000E+1	2.00001E+1	1.40034E+1
266	02/09/2022	15:30:33.076	0.00000E+0	0.00000E+0	6.00000E+1	0.00000E+0	0.00000E+0	0.00000E+0	2.00000E+1	1.40000E+1	2.00010E+1	1.39985E+1
267	02/09/2022	15:30:34.678	0.00000E+0	0.00000E+0	6.00000E+1	0.00000E+0	0.00000E+0	0.00000E+0	2.00000E+1	1.40000E+1	2.00003E+1	1.40000E+1
268	02/09/2022	15:30:36.064	0.00000E+0	0.00000E+0	6.00000E+1	0.00000E+0	0.00000E+0	0.00000E+0	2.00000E+1	1.40000E+1	2.00014E+1	1.39993E+1
269	02/09/2022	15:30:37.512	0.00000E+0	0.00000E+0	6.00000E+1	0.00000E+0	0.00000E+0	0.00000E+0	2.00000E+1	1.40000E+1	2.00012E+1	1.39981E+1
270	02/09/2022	15:30:38.909	0.00000E+0	0.00000E+0	6.00000E+1	0.00000E+0	0.00000E+0	0.00000E+0	2.00000E+1	1.40000E+1	2.00013E+1	1.40016E+1
271	02/09/2022	15:30:40.301	0.00000E+0	0.00000E+0	6.00000E+1	0.00000E+0	0.00000E+0	0.00000E+0	2.00000E+1	1.40000E+1	2.00002E+1	1.39995E+1
272	02/09/2022	15:30:41.798	0.00000E+0	0.00000E+0	6.00000E+1	0.00000E+0	0.00000E+0	0.00000E+0	2.00000E+1	1.40000E+1	2.00010E+1	1.39997E+1
273	02/09/2022	15:30:43.181	0.00000E+0	0.00000E+0	6.00000E+1	0.00000E+0	0.00000E+0	0.00000E+0	2.00000E+1	1.40000E+1	2.00004E+1	1.40001E+1
274	02/09/2022	15:30:44.629	0.00000E+0	0.00000E+0	6.00000E+1	0.00000E+0	0.00000E+0	0.00000E+0	2.00000E+1	1.40000E+1	2.00016E+1	1.40014E+1
275	02/09/2022	15:30:46.119	0.00000E+0	0.00000E+0	6.00000E+1	0.00000E+0	0.00000E+0	0.00000E+0	2.00000E+1	1.40000E+1	2.00010E+1	1.40015E+1
276	02/09/2022	15:30:47.503	0.00000E+0	0.00000E+0	6.00000E+1	0.00000E+0	0.00000E+0	0.00000E+0	2.00000E+1	1.40000E+1	1.99985E+1	1.39996E+1
277	02/09/2022	15:30:49.006	0.00000E+0	0.00000E+0	6.00000E+1	0.00000E+0	0.00000E+0	0.00000E+0	2.00000E+1	1.40000E+1	1.99997E+1	1.39976E+1
278	02/09/2022	15:30:50.380	0.00000E+0	0.00000E+0	6.00000E+1	0.00000E+0	0.00000E+0	0.00000E+0	2.00000E+1	1.40000E+1	2.00004E+1	1.39990E+1
279	02/09/2022	15:30:51.770	0.00000E+0	0.00000E+0	6.00000E+1	0.00000E+0	0.00000E+0	0.00000E+0	2.00000E+1	1.40000E+1	1.99994E+1	1.39996E+1
280	02/09/2022	15:30:53.241	0.00000E+0	0.00000E+0	6.00000E+1	0.00000E+0	0.00000E+0	0.00000E+0	2.00000E+1	1.40000E+1	1.99965E+1	1.39966E+1
281	02/09/2022	15:30:54.631	0.00000E+0	0.00000E+0	6.00000E+1	0.00000E+0	0.00000E+0	0.00000E+0	2.00000E+1	1.40000E+1	2.00010E+1	1.40006E+1
282	02/09/2022	15:30:56.048	0.00000E+0	0.00000E+0	6.00000E+1	0.00000E+0	0.00000E+0	0.00000E+0	2.00000E+1	1.40000E+1	2.00016E+1	1.40007E+1
283	02/09/2022	15:30:57.551	0.00000E+0	0.00000E+0	6.00000E+1	0.00000E+0	0.00000E+0	0.00000E+0	2.00000E+1	1.40000E+1	1.99985E+1	1.40006E+1
284	02/09/2022	15:30:58.937	0.00000E+0	0.00000E+0	6.00000E+1	0.00000E+0	0.00000E+0	0.00000E+0	2.00000E+1	1.40000E+1	1.99985E+1	1.40001E+1
285	02/09/2022	15:31:00.411	0.00000E+0	0.00000E+0	6.00000E+1	0.00000E+0	0.00000E+0	0.00000E+0	2.00000E+1	1.40000E+1	2.00008E+1	1.39973E+1
286	02/09/2022	15:31:01.792	0.00000E+0	0.00000E+0	6.00000E+1	0.00000E+0	0.00000E+0	0.00000E+0	2.00000E+1	1.40000E+1	1.99986E+1	1.40021E+1
287	02/09/2022	15:31:03.169	0.00000E+0	0.00000E+0	6.00000E+1	0.00000E+0	0.00000E+0	0.00000E+0	2.00000E+1	1.40000E+1	1.99997E+1	1.39982E+1
288	02/09/2022	15:31:04.688	0.00000E+0	0.00000E+0	6.00000E+1	0.00000E+0	0.00000E+0	0.00000E+0	2.00000E+1	1.40000E+1	1.99979E+1	1.40012E+1
289	02/09/2022	15:31:06.075	0.00000E+0	0.00000E+0	6.00000E+1	0.00000E+0	0.00000E+0	0.00000E+0	2.00000E+1	1.40000E+1	1.99997E+1	1.39982E+1
290	02/09/2022	15:31:07.451	0.00000E+0	0.00000E+0	6.00000E+1	0.00000E+0	0.00000E+0	0.00000E+0	2.00000E+1	1.40000E+1	2.00006E+1	1.40002E+1
291	02/09/2022	15:31:08.833	0.00000E+0	0.00000E+0	6.00000E+1	0.00000E+0	0.00000E+0	0.00000E+0	2.00000E+1	1.40000E+1	1.99987E+1	1.39975E+1
292	02/09/2022	15:31:10.235	0.00000E+0	0.00000E+0	6.00000E+1	0.00000E+0	0.00000E+0	0.00000E+0	2.00000E+1	1.40000E+1	2.00013E+1	1.40002E+1
293	02/09/2022	15:31:11.769	0.00000E+0	0.00000E+0	6.00000E+1	0.00000E+0	0.00000E+0	0.00000E+0	2.00000E+1	1.40000E+1	1.99982E+1	1.40000E+1
294	02/09/2022	15:31:13.207	0.00000E+0	0.00000E+0	6.00000E+1	0.00000E+0	0.00000E+0	0.00000E+0	2.00000E+1	1.40000E+1	1.99985E+1	1.39984E+1
295	02/09/2022	15:31:14.640	0.00000E+0	0.00000E+0	6.00000E+1	0.00000E+0	0.00000E+0	0.00000E+0	2.00000E+1	1.40000E+1	2.00003E+1	1.39984E+1
296	02/09/2022	15:31:16.129	0.00000E+0	0.00000E+0	6.00000E+1	0.00000E+0	0.00000E+0	0.00000E+0	2.00000E+1	1.40000E+1	2.00001E+1	1.40007E+1
297	02/09/2022	15:31:17.514	0.00000E+0	0.00000E+0	6.00000E+1	0.00000E+0	0.00000E+0	0.00000E+0	2.00000E+1	1.40000E+1	1.99990E+1	1.40011E+1
298	02/09/2022	15:31:19.023	0.00000E+0	0.00000E+0	6.00000E+1	0.00000E+0	0.00000E+0	0.00000E+0	2.00000E+1	1.40000E+1	1.99983E+1	1.40017E+1
299	02/09/2022	15:31:20.400	0.00000E+0	0.00000E+0	6.00000E+1	0.00000E+0	0.00000E+0	0.00000E+0	2.00000E+1	1.40000E+1	2.00008E+1	1.40025E+1
300	02/09/2022	15:31:21.829	0.00000E+0	0.00000E+0	6.00000E+1	0.00000E+0	0.00000E+0	0.00000E+0	2.00000E+1	1.40000E+1	2.00013E+1	1.40004E+1
301	02/09/2022	15:31:23.324	0.00000E+0	0.00000E+0	6.00000E+1	0.00000E+0	0.00000E+0	0.00000E+0	2.00000E+1	1.40000E+1	1.99975E+1	1.39980E+1
