#Iteration	Date	Time	STSX	STSY	RotationRateX	RotationRateY	FrCntX	FrCntY	TiptiltCmd1	TiptiltCmd2	TiptiltMonitor1	TiptiltMonitor2
1	15/03/2023	16:55:57.991	0.00000E+0	0.00000E+0	9.45234E-2	9.45136E-2	0.00000E+0	0.00000E+0	2.12534E+1	1.36999E+1	2.12541E+1	1.37004E+1
2	15/03/2023	16:55:59.530	0.00000E+0	0.00000E+0	-5.98822E-2	-7.19032E-2	0.00000E+0	0.00000E+0	2.12407E+1	1.37038E+1	2.12416E+1	1.37030E+1
3	15/03/2023	16:56:01.026	0.00000E+0	0.00000E+0	-1.18730E-1	4.58938E-1	0.00000E+0	0.00000E+0	2.12466E+1	1.36725E+1	2.12429E+1	1.36725E+1
4	15/03/2023	16:56:02.521	0.00000E+0	0.00000E+0	1.64759E+2	4.19072E+0	0.00000E+0	0.00000E+0	2.35766E+1	1.14143E+1	2.35764E+1	1.14154E+1
5	15/03/2023	16:56:04.088	0.00000E+0	0.00000E+0	-1.69852E+2	-1.22911E+0	0.00000E+0	0.00000E+0	1.88448E+1	1.60545E+1	1.88457E+1	1.60543E+1
6	15/03/2023	16:56:05.584	0.00000E+0	0.00000E+0	-1.66484E+2	-9.44688E-1	0.00000E+0	0.00000E+0	1.88206E+1	1.60781E+1	1.88201E+1	1.60787E+1
7	15/03/2023	16:56:07.082	0.00000E+0	0.00000E+0	2.28283E+2	1.31242E+0	0.00000E+0	0.00000E+0	2.44840E+1	1.05067E+1	2.44851E+1	1.05054E+1
8	15/03/2023	16:56:08.606	0.00000E+0	0.00000E+0	3.03866E+1	-4.22198E-1	0.00000E+0	0.00000E+0	2.18958E+1	1.30846E+1	2.18984E+1	1.30839E+1
9	15/03/2023	16:56:10.090	0.00000E+0	0.00000E+0	-2.39582E+2	-3.58169E+0	0.00000E+0	0.00000E+0	1.78959E+1	1.70843E+1	1.78969E+1	1.70859E+1
10	15/03/2023	16:56:11.576	0.00000E+0	0.00000E+0	1.21317E+2	-5.91925E-1	0.00000E+0	0.00000E+0	2.27953E+1	1.21751E+1	2.27942E+1	1.21765E+1
11	15/03/2023	16:56:13.076	0.00000E+0	0.00000E+0	2.22061E+2	2.88155E+0	0.00000E+0	0.00000E+0	2.44807E+1	1.04700E+1	2.44822E+1	1.04682E+1
12	15/03/2023	16:56:14.571	0.00000E+0	0.00000E+0	-2.43425E+2	-4.67051E+0	0.00000E+0	0.00000E+0	1.78669E+1	1.70567E+1	1.78676E+1	1.70565E+1
13	15/03/2023	16:56:16.072	0.00000E+0	0.00000E+0	-2.69503E+1	1.13901E+0	0.00000E+0	0.00000E+0	2.06268E+1	1.43616E+1	2.06258E+1	1.43628E+1
14	15/03/2023	16:56:17.571	0.00000E+0	0.00000E+0	2.31508E+2	5.61680E-1	0.00000E+0	0.00000E+0	2.45339E+1	1.04913E+1	2.45350E+1	1.04883E+1
15	15/03/2023	16:56:19.048	0.00000E+0	0.00000E+0	-4.00334E+1	-2.60332E-1	0.00000E+0	0.00000E+0	2.08640E+1	1.41552E+1	2.08614E+1	1.41544E+1
16	15/03/2023	16:56:20.526	0.00000E+0	0.00000E+0	-2.43873E+2	-2.70461E+0	0.00000E+0	0.00000E+0	1.76589E+1	1.71480E+1	1.76579E+1	1.71488E+1
17	15/03/2023	16:56:21.953	0.00000E+0	0.00000E+0	1.33235E+2	2.56951E+0	0.00000E+0	0.00000E+0	2.30139E+1	1.19445E+1	2.30133E+1	1.19458E+1
18	15/03/2023	16:56:23.389	0.00000E+0	0.00000E+0	2.31387E+2	2.47604E+0	0.00000E+0	0.00000E+0	2.45957E+1	1.04116E+1	2.45940E+1	1.04127E+1
19	15/03/2023	16:56:24.891	0.00000E+0	0.00000E+0	-1.99829E+2	-3.23682E+0	0.00000E+0	0.00000E+0	1.84876E+1	1.63510E+1	1.84885E+1	1.63513E+1
20	15/03/2023	16:56:26.399	0.00000E+0	0.00000E+0	-1.87183E+2	-2.19756E+0	0.00000E+0	0.00000E+0	1.84821E+1	1.64438E+1	1.84813E+1	1.64426E+1
21	15/03/2023	16:56:27.904	0.00000E+0	0.00000E+0	2.07503E+2	9.61167E-1	0.00000E+0	0.00000E+0	2.41532E+1	1.08473E+1	2.41523E+1	1.08454E+1
22	15/03/2023	16:56:29.364	0.00000E+0	0.00000E+0	1.41825E+2	-4.88382E-1	0.00000E+0	0.00000E+0	2.34694E+1	1.14999E+1	2.34688E+1	1.15008E+1
23	15/03/2023	16:56:30.830	0.00000E+0	0.00000E+0	-2.52001E+2	-1.94180E+0	0.00000E+0	0.00000E+0	1.76582E+1	1.71391E+1	1.76546E+1	1.71406E+1
24	15/03/2023	16:56:32.363	0.00000E+0	0.00000E+0	3.32565E+1	-5.15426E-1	0.00000E+0	0.00000E+0	2.15573E+1	1.34253E+1	2.15575E+1	1.34245E+1
25	15/03/2023	16:56:33.846	0.00000E+0	0.00000E+0	2.49167E+2	1.24318E+0	0.00000E+0	0.00000E+0	2.48030E+1	1.02210E+1	2.48050E+1	1.02186E+1
26	15/03/2023	16:56:35.279	0.00000E+0	0.00000E+0	-7.39471E+1	-8.17077E-1	0.00000E+0	0.00000E+0	2.03585E+1	1.45847E+1	2.03570E+1	1.45839E+1
27	15/03/2023	16:56:36.798	0.00000E+0	0.00000E+0	-2.26849E+2	-3.45270E+0	0.00000E+0	0.00000E+0	1.79650E+1	1.69386E+1	1.79656E+1	1.69396E+1
28	15/03/2023	16:56:38.287	0.00000E+0	0.00000E+0	1.52027E+2	-4.32628E-1	0.00000E+0	0.00000E+0	2.33192E+1	1.16699E+1	2.33198E+1	1.16694E+1
29	15/03/2023	16:56:39.793	0.00000E+0	0.00000E+0	2.00513E+2	6.23728E-1	0.00000E+0	0.00000E+0	2.43250E+1	1.07076E+1	2.43257E+1	1.07082E+1
30	15/03/2023	16:56:41.268	0.00000E+0	0.00000E+0	-2.20879E+2	1.13620E-1	0.00000E+0	0.00000E+0	1.81249E+1	1.67017E+1	1.81249E+1	1.67037E+1
31	15/03/2023	16:56:42.758	0.00000E+0	0.00000E+0	-8.93845E+1	-1.34493E+0	0.00000E+0	0.00000E+0	1.97604E+1	1.52020E+1	1.97588E+1	1.52020E+1
32	15/03/2023	16:56:44.210	0.00000E+0	0.00000E+0	2.75661E+2	2.15145E+0	0.00000E+0	0.00000E+0	2.51532E+1	9.86691E+0	2.51533E+1	9.86509E+0
33	15/03/2023	16:56:45.717	0.00000E+0	0.00000E+0	-1.61372E+2	7.70464E-1	0.00000E+0	0.00000E+0	1.91263E+1	1.56938E+1	1.91257E+1	1.56919E+1
34	15/03/2023	16:56:47.209	0.00000E+0	0.00000E+0	-2.22729E+2	1.62350E+0	0.00000E+0	0.00000E+0	1.79638E+1	1.69570E+1	1.79626E+1	1.69587E+1
35	15/03/2023	16:56:48.669	0.00000E+0	0.00000E+0	2.28810E+2	2.41883E+0	0.00000E+0	0.00000E+0	2.45374E+1	1.04505E+1	2.45363E+1	1.04494E+1
36	15/03/2023	16:56:50.164	0.00000E+0	0.00000E+0	-8.78031E+1	-5.53674E-1	0.00000E+0	0.00000E+0	2.00431E+1	1.47963E+1	2.00439E+1	1.47971E+1
37	15/03/2023	16:56:51.744	0.00000E+0	0.00000E+0	9.07366E+1	-1.81409E+0	0.00000E+0	0.00000E+0	2.23749E+1	1.25736E+1	2.23746E+1	1.25753E+1
38	15/03/2023	16:56:53.204	0.00000E+0	0.00000E+0	1.05747E+2	7.72705E-1	0.00000E+0	0.00000E+0	2.28959E+1	1.20768E+1	2.28963E+1	1.20790E+1
39	15/03/2023	16:56:54.707	0.00000E+0	0.00000E+0	-1.74810E+2	-1.62904E+0	0.00000E+0	0.00000E+0	1.87296E+1	1.61302E+1	1.87281E+1	1.61289E+1
40	15/03/2023	16:56:56.179	0.00000E+0	0.00000E+0	1.15779E+2	2.87158E+0	0.00000E+0	0.00000E+0	2.27950E+1	1.22059E+1	2.27942E+1	1.22037E+1
41	15/03/2023	16:56:57.673	0.00000E+0	0.00000E+0	1.73821E+1	8.83281E-1	0.00000E+0	0.00000E+0	2.17294E+1	1.32722E+1	2.17291E+1	1.32758E+1
42	15/03/2023	16:56:59.190	0.00000E+0	0.00000E+0	-1.96000E+2	2.59402E+0	0.00000E+0	0.00000E+0	1.83937E+1	1.65727E+1	1.83961E+1	1.65709E+1
43	15/03/2023	16:57:00.699	0.00000E+0	0.00000E+0	2.23705E+2	1.04839E+0	0.00000E+0	0.00000E+0	2.44295E+1	1.05316E+1	2.44275E+1	1.05302E+1
44	15/03/2023	16:57:02.201	0.00000E+0	0.00000E+0	-2.14768E+2	3.55491E-2	0.00000E+0	0.00000E+0	1.82497E+1	1.66979E+1	1.82509E+1	1.66997E+1
45	15/03/2023	16:57:03.698	0.00000E+0	0.00000E+0	-4.18366E+1	-2.54085E+0	0.00000E+0	0.00000E+0	2.03993E+1	1.45528E+1	2.04002E+1	1.45526E+1
46	15/03/2023	16:57:05.189	0.00000E+0	0.00000E+0	2.76271E+2	1.29463E+0	0.00000E+0	0.00000E+0	2.51740E+1	9.78957E+0	2.51729E+1	9.78914E+0
47	15/03/2023	16:57:06.703	0.00000E+0	0.00000E+0	-2.20852E+2	2.52863E+0	0.00000E+0	0.00000E+0	1.81069E+1	1.68213E+1	1.81079E+1	1.68205E+1
48	15/03/2023	16:57:08.204	0.00000E+0	0.00000E+0	-6.26335E+1	-2.33055E-2	0.00000E+0	0.00000E+0	2.01676E+1	1.48109E+1	2.01662E+1	1.48111E+1
49	15/03/2023	16:57:09.693	0.00000E+0	0.00000E+0	2.68786E+2	8.08050E-1	0.00000E+0	0.00000E+0	2.50387E+1	9.95495E+0	2.50347E+1	9.95388E+0
50	15/03/2023	16:57:11.143	0.00000E+0	0.00000E+0	-1.38970E+2	-9.60504E-2	0.00000E+0	0.00000E+0	1.94282E+1	1.54967E+1	1.94284E+1	1.54957E+1
51	15/03/2023	16:57:12.672	0.00000E+0	0.00000E+0	-2.02178E+2	5.51964E-1	0.00000E+0	0.00000E+0	1.82627E+1	1.66460E+1	1.82608E+1	1.66456E+1
52	15/03/2023	16:57:14.165	0.00000E+0	0.00000E+0	1.85364E+2	1.73476E+0	0.00000E+0	0.00000E+0	2.38665E+1	1.11306E+1	2.38644E+1	1.11314E+1
53	15/03/2023	16:57:15.699	0.00000E+0	0.00000E+0	1.02665E+2	5.83988E-1	0.00000E+0	0.00000E+0	2.29127E+1	1.20543E+1	2.29149E+1	1.20547E+1
54	15/03/2023	16:57:17.155	0.00000E+0	0.00000E+0	-2.32893E+2	-4.29983E+0	0.00000E+0	0.00000E+0	1.79858E+1	1.69679E+1	1.79856E+1	1.69654E+1
55	15/03/2023	16:57:18.657	0.00000E+0	0.00000E+0	2.99529E+1	-5.84353E-1	0.00000E+0	0.00000E+0	2.14530E+1	1.34822E+1	2.14535E+1	1.34809E+1
56	15/03/2023	16:57:20.132	0.00000E+0	0.00000E+0	2.25799E+2	2.49413E+0	0.00000E+0	0.00000E+0	2.44513E+1	1.05776E+1	2.44518E+1	1.05788E+1
57	15/03/2023	16:57:21.657	0.00000E+0	0.00000E+0	-6.99504E+1	2.67631E-1	0.00000E+0	0.00000E+0	2.03900E+1	1.45911E+1	2.03903E+1	1.45891E+1
58	15/03/2023	16:57:23.176	0.00000E+0	0.00000E+0	-2.30733E+2	-4.66476E+0	0.00000E+0	0.00000E+0	1.79150E+1	1.69919E+1	1.79135E+1	1.69910E+1
59	15/03/2023	16:57:24.675	0.00000E+0	0.00000E+0	9.52123E+1	-7.24644E-1	0.00000E+0	0.00000E+0	2.24715E+1	1.24823E+1	2.24695E+1	1.24827E+1
60	15/03/2023	16:57:26.185	0.00000E+0	0.00000E+0	2.42010E+2	2.13393E+0	0.00000E+0	0.00000E+0	2.46793E+1	1.02730E+1	2.46812E+1	1.02722E+1
61	15/03/2023	16:57:27.696	0.00000E+0	0.00000E+0	-2.15882E+2	3.34406E-1	0.00000E+0	0.00000E+0	1.82872E+1	1.66359E+1	1.82857E+1	1.66377E+1
62	15/03/2023	16:57:29.194	0.00000E+0	0.00000E+0	-9.34432E+1	-3.11715E-1	0.00000E+0	0.00000E+0	1.96518E+1	1.52257E+1	1.96504E+1	1.52265E+1
63	15/03/2023	16:57:30.699	0.00000E+0	0.00000E+0	2.37166E+2	1.44231E+0	0.00000E+0	0.00000E+0	2.46204E+1	1.03766E+1	2.46192E+1	1.03764E+1
64	15/03/2023	16:57:32.183	0.00000E+0	0.00000E+0	-1.20715E+2	-6.66742E-1	0.00000E+0	0.00000E+0	1.97682E+1	1.51754E+1	1.97681E+1	1.51752E+1
65	15/03/2023	16:57:33.680	0.00000E+0	0.00000E+0	-1.89771E+2	-1.96613E+0	0.00000E+0	0.00000E+0	1.84569E+1	1.64812E+1	1.84559E+1	1.64833E+1
66	15/03/2023	16:57:35.176	0.00000E+0	0.00000E+0	2.10913E+2	-3.77318E-1	0.00000E+0	0.00000E+0	2.41832E+1	1.07988E+1	2.41816E+1	1.07987E+1
67	15/03/2023	16:57:36.671	0.00000E+0	0.00000E+0	4.57029E+1	2.08150E-1	0.00000E+0	0.00000E+0	2.20865E+1	1.28887E+1	2.20866E+1	1.28867E+1
68	15/03/2023	16:57:38.164	0.00000E+0	0.00000E+0	-2.34356E+2	-1.79287E+0	0.00000E+0	0.00000E+0	1.79520E+1	1.69434E+1	1.79503E+1	1.69433E+1
69	15/03/2023	16:57:39.652	0.00000E+0	0.00000E+0	1.05520E+2	1.45080E-1	0.00000E+0	0.00000E+0	2.25613E+1	1.23577E+1	2.25634E+1	1.23581E+1
70	15/03/2023	16:57:41.154	0.00000E+0	0.00000E+0	2.18880E+2	1.16170E+0	0.00000E+0	0.00000E+0	2.43862E+1	1.05776E+1	2.43882E+1	1.05759E+1
71	15/03/2023	16:57:42.607	0.00000E+0	0.00000E+0	-1.84517E+2	-1.48174E-1	0.00000E+0	0.00000E+0	1.87020E+1	1.61941E+1	1.87019E+1	1.61935E+1
72	15/03/2023	16:57:44.090	0.00000E+0	0.00000E+0	-1.05855E+2	-4.68455E+0	0.00000E+0	0.00000E+0	1.96341E+1	1.52800E+1	1.96368E+1	1.52796E+1
73	15/03/2023	16:57:45.519	0.00000E+0	0.00000E+0	2.07726E+2	2.99522E+0	0.00000E+0	0.00000E+0	2.41783E+1	1.08059E+1	2.41773E+1	1.08073E+1
74	15/03/2023	16:57:46.972	0.00000E+0	0.00000E+0	-2.54766E+1	7.01779E-1	0.00000E+0	0.00000E+0	2.10324E+1	1.39026E+1	2.10334E+1	1.39039E+1
75	15/03/2023	16:57:48.475	0.00000E+0	0.00000E+0	-2.17736E+2	-5.86605E-1	0.00000E+0	0.00000E+0	1.81342E+1	1.68031E+1	1.81345E+1	1.68041E+1
76	15/03/2023	16:57:49.946	0.00000E+0	0.00000E+0	1.39308E+2	1.64392E+0	0.00000E+0	0.00000E+0	2.30817E+1	1.18633E+1	2.30811E+1	1.18620E+1
77	15/03/2023	16:57:51.416	0.00000E+0	0.00000E+0	1.79708E+2	4.01269E-1	0.00000E+0	0.00000E+0	2.40055E+1	1.09468E+1	2.40061E+1	1.09448E+1
78	15/03/2023	16:57:53.050	0.00000E+0	0.00000E+0	-2.57031E+2	-1.45783E+0	0.00000E+0	0.00000E+0	1.76644E+1	1.72790E+1	1.76635E+1	1.72773E+1
79	15/03/2023	16:57:54.599	0.00000E+0	0.00000E+0	4.20787E+1	6.46145E-1	0.00000E+0	0.00000E+0	2.17633E+1	1.31849E+1	2.17655E+1	1.31847E+1
80	15/03/2023	16:57:56.087	0.00000E+0	0.00000E+0	2.27538E+2	2.36345E+0	0.00000E+0	0.00000E+0	2.44371E+1	1.05232E+1	2.44359E+1	1.05230E+1
81	15/03/2023	16:57:57.547	0.00000E+0	0.00000E+0	-1.41931E+2	-1.72976E+0	0.00000E+0	0.00000E+0	1.93684E+1	1.55111E+1	1.93689E+1	1.55115E+1
82	15/03/2023	16:57:59.068	0.00000E+0	0.00000E+0	-1.46626E+2	-3.04821E+0	0.00000E+0	0.00000E+0	1.90024E+1	1.59121E+1	1.90009E+1	1.59120E+1
83	15/03/2023	16:58:00.541	0.00000E+0	0.00000E+0	2.13607E+2	1.89074E+0	0.00000E+0	0.00000E+0	2.42770E+1	1.06719E+1	2.42768E+1	1.06700E+1
84	15/03/2023	16:58:02.065	0.00000E+0	0.00000E+0	-4.97218E+0	-2.58991E-1	0.00000E+0	0.00000E+0	2.13797E+1	1.35761E+1	2.13800E+1	1.35779E+1
85	15/03/2023	16:58:03.537	0.00000E+0	0.00000E+0	-2.39106E+2	-7.39042E-1	0.00000E+0	0.00000E+0	1.77832E+1	1.70701E+1	1.77823E+1	1.70713E+1
86	15/03/2023	16:58:05.022	0.00000E+0	0.00000E+0	1.10007E+2	1.24314E+0	0.00000E+0	0.00000E+0	2.26992E+1	1.22560E+1	2.26990E+1	1.22552E+1
87	15/03/2023	16:58:06.508	0.00000E+0	0.00000E+0	2.25373E+2	1.11172E+0	0.00000E+0	0.00000E+0	2.44866E+1	1.04867E+1	2.44847E+1	1.04858E+1
88	15/03/2023	16:58:08.019	0.00000E+0	0.00000E+0	-1.38163E+2	-1.86769E+0	0.00000E+0	0.00000E+0	1.93531E+1	1.56104E+1	1.93552E+1	1.56097E+1
89	15/03/2023	16:58:09.514	0.00000E+0	0.00000E+0	-1.72517E+2	1.59667E+0	0.00000E+0	0.00000E+0	1.87486E+1	1.61440E+1	1.87487E+1	1.61433E+1
90	15/03/2023	16:58:10.999	0.00000E+0	0.00000E+0	8.94371E+1	2.53113E-1	0.00000E+0	0.00000E+0	2.24224E+1	1.25797E+1	2.24237E+1	1.25802E+1
91	15/03/2023	16:58:12.503	0.00000E+0	0.00000E+0	1.61356E+2	2.59438E+0	0.00000E+0	0.00000E+0	2.35465E+1	1.14006E+1	2.35477E+1	1.13992E+1
92	15/03/2023	16:58:14.023	0.00000E+0	0.00000E+0	-4.96895E+1	1.33703E-1	0.00000E+0	0.00000E+0	2.05572E+1	1.43549E+1	2.05557E+1	1.43565E+1
93	15/03/2023	16:58:15.530	0.00000E+0	0.00000E+0	-7.37875E+1	1.82851E+0	0.00000E+0	0.00000E+0	2.01538E+1	1.47857E+1	2.01541E+1	1.47854E+1
94	15/03/2023	16:58:17.004	0.00000E+0	0.00000E+0	1.54301E+2	2.14390E+0	0.00000E+0	0.00000E+0	2.34247E+1	1.15585E+1	2.34264E+1	1.15583E+1
95	15/03/2023	16:58:18.496	0.00000E+0	0.00000E+0	5.87318E+1	5.27237E+0	0.00000E+0	0.00000E+0	2.21616E+1	1.27143E+1	2.21620E+1	1.27142E+1
96	15/03/2023	16:58:19.988	0.00000E+0	0.00000E+0	-2.30732E+2	-3.20142E+0	0.00000E+0	0.00000E+0	1.80174E+1	1.69699E+1	1.80147E+1	1.69679E+1
97	15/03/2023	16:58:21.490	0.00000E+0	0.00000E+0	-4.46944E+1	4.62081E-1	0.00000E+0	0.00000E+0	2.05783E+1	1.44032E+1	2.05764E+1	1.44032E+1
98	15/03/2023	16:58:22.953	0.00000E+0	0.00000E+0	1.93310E+2	2.35371E+0	0.00000E+0	0.00000E+0	2.39564E+1	1.10197E+1	2.39570E+1	1.10210E+1
99	15/03/2023	16:58:24.497	0.00000E+0	0.00000E+0	-2.37459E+1	-6.74674E-1	0.00000E+0	0.00000E+0	2.10753E+1	1.38797E+1	2.10754E+1	1.38796E+1
100	15/03/2023	16:58:26.015	0.00000E+0	0.00000E+0	-2.01114E+2	-1.79294E+0	0.00000E+0	0.00000E+0	1.83466E+1	1.65743E+1	1.83472E+1	1.65739E+1
101	15/03/2023	16:58:27.504	0.00000E+0	0.00000E+0	1.16033E+2	8.53028E-1	0.00000E+0	0.00000E+0	2.27492E+1	1.22148E+1	2.27474E+1	1.22124E+1
102	15/03/2023	16:58:28.960	0.00000E+0	0.00000E+0	1.96375E+2	3.23395E-1	0.00000E+0	0.00000E+0	2.42211E+1	1.07970E+1	2.42240E+1	1.07963E+1
103	15/03/2023	16:58:30.449	0.00000E+0	0.00000E+0	-1.69268E+2	-1.03334E+0	0.00000E+0	0.00000E+0	1.88133E+1	1.61239E+1	1.88152E+1	1.61247E+1
104	15/03/2023	16:58:31.927	0.00000E+0	0.00000E+0	-1.27021E+2	3.82594E-2	0.00000E+0	0.00000E+0	1.93132E+1	1.56541E+1	1.93115E+1	1.56534E+1
105	15/03/2023	16:58:33.435	0.00000E+0	0.00000E+0	1.81441E+2	9.69880E-1	0.00000E+0	0.00000E+0	2.38260E+1	1.11547E+1	2.38250E+1	1.11530E+1
106	15/03/2023	16:58:34.940	0.00000E+0	0.00000E+0	7.73141E+1	5.49838E-1	0.00000E+0	0.00000E+0	2.25022E+1	1.24989E+1	2.25036E+1	1.24978E+1
107	15/03/2023	16:58:36.406	0.00000E+0	0.00000E+0	-2.00846E+2	-4.22549E+0	0.00000E+0	0.00000E+0	1.84367E+1	1.64887E+1	1.84369E+1	1.64887E+1
108	15/03/2023	16:58:37.961	0.00000E+0	0.00000E+0	2.89202E+0	-2.79150E-2	0.00000E+0	0.00000E+0	2.10783E+1	1.38755E+1	2.10808E+1	1.38773E+1
109	15/03/2023	16:58:39.419	0.00000E+0	0.00000E+0	2.18419E+2	3.08024E+0	0.00000E+0	0.00000E+0	2.43283E+1	1.06860E+1	2.43284E+1	1.06844E+1
110	15/03/2023	16:58:40.934	0.00000E+0	0.00000E+0	-5.10164E+1	-1.44256E+0	0.00000E+0	0.00000E+0	2.06798E+1	1.42695E+1	2.06794E+1	1.42696E+1
111	15/03/2023	16:58:42.433	0.00000E+0	0.00000E+0	-2.41217E+2	-1.89951E+0	0.00000E+0	0.00000E+0	1.77431E+1	1.70630E+1	1.77434E+1	1.70631E+1
112	15/03/2023	16:58:43.919	0.00000E+0	0.00000E+0	9.61244E+1	-3.02274E-1	0.00000E+0	0.00000E+0	2.25684E+1	1.24581E+1	2.25712E+1	1.24573E+1
113	15/03/2023	16:58:45.427	0.00000E+0	0.00000E+0	2.08950E+2	2.43820E+0	0.00000E+0	0.00000E+0	2.42537E+1	1.07226E+1	2.42549E+1	1.07237E+1
114	15/03/2023	16:58:46.950	0.00000E+0	0.00000E+0	-1.38481E+2	4.67507E-1	0.00000E+0	0.00000E+0	1.93837E+1	1.55447E+1	1.93853E+1	1.55477E+1
115	15/03/2023	16:58:48.472	0.00000E+0	0.00000E+0	-1.67842E+2	7.93782E-1	0.00000E+0	0.00000E+0	1.87864E+1	1.61365E+1	1.87870E+1	1.61373E+1
116	15/03/2023	16:58:49.972	0.00000E+0	0.00000E+0	1.69063E+2	1.94611E+0	0.00000E+0	0.00000E+0	2.36030E+1	1.13441E+1	2.36006E+1	1.13439E+1
117	15/03/2023	16:58:51.466	0.00000E+0	0.00000E+0	1.35363E+2	3.07960E-1	0.00000E+0	0.00000E+0	2.32735E+1	1.17002E+1	2.32729E+1	1.17005E+1
118	15/03/2023	16:58:52.990	0.00000E+0	0.00000E+0	-1.99707E+2	-5.60961E+0	0.00000E+0	0.00000E+0	1.84276E+1	1.64819E+1	1.84234E+1	1.64829E+1
119	15/03/2023	16:58:54.484	0.00000E+0	0.00000E+0	-7.26310E+1	4.40640E-1	0.00000E+0	0.00000E+0	2.00010E+1	1.49451E+1	1.99999E+1	1.49458E+1
120	15/03/2023	16:58:55.967	0.00000E+0	0.00000E+0	2.30679E+2	2.66811E-1	0.00000E+0	0.00000E+0	2.44993E+1	1.04810E+1	2.44992E+1	1.04804E+1
121	15/03/2023	16:58:57.436	0.00000E+0	0.00000E+0	-1.08637E+1	-8.10615E-1	0.00000E+0	0.00000E+0	2.12851E+1	1.36617E+1	2.12832E+1	1.36587E+1
122	15/03/2023	16:58:58.928	0.00000E+0	0.00000E+0	-2.41108E+2	-3.98045E+0	0.00000E+0	0.00000E+0	1.78394E+1	1.70969E+1	1.78413E+1	1.70952E+1
123	15/03/2023	16:59:00.371	0.00000E+0	0.00000E+0	9.75353E+1	2.57524E+0	0.00000E+0	0.00000E+0	2.24928E+1	1.24896E+1	2.24944E+1	1.24915E+1
124	15/03/2023	16:59:01.782	0.00000E+0	0.00000E+0	2.22502E+2	2.73215E+0	0.00000E+0	0.00000E+0	2.44769E+1	1.04867E+1	2.44784E+1	1.04874E+1
125	15/03/2023	16:59:03.221	0.00000E+0	0.00000E+0	-1.44963E+2	-1.46010E+0	0.00000E+0	0.00000E+0	1.93355E+1	1.56025E+1	1.93341E+1	1.56024E+1
126	15/03/2023	16:59:04.814	0.00000E+0	0.00000E+0	-1.80554E+2	3.07994E+0	0.00000E+0	0.00000E+0	1.86127E+1	1.63657E+1	1.86108E+1	1.63659E+1
127	15/03/2023	16:59:06.259	0.00000E+0	0.00000E+0	2.04320E+2	1.14136E+0	0.00000E+0	0.00000E+0	2.41149E+1	1.08813E+1	2.41138E+1	1.08788E+1
128	15/03/2023	16:59:07.713	0.00000E+0	0.00000E+0	1.16522E+2	2.21774E+0	0.00000E+0	0.00000E+0	2.30586E+1	1.18756E+1	2.30618E+1	1.18752E+1
129	15/03/2023	16:59:09.189	0.00000E+0	0.00000E+0	-1.95084E+2	-6.13987E-1	0.00000E+0	0.00000E+0	1.85255E+1	1.64264E+1	1.85259E+1	1.64282E+1
130	15/03/2023	16:59:10.671	0.00000E+0	0.00000E+0	-1.14896E+2	4.15735E-1	0.00000E+0	0.00000E+0	1.94221E+1	1.55134E+1	1.94212E+1	1.55167E+1
131	15/03/2023	16:59:12.197	0.00000E+0	0.00000E+0	2.20921E+2	-1.27831E+0	0.00000E+0	0.00000E+0	2.43883E+1	1.06179E+1	2.43858E+1	1.06165E+1
132	15/03/2023	16:59:13.710	0.00000E+0	0.00000E+0	3.11528E+1	9.23537E-2	0.00000E+0	0.00000E+0	2.18698E+1	1.31022E+1	2.18693E+1	1.31028E+1
133	15/03/2023	16:59:15.196	0.00000E+0	0.00000E+0	-2.51190E+2	1.43348E-2	0.00000E+0	0.00000E+0	1.76885E+1	1.71572E+1	1.76882E+1	1.71572E+1
134	15/03/2023	16:59:16.697	0.00000E+0	0.00000E+0	5.14847E+1	3.19402E-1	0.00000E+0	0.00000E+0	2.18463E+1	1.30713E+1	2.18450E+1	1.30714E+1
135	15/03/2023	16:59:18.169	0.00000E+0	0.00000E+0	2.55157E+2	2.43782E-2	0.00000E+0	0.00000E+0	2.49400E+1	1.00977E+1	2.49397E+1	1.00983E+1
136	15/03/2023	16:59:19.669	0.00000E+0	0.00000E+0	-1.10072E+2	2.43046E-1	0.00000E+0	0.00000E+0	1.98483E+1	1.50689E+1	1.98473E+1	1.50668E+1
137	15/03/2023	16:59:21.142	0.00000E+0	0.00000E+0	-2.25610E+2	-1.57087E+0	0.00000E+0	0.00000E+0	1.80415E+1	1.69011E+1	1.80420E+1	1.68991E+1
138	15/03/2023	16:59:22.596	0.00000E+0	0.00000E+0	1.42377E+2	2.61758E+0	0.00000E+0	0.00000E+0	2.31523E+1	1.18469E+1	2.31527E+1	1.18447E+1
139	15/03/2023	16:59:24.070	0.00000E+0	0.00000E+0	2.13967E+2	2.00467E+0	0.00000E+0	0.00000E+0	2.43935E+1	1.05415E+1	2.43947E+1	1.05415E+1
140	15/03/2023	16:59:25.549	0.00000E+0	0.00000E+0	-2.20279E+2	-8.95335E-2	0.00000E+0	0.00000E+0	1.82218E+1	1.67328E+1	1.82248E+1	1.67331E+1
141	15/03/2023	16:59:27.053	0.00000E+0	0.00000E+0	-1.07681E+2	-1.49189E+0	0.00000E+0	0.00000E+0	1.94646E+1	1.54759E+1	1.94641E+1	1.54759E+1
142	15/03/2023	16:59:28.519	0.00000E+0	0.00000E+0	2.40551E+2	1.06214E+0	0.00000E+0	0.00000E+0	2.46304E+1	1.03571E+1	2.46286E+1	1.03556E+1
143	15/03/2023	16:59:30.030	0.00000E+0	0.00000E+0	-2.17451E+1	1.76071E-1	0.00000E+0	0.00000E+0	2.11404E+1	1.38148E+1	2.11413E+1	1.38155E+1
144	15/03/2023	16:59:31.514	0.00000E+0	0.00000E+0	-2.44239E+2	-2.25163E+0	0.00000E+0	0.00000E+0	1.77559E+1	1.71119E+1	1.77554E+1	1.71123E+1
145	15/03/2023	16:59:32.991	0.00000E+0	0.00000E+0	5.90416E+1	-4.00146E-1	0.00000E+0	0.00000E+0	2.20203E+1	1.29321E+1	2.20206E+1	1.29302E+1
146	15/03/2023	16:59:34.467	0.00000E+0	0.00000E+0	2.30977E+2	1.84380E+0	0.00000E+0	0.00000E+0	2.44851E+1	1.04902E+1	2.44882E+1	1.04897E+1
147	15/03/2023	16:59:36.004	0.00000E+0	0.00000E+0	-1.50911E+2	-1.61895E+0	0.00000E+0	0.00000E+0	1.92744E+1	1.56994E+1	1.92737E+1	1.57011E+1
148	15/03/2023	16:59:37.492	0.00000E+0	0.00000E+0	-1.42391E+2	-1.75636E+0	0.00000E+0	0.00000E+0	1.91019E+1	1.58029E+1	1.91027E+1	1.58023E+1
149	15/03/2023	16:59:39.019	0.00000E+0	0.00000E+0	2.26341E+2	1.83645E+0	0.00000E+0	0.00000E+0	2.44282E+1	1.05572E+1	2.44281E+1	1.05599E+1
150	15/03/2023	16:59:40.494	0.00000E+0	0.00000E+0	-5.39081E+1	-6.02332E-1	0.00000E+0	0.00000E+0	2.06694E+1	1.42583E+1	2.06700E+1	1.42595E+1
151	15/03/2023	16:59:41.977	0.00000E+0	0.00000E+0	-2.28344E+2	-1.73959E+0	0.00000E+0	0.00000E+0	1.79469E+1	1.69266E+1	1.79465E+1	1.69273E+1
152	15/03/2023	16:59:43.463	0.00000E+0	0.00000E+0	9.90884E+1	3.70530E-1	0.00000E+0	0.00000E+0	2.25608E+1	1.24388E+1	2.25613E+1	1.24364E+1
153	15/03/2023	16:59:44.937	0.00000E+0	0.00000E+0	2.30270E+2	2.56034E+0	0.00000E+0	0.00000E+0	2.45683E+1	1.03848E+1	2.45665E+1	1.03831E+1
154	15/03/2023	16:59:46.486	0.00000E+0	0.00000E+0	-1.54791E+2	-1.32490E+0	0.00000E+0	0.00000E+0	1.91637E+1	1.57526E+1	1.91620E+1	1.57554E+1
155	15/03/2023	16:59:48.042	0.00000E+0	0.00000E+0	-1.81216E+2	-1.54569E+0	0.00000E+0	0.00000E+0	1.85315E+1	1.64401E+1	1.85327E+1	1.64417E+1
156	15/03/2023	16:59:49.515	0.00000E+0	0.00000E+0	1.90832E+2	9.94632E-1	0.00000E+0	0.00000E+0	2.38627E+1	1.11103E+1	2.38612E+1	1.11104E+1
157	15/03/2023	16:59:50.960	0.00000E+0	0.00000E+0	1.17342E+2	-4.31909E-1	0.00000E+0	0.00000E+0	2.30891E+1	1.18874E+1	2.30887E+1	1.18887E+1
158	15/03/2023	16:59:52.468	0.00000E+0	0.00000E+0	-2.29086E+2	1.39380E-1	0.00000E+0	0.00000E+0	1.80900E+1	1.68931E+1	1.80901E+1	1.68911E+1
159	15/03/2023	16:59:53.979	0.00000E+0	0.00000E+0	3.13975E+1	-2.51884E+0	0.00000E+0	0.00000E+0	2.15241E+1	1.34450E+1	2.15239E+1	1.34418E+1
160	15/03/2023	16:59:55.457	0.00000E+0	0.00000E+0	2.59920E+2	1.31446E+0	0.00000E+0	0.00000E+0	2.48918E+1	1.01034E+1	2.48913E+1	1.01031E+1
161	15/03/2023	16:59:56.968	0.00000E+0	0.00000E+0	-1.11024E+2	3.35485E-1	0.00000E+0	0.00000E+0	1.98007E+1	1.51015E+1	1.97980E+1	1.51028E+1
162	15/03/2023	16:59:58.412	0.00000E+0	0.00000E+0	-2.21518E+2	-3.88735E+0	0.00000E+0	0.00000E+0	1.80162E+1	1.68347E+1	1.80145E+1	1.68353E+1
163	15/03/2023	16:59:59.947	0.00000E+0	0.00000E+0	2.00236E+2	1.27720E+0	0.00000E+0	0.00000E+0	2.39987E+1	1.10083E+1	2.39983E+1	1.10063E+1
164	15/03/2023	17:00:01.440	0.00000E+0	0.00000E+0	1.46961E+2	8.17212E-1	0.00000E+0	0.00000E+0	2.35449E+1	1.14180E+1	2.35466E+1	1.14154E+1
165	15/03/2023	17:00:02.975	0.00000E+0	0.00000E+0	-2.38824E+2	-2.20280E+0	0.00000E+0	0.00000E+0	1.78796E+1	1.70180E+1	1.78824E+1	1.70166E+1
166	15/03/2023	17:00:04.428	0.00000E+0	0.00000E+0	-6.15299E+1	-1.77370E-1	0.00000E+0	0.00000E+0	2.01814E+1	1.47730E+1	2.01844E+1	1.47731E+1
167	15/03/2023	17:00:05.939	0.00000E+0	0.00000E+0	2.41778E+2	1.00338E+0	0.00000E+0	0.00000E+0	2.46503E+1	1.03364E+1	2.46494E+1	1.03382E+1
168	15/03/2023	17:00:07.462	0.00000E+0	0.00000E+0	-8.35927E+1	-1.16412E+0	0.00000E+0	0.00000E+0	2.02606E+1	1.46821E+1	2.02585E+1	1.46817E+1
169	15/03/2023	17:00:08.948	0.00000E+0	0.00000E+0	-2.14406E+2	3.42111E-1	0.00000E+0	0.00000E+0	1.80139E+1	1.68432E+1	1.80158E+1	1.68427E+1
170	15/03/2023	17:00:10.491	0.00000E+0	0.00000E+0	1.62513E+2	-8.58956E-1	0.00000E+0	0.00000E+0	2.34076E+1	1.15466E+1	2.34039E+1	1.15471E+1
171	15/03/2023	17:00:11.965	0.00000E+0	0.00000E+0	1.61334E+2	6.64424E-1	0.00000E+0	0.00000E+0	2.36567E+1	1.12688E+1	2.36585E+1	1.12700E+1
172	15/03/2023	17:00:13.451	0.00000E+0	0.00000E+0	-2.02570E+2	1.78984E-1	0.00000E+0	0.00000E+0	1.84580E+1	1.64526E+1	1.84573E+1	1.64525E+1
173	15/03/2023	17:00:14.954	0.00000E+0	0.00000E+0	-1.08293E+2	-6.24205E-1	0.00000E+0	0.00000E+0	1.96114E+1	1.53200E+1	1.96105E+1	1.53216E+1
174	15/03/2023	17:00:16.424	0.00000E+0	0.00000E+0	2.42525E+2	1.97113E+0	0.00000E+0	0.00000E+0	2.46983E+1	1.02998E+1	2.46984E+1	1.02982E+1
175	15/03/2023	17:00:17.934	0.00000E+0	0.00000E+0	-3.39735E+1	-7.78193E-1	0.00000E+0	0.00000E+0	2.09258E+1	1.40358E+1	2.09249E+1	1.40354E+1
176	15/03/2023	17:00:19.432	0.00000E+0	0.00000E+0	-2.39793E+2	-4.24017E+0	0.00000E+0	0.00000E+0	1.78125E+1	1.70568E+1	1.78130E+1	1.70536E+1
177	15/03/2023	17:00:20.943	0.00000E+0	0.00000E+0	1.05639E+2	-7.32040E-1	0.00000E+0	0.00000E+0	2.26945E+1	1.23137E+1	2.26944E+1	1.23141E+1
178	15/03/2023	17:00:22.438	0.00000E+0	0.00000E+0	2.13186E+2	-2.20801E-1	0.00000E+0	0.00000E+0	2.43848E+1	1.05846E+1	2.43844E+1	1.05850E+1
179	15/03/2023	17:00:23.910	0.00000E+0	0.00000E+0	-1.64429E+2	-1.54137E+0	0.00000E+0	0.00000E+0	1.90419E+1	1.58915E+1	1.90432E+1	1.58920E+1
180	15/03/2023	17:00:25.411	0.00000E+0	0.00000E+0	-1.62455E+2	-6.14871E-1	0.00000E+0	0.00000E+0	1.87651E+1	1.61499E+1	1.87643E+1	1.61492E+1
181	15/03/2023	17:00:26.931	0.00000E+0	0.00000E+0	2.08573E+2	8.61696E-1	0.00000E+0	0.00000E+0	2.41681E+1	1.08094E+1	2.41690E+1	1.08103E+1
182	15/03/2023	17:00:28.414	0.00000E+0	0.00000E+0	8.68862E+1	1.26178E+0	0.00000E+0	0.00000E+0	2.26796E+1	1.22532E+1	2.26798E+1	1.22539E+1
183	15/03/2023	17:00:29.889	0.00000E+0	0.00000E+0	-2.27994E+2	-2.41068E+0	0.00000E+0	0.00000E+0	1.80535E+1	1.68729E+1	1.80528E+1	1.68690E+1
184	15/03/2023	17:00:31.423	0.00000E+0	0.00000E+0	3.49804E+1	-2.61837E+0	0.00000E+0	0.00000E+0	2.15138E+1	1.34646E+1	2.15166E+1	1.34642E+1
185	15/03/2023	17:00:32.914	0.00000E+0	0.00000E+0	2.29297E+2	1.26509E+0	0.00000E+0	0.00000E+0	2.44931E+1	1.04776E+1	2.44938E+1	1.04778E+1
186	15/03/2023	17:00:34.440	0.00000E+0	0.00000E+0	-9.31377E+1	1.41290E+0	0.00000E+0	0.00000E+0	2.00592E+1	1.48817E+1	2.00571E+1	1.48818E+1
187	15/03/2023	17:00:35.937	0.00000E+0	0.00000E+0	-2.02374E+2	8.81354E-1	0.00000E+0	0.00000E+0	1.83674E+1	1.66026E+1	1.83651E+1	1.66002E+1
188	15/03/2023	17:00:37.448	0.00000E+0	0.00000E+0	1.11749E+2	2.35081E-1	0.00000E+0	0.00000E+0	2.27409E+1	1.22181E+1	2.27419E+1	1.22203E+1
189	15/03/2023	17:00:38.901	0.00000E+0	0.00000E+0	1.97252E+2	1.56143E+0	0.00000E+0	0.00000E+0	2.40949E+1	1.08748E+1	2.40945E+1	1.08775E+1
190	15/03/2023	17:00:40.393	0.00000E+0	0.00000E+0	-1.86273E+2	-1.34718E+0	0.00000E+0	0.00000E+0	1.86964E+1	1.62331E+1	1.86959E+1	1.62312E+1
191	15/03/2023	17:00:41.879	0.00000E+0	0.00000E+0	-1.41426E+2	-6.61580E-1	0.00000E+0	0.00000E+0	1.91304E+1	1.58924E+1	1.91310E+1	1.58912E+1
192	15/03/2023	17:00:43.352	0.00000E+0	0.00000E+0	1.79667E+2	6.36220E+0	0.00000E+0	0.00000E+0	2.37891E+1	1.11601E+1	2.37911E+1	1.11603E+1
193	15/03/2023	17:00:44.895	0.00000E+0	0.00000E+0	1.62014E+2	1.71931E+0	0.00000E+0	0.00000E+0	2.36594E+1	1.13055E+1	2.36594E+1	1.13059E+1
194	15/03/2023	17:00:46.589	0.00000E+0	0.00000E+0	-1.63553E+2	-2.11179E+0	0.00000E+0	0.00000E+0	1.89680E+1	1.59679E+1	1.89685E+1	1.59670E+1
195	15/03/2023	17:00:48.104	0.00000E+0	0.00000E+0	-2.65602E+1	8.22897E-1	0.00000E+0	0.00000E+0	2.07200E+1	1.42231E+1	2.07190E+1	1.42229E+1
196	15/03/2023	17:00:49.586	0.00000E+0	0.00000E+0	1.47744E+2	-1.52650E-1	0.00000E+0	0.00000E+0	2.33286E+1	1.16316E+1	2.33267E+1	1.16320E+1
197	15/03/2023	17:00:51.063	0.00000E+0	0.00000E+0	-6.02529E+1	-4.41130E-1	0.00000E+0	0.00000E+0	2.05297E+1	1.43988E+1	2.05290E+1	1.43957E+1
198	15/03/2023	17:00:52.514	0.00000E+0	0.00000E+0	-3.19438E+2	-1.49903E+0	0.00000E+0	0.00000E+0	1.66372E+1	1.82428E+1	1.66378E+1	1.82413E+1
199	15/03/2023	17:00:54.023	0.00000E+0	0.00000E+0	1.61480E+2	1.73847E+0	0.00000E+0	0.00000E+0	2.33595E+1	1.15665E+1	2.33576E+1	1.15668E+1
200	15/03/2023	17:00:55.504	0.00000E+0	0.00000E+0	1.50422E+2	-4.45288E-1	0.00000E+0	0.00000E+0	2.34880E+1	1.14801E+1	2.34875E+1	1.14793E+1
201	15/03/2023	17:00:56.984	0.00000E+0	0.00000E+0	-1.98315E+2	-1.97119E+0	0.00000E+0	0.00000E+0	1.84746E+1	1.64720E+1	1.84736E+1	1.64696E+1
202	15/03/2023	17:00:58.495	0.00000E+0	0.00000E+0	1.97464E+1	-1.81637E+0	0.00000E+0	0.00000E+0	2.13260E+1	1.36237E+1	2.13266E+1	1.36224E+1
203	15/03/2023	17:00:59.994	0.00000E+0	0.00000E+0	2.59967E+2	2.11374E+0	0.00000E+0	0.00000E+0	2.50086E+1	1.00117E+1	2.50087E+1	1.00116E+1
204	15/03/2023	17:01:01.497	0.00000E+0	0.00000E+0	-2.07135E+2	-1.12923E+0	0.00000E+0	0.00000E+0	1.82711E+1	1.66320E+1	1.82705E+1	1.66328E+1
205	15/03/2023	17:01:02.967	0.00000E+0	0.00000E+0	-1.00528E+2	-1.75342E+0	0.00000E+0	0.00000E+0	1.95795E+1	1.53443E+1	1.95787E+1	1.53438E+1
206	15/03/2023	17:01:04.423	0.00000E+0	0.00000E+0	2.22107E+2	1.79352E+0	0.00000E+0	0.00000E+0	2.44447E+1	1.05820E+1	2.44453E+1	1.05823E+1
207	15/03/2023	17:01:05.945	0.00000E+0	0.00000E+0	-5.08451E+1	-1.59670E+0	0.00000E+0	0.00000E+0	2.06849E+1	1.42640E+1	2.06846E+1	1.42617E+1
208	15/03/2023	17:01:07.437	0.00000E+0	0.00000E+0	-1.90085E+2	-7.09483E-1	0.00000E+0	0.00000E+0	1.84231E+1	1.65538E+1	1.84221E+1	1.65548E+1
209	15/03/2023	17:01:08.986	0.00000E+0	0.00000E+0	2.06902E+2	4.08986E+0	0.00000E+0	0.00000E+0	2.41254E+1	1.08757E+1	2.41293E+1	1.08787E+1
210	15/03/2023	17:01:10.516	0.00000E+0	0.00000E+0	6.63903E+1	2.77816E-1	0.00000E+0	0.00000E+0	2.24182E+1	1.25451E+1	2.24194E+1	1.25426E+1
211	15/03/2023	17:01:12.021	0.00000E+0	0.00000E+0	-2.13554E+2	-1.69694E+0	0.00000E+0	0.00000E+0	1.82525E+1	1.66827E+1	1.82500E+1	1.66816E+1
212	15/03/2023	17:01:13.515	0.00000E+0	0.00000E+0	2.89559E+1	-2.92603E-4	0.00000E+0	0.00000E+0	2.15074E+1	1.34672E+1	2.15086E+1	1.34669E+1
213	15/03/2023	17:01:14.987	0.00000E+0	0.00000E+0	2.13849E+2	6.06863E-1	0.00000E+0	0.00000E+0	2.43157E+1	1.06849E+1	2.43149E+1	1.06847E+1
214	15/03/2023	17:01:16.520	0.00000E+0	0.00000E+0	-1.65898E+2	-2.58431E+0	0.00000E+0	0.00000E+0	1.90487E+1	1.59393E+1	1.90472E+1	1.59409E+1
215	15/03/2023	17:01:18.038	0.00000E+0	0.00000E+0	-8.81597E+1	-8.47618E-1	0.00000E+0	0.00000E+0	1.98842E+1	1.50861E+1	1.98837E+1	1.50892E+1
216	15/03/2023	17:01:19.485	0.00000E+0	0.00000E+0	1.63147E+2	7.08850E-1	0.00000E+0	0.00000E+0	2.35385E+1	1.14618E+1	2.35381E+1	1.14624E+1
217	15/03/2023	17:01:21.004	0.00000E+0	0.00000E+0	2.31743E+1	-1.04226E+0	0.00000E+0	0.00000E+0	2.19153E+1	1.30627E+1	2.19144E+1	1.30620E+1
218	15/03/2023	17:01:22.464	0.00000E+0	0.00000E+0	-2.09569E+2	-2.89508E+0	0.00000E+0	0.00000E+0	1.82613E+1	1.66423E+1	1.82622E+1	1.66432E+1
219	15/03/2023	17:01:23.954	0.00000E+0	0.00000E+0	1.06073E+2	-2.12706E+0	0.00000E+0	0.00000E+0	2.25396E+1	1.23518E+1	2.25398E+1	1.23515E+1
220	15/03/2023	17:01:25.408	0.00000E+0	0.00000E+0	2.03117E+2	4.61946E-1	0.00000E+0	0.00000E+0	2.42718E+1	1.07009E+1	2.42715E+1	1.07012E+1
221	15/03/2023	17:01:26.926	0.00000E+0	0.00000E+0	-1.88340E+2	-1.62647E+0	0.00000E+0	0.00000E+0	1.85936E+1	1.63559E+1	1.85942E+1	1.63574E+1
222	15/03/2023	17:01:28.417	0.00000E+0	0.00000E+0	-1.10234E+2	-1.59613E+0	0.00000E+0	0.00000E+0	1.95301E+1	1.53817E+1	1.95299E+1	1.53828E+1
223	15/03/2023	17:01:29.938	0.00000E+0	0.00000E+0	2.36148E+2	3.05874E+0	0.00000E+0	0.00000E+0	2.45616E+1	1.04243E+1	2.45604E+1	1.04236E+1
224	15/03/2023	17:01:31.414	0.00000E+0	0.00000E+0	-4.30874E+1	1.63562E-1	0.00000E+0	0.00000E+0	2.08136E+1	1.41429E+1	2.08147E+1	1.41436E+1
225	15/03/2023	17:01:32.899	0.00000E+0	0.00000E+0	-2.12991E+2	9.60198E-1	0.00000E+0	0.00000E+0	1.81646E+1	1.67830E+1	1.81633E+1	1.67806E+1
226	15/03/2023	17:01:34.384	0.00000E+0	0.00000E+0	1.19603E+2	-3.35486E-1	0.00000E+0	0.00000E+0	2.27431E+1	1.21740E+1	2.27428E+1	1.21774E+1
227	15/03/2023	17:01:35.880	0.00000E+0	0.00000E+0	2.07123E+2	1.72186E+0	0.00000E+0	0.00000E+0	2.43269E+1	1.06657E+1	2.43261E+1	1.06644E+1
228	15/03/2023	17:01:37.371	0.00000E+0	0.00000E+0	-1.83323E+2	-7.22525E-1	0.00000E+0	0.00000E+0	1.87306E+1	1.61663E+1	1.87311E+1	1.61647E+1
229	15/03/2023	17:01:38.867	0.00000E+0	0.00000E+0	-1.64987E+2	-1.80645E-1	0.00000E+0	0.00000E+0	1.87827E+1	1.61621E+1	1.87842E+1	1.61636E+1
230	15/03/2023	17:01:40.364	0.00000E+0	0.00000E+0	2.14954E+2	-7.10367E-1	0.00000E+0	0.00000E+0	2.42248E+1	1.07570E+1	2.42247E+1	1.07553E+1
231	15/03/2023	17:01:41.859	0.00000E+0	0.00000E+0	5.22800E+1	4.89915E-1	0.00000E+0	0.00000E+0	2.22506E+1	1.27054E+1	2.22510E+1	1.27058E+1
232	15/03/2023	17:01:43.361	0.00000E+0	0.00000E+0	-2.34845E+2	-1.77491E+0	0.00000E+0	0.00000E+0	1.79926E+1	1.68622E+1	1.79907E+1	1.68611E+1
233	15/03/2023	17:01:44.843	0.00000E+0	0.00000E+0	1.70578E+1	1.82106E+0	0.00000E+0	0.00000E+0	2.13435E+1	1.36292E+1	2.13465E+1	1.36308E+1
234	15/03/2023	17:01:46.345	0.00000E+0	0.00000E+0	2.11840E+2	1.90460E+0	0.00000E+0	0.00000E+0	2.41972E+1	1.07866E+1	2.41982E+1	1.07864E+1
235	15/03/2023	17:01:47.858	0.00000E+0	0.00000E+0	-4.43284E+1	-2.03397E-1	0.00000E+0	0.00000E+0	2.08265E+1	1.41525E+1	2.08271E+1	1.41543E+1
236	15/03/2023	17:01:49.339	0.00000E+0	0.00000E+0	-2.07154E+2	-1.92298E+0	0.00000E+0	0.00000E+0	1.82346E+1	1.66560E+1	1.82348E+1	1.66549E+1
237	15/03/2023	17:01:50.846	0.00000E+0	0.00000E+0	9.31295E+1	-1.01231E+0	0.00000E+0	0.00000E+0	2.24651E+1	1.25195E+1	2.24649E+1	1.25195E+1
238	15/03/2023	17:01:52.324	0.00000E+0	0.00000E+0	2.13061E+2	2.12139E+0	0.00000E+0	0.00000E+0	2.43083E+1	1.06758E+1	2.43086E+1	1.06736E+1
239	15/03/2023	17:01:53.819	0.00000E+0	0.00000E+0	-1.38234E+2	-1.09387E+0	0.00000E+0	0.00000E+0	1.93755E+1	1.55203E+1	1.93742E+1	1.55211E+1
240	15/03/2023	17:01:55.263	0.00000E+0	0.00000E+0	-1.92022E+2	-4.59379E-1	0.00000E+0	0.00000E+0	1.84166E+1	1.65129E+1	1.84180E+1	1.65155E+1
241	15/03/2023	17:01:56.775	0.00000E+0	0.00000E+0	1.01144E+2	5.64874E-1	0.00000E+0	0.00000E+0	2.26504E+1	1.23217E+1	2.26509E+1	1.23213E+1
242	15/03/2023	17:01:58.258	0.00000E+0	0.00000E+0	2.17252E+2	3.15921E+0	0.00000E+0	0.00000E+0	2.42695E+1	1.06773E+1	2.42678E+1	1.06761E+1
