#Iteration	Date	Time	Chirp	Phase	RamanAxis	RatioMean	RatioStdDev
1	02/09/2022	15:33:15.695	0.00000000E+0	-3.14159265E+1	5.00000000E+0	3.11817090E-1	0.00000000E+0
2	02/09/2022	15:33:17.116	0.00000000E+0	-3.12065382E+1	5.00000000E+0	3.25356057E-1	0.00000000E+0
3	02/09/2022	15:33:18.656	0.00000000E+0	-3.09971498E+1	5.00000000E+0	3.34951836E-1	0.00000000E+0
4	02/09/2022	15:33:20.144	0.00000000E+0	-3.07877614E+1	5.00000000E+0	3.71298387E-1	0.00000000E+0
5	02/09/2022	15:33:21.544	0.00000000E+0	-3.05779895E+1	5.00000000E+0	3.91508473E-1	0.00000000E+0
6	02/09/2022	15:33:22.931	0.00000000E+0	-3.03686012E+1	5.00000000E+0	4.24374428E-1	0.00000000E+0
7	02/09/2022	15:33:24.527	0.00000000E+0	-3.01592128E+1	5.00000000E+0	4.42098484E-1	0.00000000E+0
8	02/09/2022	15:33:25.909	0.00000000E+0	-2.99498244E+1	5.00000000E+0	4.81270510E-1	0.00000000E+0
9	02/09/2022	15:33:27.431	0.00000000E+0	-2.97404360E+1	5.00000000E+0	5.17183453E-1	0.00000000E+0
10	02/09/2022	15:33:28.836	0.00000000E+0	-2.95310476E+1	5.00000000E+0	5.27949675E-1	0.00000000E+0
11	02/09/2022	15:33:30.210	0.00000000E+0	-2.93216593E+1	5.00000000E+0	5.55420855E-1	0.00000000E+0
12	02/09/2022	15:33:31.719	0.00000000E+0	-2.91122709E+1	5.00000000E+0	5.77851444E-1	0.00000000E+0
13	02/09/2022	15:33:33.086	0.00000000E+0	-2.89024990E+1	5.00000000E+0	5.93141451E-1	0.00000000E+0
14	02/09/2022	15:33:34.548	0.00000000E+0	-2.86931106E+1	5.00000000E+0	6.00248140E-1	0.00000000E+0
15	02/09/2022	15:33:36.070	0.00000000E+0	-2.84837223E+1	5.00000000E+0	5.91008698E-1	0.00000000E+0
16	02/09/2022	15:33:37.532	0.00000000E+0	-2.82743339E+1	5.00000000E+0	5.98820635E-1	0.00000000E+0
17	02/09/2022	15:33:39.078	0.00000000E+0	-2.80649455E+1	5.00000000E+0	5.81461956E-1	0.00000000E+0
18	02/09/2022	15:33:40.464	0.00000000E+0	-2.78555571E+1	5.00000000E+0	5.61858168E-1	0.00000000E+0
19	02/09/2022	15:33:41.854	0.00000000E+0	-2.76461687E+1	5.00000000E+0	5.30506832E-1	0.00000000E+0
20	02/09/2022	15:33:43.353	0.00000000E+0	-2.74363969E+1	5.00000000E+0	5.11259239E-1	0.00000000E+0
21	02/09/2022	15:33:44.751	0.00000000E+0	-2.72270085E+1	5.00000000E+0	4.81839776E-1	0.00000000E+0
22	02/09/2022	15:33:46.202	0.00000000E+0	-2.70176201E+1	5.00000000E+0	4.40960796E-1	0.00000000E+0
23	02/09/2022	15:33:47.534	0.00000000E+0	-2.68082317E+1	5.00000000E+0	4.11453613E-1	0.00000000E+0
24	02/09/2022	15:33:48.929	0.00000000E+0	-2.65988434E+1	5.00000000E+0	3.87947877E-1	0.00000000E+0
25	02/09/2022	15:33:50.395	0.00000000E+0	-2.63894550E+1	5.00000000E+0	3.57746478E-1	0.00000000E+0
26	02/09/2022	15:33:51.788	0.00000000E+0	-2.61800666E+1	5.00000000E+0	3.33144229E-1	0.00000000E+0
27	02/09/2022	15:33:53.195	0.00000000E+0	-2.59706782E+1	5.00000000E+0	3.21641932E-1	0.00000000E+0
28	02/09/2022	15:33:54.677	0.00000000E+0	-2.57609064E+1	5.00000000E+0	3.07224333E-1	0.00000000E+0
29	02/09/2022	15:33:56.062	0.00000000E+0	-2.55515180E+1	5.00000000E+0	3.10337037E-1	0.00000000E+0
30	02/09/2022	15:33:57.580	0.00000000E+0	-2.53421296E+1	5.00000000E+0	2.98430280E-1	0.00000000E+0
31	02/09/2022	15:33:58.991	0.00000000E+0	-2.51327412E+1	5.00000000E+0	3.10426038E-1	0.00000000E+0
32	02/09/2022	15:34:00.367	0.00000000E+0	-2.49233529E+1	5.00000000E+0	3.31793281E-1	0.00000000E+0
33	02/09/2022	15:34:01.839	0.00000000E+0	-2.47139645E+1	5.00000000E+0	3.46943828E-1	0.00000000E+0
34	02/09/2022	15:34:03.219	0.00000000E+0	-2.45045761E+1	5.00000000E+0	3.69571100E-1	0.00000000E+0
35	02/09/2022	15:34:04.641	0.00000000E+0	-2.42948042E+1	5.00000000E+0	3.86876683E-1	0.00000000E+0
36	02/09/2022	15:34:06.154	0.00000000E+0	-2.40854158E+1	5.00000000E+0	4.17282956E-1	0.00000000E+0
37	02/09/2022	15:34:07.545	0.00000000E+0	-2.38760275E+1	5.00000000E+0	4.53477680E-1	0.00000000E+0
38	02/09/2022	15:34:09.038	0.00000000E+0	-2.36666391E+1	5.00000000E+0	4.81879933E-1	0.00000000E+0
39	02/09/2022	15:34:10.434	0.00000000E+0	-2.34572507E+1	5.00000000E+0	5.18324485E-1	0.00000000E+0
40	02/09/2022	15:34:11.833	0.00000000E+0	-2.32478623E+1	5.00000000E+0	5.42551122E-1	0.00000000E+0
41	02/09/2022	15:34:13.320	0.00000000E+0	-2.30384740E+1	5.00000000E+0	5.55761017E-1	0.00000000E+0
42	02/09/2022	15:34:14.729	0.00000000E+0	-2.28290856E+1	5.00000000E+0	5.81881210E-1	0.00000000E+0
43	02/09/2022	15:34:16.215	0.00000000E+0	-2.26193137E+1	5.00000000E+0	5.87943071E-1	0.00000000E+0
44	02/09/2022	15:34:17.658	0.00000000E+0	-2.24099253E+1	5.00000000E+0	5.92963121E-1	0.00000000E+0
45	02/09/2022	15:34:19.063	0.00000000E+0	-2.22005370E+1	5.00000000E+0	6.05504370E-1	0.00000000E+0
46	02/09/2022	15:34:20.566	0.00000000E+0	-2.19911486E+1	5.00000000E+0	5.93239442E-1	0.00000000E+0
47	02/09/2022	15:34:21.959	0.00000000E+0	-2.17817602E+1	5.00000000E+0	5.77176063E-1	0.00000000E+0
48	02/09/2022	15:34:23.408	0.00000000E+0	-2.15723718E+1	5.00000000E+0	5.58875977E-1	0.00000000E+0
49	02/09/2022	15:34:24.929	0.00000000E+0	-2.13629834E+1	5.00000000E+0	5.35412032E-1	0.00000000E+0
50	02/09/2022	15:34:26.323	0.00000000E+0	-2.11532116E+1	5.00000000E+0	5.10242334E-1	0.00000000E+0
51	02/09/2022	15:34:27.779	0.00000000E+0	-2.09438232E+1	5.00000000E+0	4.65466841E-1	0.00000000E+0
52	02/09/2022	15:34:29.155	0.00000000E+0	-2.07344348E+1	5.00000000E+0	4.41196786E-1	0.00000000E+0
53	02/09/2022	15:34:30.538	0.00000000E+0	-2.05250464E+1	5.00000000E+0	4.16922470E-1	0.00000000E+0
54	02/09/2022	15:34:32.078	0.00000000E+0	-2.03156581E+1	5.00000000E+0	3.86351436E-1	0.00000000E+0
55	02/09/2022	15:34:33.461	0.00000000E+0	-2.01062697E+1	5.00000000E+0	3.57272712E-1	0.00000000E+0
56	02/09/2022	15:34:34.891	0.00000000E+0	-1.98968813E+1	5.00000000E+0	3.30977722E-1	0.00000000E+0
57	02/09/2022	15:34:36.267	0.00000000E+0	-1.96874929E+1	5.00000000E+0	3.23682600E-1	0.00000000E+0
58	02/09/2022	15:34:37.668	0.00000000E+0	-1.94777211E+1	5.00000000E+0	3.07675227E-1	0.00000000E+0
59	02/09/2022	15:34:39.153	0.00000000E+0	-1.92683327E+1	5.00000000E+0	3.07593477E-1	0.00000000E+0
60	02/09/2022	15:34:40.535	0.00000000E+0	-1.90589443E+1	5.00000000E+0	2.99852355E-1	0.00000000E+0
61	02/09/2022	15:34:41.979	0.00000000E+0	-1.88495559E+1	5.00000000E+0	3.08075212E-1	0.00000000E+0
62	02/09/2022	15:34:43.489	0.00000000E+0	-1.86401675E+1	5.00000000E+0	3.21915709E-1	0.00000000E+0
63	02/09/2022	15:34:44.872	0.00000000E+0	-1.84307792E+1	5.00000000E+0	3.41681258E-1	0.00000000E+0
64	02/09/2022	15:34:46.404	0.00000000E+0	-1.82213908E+1	5.00000000E+0	3.65405974E-1	0.00000000E+0
65	02/09/2022	15:34:47.782	0.00000000E+0	-1.80116189E+1	5.00000000E+0	3.93630145E-1	0.00000000E+0
66	02/09/2022	15:34:49.174	0.00000000E+0	-1.78022305E+1	5.00000000E+0	4.13583537E-1	0.00000000E+0
67	02/09/2022	15:34:50.684	0.00000000E+0	-1.75928422E+1	5.00000000E+0	4.41082459E-1	0.00000000E+0
68	02/09/2022	15:34:52.058	0.00000000E+0	-1.73834538E+1	5.00000000E+0	4.76554763E-1	0.00000000E+0
69	02/09/2022	15:34:53.467	0.00000000E+0	-1.71740654E+1	5.00000000E+0	5.15120344E-1	0.00000000E+0
70	02/09/2022	15:34:54.978	0.00000000E+0	-1.69646770E+1	5.00000000E+0	5.27816009E-1	0.00000000E+0
71	02/09/2022	15:34:56.361	0.00000000E+0	-1.67552887E+1	5.00000000E+0	5.54926111E-1	0.00000000E+0
72	02/09/2022	15:34:57.907	0.00000000E+0	-1.65459003E+1	5.00000000E+0	5.81180621E-1	0.00000000E+0
73	02/09/2022	15:34:59.309	0.00000000E+0	-1.63361284E+1	5.00000000E+0	5.91810905E-1	0.00000000E+0
74	02/09/2022	15:35:00.695	0.00000000E+0	-1.61267400E+1	5.00000000E+0	6.09668935E-1	0.00000000E+0
75	02/09/2022	15:35:02.160	0.00000000E+0	-1.59173516E+1	5.00000000E+0	6.02294510E-1	0.00000000E+0
76	02/09/2022	15:35:03.551	0.00000000E+0	-1.57079633E+1	5.00000000E+0	5.95990102E-1	0.00000000E+0
77	02/09/2022	15:35:04.939	0.00000000E+0	-1.54985749E+1	5.00000000E+0	5.71147129E-1	0.00000000E+0
78	02/09/2022	15:35:06.348	0.00000000E+0	-1.52891865E+1	5.00000000E+0	5.56965922E-1	0.00000000E+0
79	02/09/2022	15:35:07.714	0.00000000E+0	-1.50797981E+1	5.00000000E+0	5.34086608E-1	0.00000000E+0
80	02/09/2022	15:35:09.179	0.00000000E+0	-1.48700263E+1	5.00000000E+0	5.06627141E-1	0.00000000E+0
81	02/09/2022	15:35:10.583	0.00000000E+0	-1.46606379E+1	5.00000000E+0	4.80451974E-1	0.00000000E+0
82	02/09/2022	15:35:11.964	0.00000000E+0	-1.44512495E+1	5.00000000E+0	4.57111325E-1	0.00000000E+0
83	02/09/2022	15:35:13.483	0.00000000E+0	-1.42418611E+1	5.00000000E+0	4.13186742E-1	0.00000000E+0
84	02/09/2022	15:35:14.874	0.00000000E+0	-1.40324728E+1	5.00000000E+0	3.82294829E-1	0.00000000E+0
85	02/09/2022	15:35:16.404	0.00000000E+0	-1.38230844E+1	5.00000000E+0	3.61847437E-1	0.00000000E+0
86	02/09/2022	15:35:17.797	0.00000000E+0	-1.36136960E+1	5.00000000E+0	3.43244490E-1	0.00000000E+0
87	02/09/2022	15:35:19.185	0.00000000E+0	-1.34043076E+1	5.00000000E+0	3.26506129E-1	0.00000000E+0
88	02/09/2022	15:35:20.643	0.00000000E+0	-1.31945357E+1	5.00000000E+0	3.09608495E-1	0.00000000E+0
89	02/09/2022	15:35:22.050	0.00000000E+0	-1.29851474E+1	5.00000000E+0	3.02830492E-1	0.00000000E+0
90	02/09/2022	15:35:23.492	0.00000000E+0	-1.27757590E+1	5.00000000E+0	3.05416624E-1	0.00000000E+0
91	02/09/2022	15:35:24.986	0.00000000E+0	-1.25663706E+1	5.00000000E+0	3.05329364E-1	0.00000000E+0
92	02/09/2022	15:35:26.422	0.00000000E+0	-1.23569822E+1	5.00000000E+0	3.27592238E-1	0.00000000E+0
93	02/09/2022	15:35:27.935	0.00000000E+0	-1.21475939E+1	5.00000000E+0	3.44845172E-1	0.00000000E+0
94	02/09/2022	15:35:29.319	0.00000000E+0	-1.19382055E+1	5.00000000E+0	3.54954377E-1	0.00000000E+0
95	02/09/2022	15:35:30.706	0.00000000E+0	-1.17284336E+1	5.00000000E+0	4.07692023E-1	0.00000000E+0
96	02/09/2022	15:35:32.164	0.00000000E+0	-1.15190452E+1	5.00000000E+0	4.14960845E-1	0.00000000E+0
97	02/09/2022	15:35:33.543	0.00000000E+0	-1.13096569E+1	5.00000000E+0	4.59924829E-1	0.00000000E+0
98	02/09/2022	15:35:35.000	0.00000000E+0	-1.11002685E+1	5.00000000E+0	4.84652823E-1	0.00000000E+0
99	02/09/2022	15:35:36.511	0.00000000E+0	-1.08908801E+1	5.00000000E+0	5.11057732E-1	0.00000000E+0
100	02/09/2022	15:35:37.876	0.00000000E+0	-1.06814917E+1	5.00000000E+0	5.37470044E-1	0.00000000E+0
101	02/09/2022	15:35:39.376	0.00000000E+0	-1.04721033E+1	5.00000000E+0	5.72714878E-1	0.00000000E+0
102	02/09/2022	15:35:40.769	0.00000000E+0	-1.02627150E+1	5.00000000E+0	5.77873287E-1	0.00000000E+0
103	02/09/2022	15:35:42.162	0.00000000E+0	-1.00529431E+1	5.00000000E+0	5.91546212E-1	0.00000000E+0
104	02/09/2022	15:35:43.653	0.00000000E+0	-9.84355472E+0	5.00000000E+0	6.02286488E-1	0.00000000E+0
105	02/09/2022	15:35:45.061	0.00000000E+0	-9.63416634E+0	5.00000000E+0	6.06792538E-1	0.00000000E+0
106	02/09/2022	15:35:46.485	0.00000000E+0	-9.42477796E+0	5.00000000E+0	5.96267308E-1	0.00000000E+0
107	02/09/2022	15:35:47.875	0.00000000E+0	-9.21538958E+0	5.00000000E+0	5.75077832E-1	0.00000000E+0
108	02/09/2022	15:35:49.244	0.00000000E+0	-9.00600121E+0	5.00000000E+0	5.64549857E-1	0.00000000E+0
109	02/09/2022	15:35:50.791	0.00000000E+0	-8.79661283E+0	5.00000000E+0	5.37296232E-1	0.00000000E+0
110	02/09/2022	15:35:52.159	0.00000000E+0	-8.58684096E+0	5.00000000E+0	5.03338554E-1	0.00000000E+0
111	02/09/2022	15:35:53.570	0.00000000E+0	-8.37745258E+0	5.00000000E+0	4.82414975E-1	0.00000000E+0
112	02/09/2022	15:35:54.960	0.00000000E+0	-8.16806420E+0	5.00000000E+0	4.51923774E-1	0.00000000E+0
113	02/09/2022	15:35:56.359	0.00000000E+0	-7.95867582E+0	5.00000000E+0	4.19781622E-1	0.00000000E+0
114	02/09/2022	15:35:57.821	0.00000000E+0	-7.74928745E+0	5.00000000E+0	3.91925579E-1	0.00000000E+0
115	02/09/2022	15:35:59.253	0.00000000E+0	-7.53989907E+0	5.00000000E+0	3.61828008E-1	0.00000000E+0
116	02/09/2022	15:36:00.688	0.00000000E+0	-7.33051069E+0	5.00000000E+0	3.33798490E-1	0.00000000E+0
117	02/09/2022	15:36:02.195	0.00000000E+0	-7.12112231E+0	5.00000000E+0	3.15698624E-1	0.00000000E+0
118	02/09/2022	15:36:03.589	0.00000000E+0	-6.91135044E+0	5.00000000E+0	3.10489032E-1	0.00000000E+0
119	02/09/2022	15:36:05.045	0.00000000E+0	-6.70196206E+0	5.00000000E+0	3.04852931E-1	0.00000000E+0
120	02/09/2022	15:36:06.466	0.00000000E+0	-6.49257368E+0	5.00000000E+0	2.98760875E-1	0.00000000E+0
121	02/09/2022	15:36:07.856	0.00000000E+0	-6.28318531E+0	5.00000000E+0	3.16512871E-1	0.00000000E+0
122	02/09/2022	15:36:09.336	0.00000000E+0	-6.07379693E+0	5.00000000E+0	3.24231057E-1	0.00000000E+0
123	02/09/2022	15:36:10.747	0.00000000E+0	-5.86440855E+0	5.00000000E+0	3.44237560E-1	0.00000000E+0
124	02/09/2022	15:36:12.162	0.00000000E+0	-5.65502017E+0	5.00000000E+0	3.68006565E-1	0.00000000E+0
125	02/09/2022	15:36:13.654	0.00000000E+0	-5.44524830E+0	5.00000000E+0	3.96446136E-1	0.00000000E+0
126	02/09/2022	15:36:15.106	0.00000000E+0	-5.23585992E+0	5.00000000E+0	4.33257193E-1	0.00000000E+0
127	02/09/2022	15:36:16.586	0.00000000E+0	-5.02647155E+0	5.00000000E+0	4.55888404E-1	0.00000000E+0
128	02/09/2022	15:36:18.031	0.00000000E+0	-4.81708317E+0	5.00000000E+0	4.97743200E-1	0.00000000E+0
129	02/09/2022	15:36:19.430	0.00000000E+0	-4.60769479E+0	5.00000000E+0	5.09774873E-1	0.00000000E+0
130	02/09/2022	15:36:20.919	0.00000000E+0	-4.39830641E+0	5.00000000E+0	5.50464352E-1	0.00000000E+0
131	02/09/2022	15:36:22.313	0.00000000E+0	-4.18891804E+0	5.00000000E+0	5.71966923E-1	0.00000000E+0
132	02/09/2022	15:36:23.699	0.00000000E+0	-3.97952966E+0	5.00000000E+0	5.84695608E-1	0.00000000E+0
133	02/09/2022	15:36:25.124	0.00000000E+0	-3.76975779E+0	5.00000000E+0	6.00989310E-1	0.00000000E+0
134	02/09/2022	15:36:26.510	0.00000000E+0	-3.56036941E+0	5.00000000E+0	6.00028406E-1	0.00000000E+0
135	02/09/2022	15:36:27.969	0.00000000E+0	-3.35098103E+0	5.00000000E+0	6.00896368E-1	0.00000000E+0
136	02/09/2022	15:36:29.360	0.00000000E+0	-3.14159265E+0	5.00000000E+0	5.98654820E-1	0.00000000E+0
137	02/09/2022	15:36:30.750	0.00000000E+0	-2.93220428E+0	5.00000000E+0	5.80198274E-1	0.00000000E+0
138	02/09/2022	15:36:32.247	0.00000000E+0	-2.72281590E+0	5.00000000E+0	5.64497957E-1	0.00000000E+0
139	02/09/2022	15:36:33.631	0.00000000E+0	-2.51342752E+0	5.00000000E+0	5.39226326E-1	0.00000000E+0
140	02/09/2022	15:36:35.386	0.00000000E+0	-2.30365565E+0	5.00000000E+0	5.13158489E-1	0.00000000E+0
141	02/09/2022	15:36:36.795	0.00000000E+0	-2.09426727E+0	5.00000000E+0	4.74089540E-1	0.00000000E+0
142	02/09/2022	15:36:38.184	0.00000000E+0	-1.88487889E+0	5.00000000E+0	4.46640140E-1	0.00000000E+0
143	02/09/2022	15:36:39.631	0.00000000E+0	-1.67549052E+0	5.00000000E+0	4.22571724E-1	0.00000000E+0
144	02/09/2022	15:36:41.032	0.00000000E+0	-1.46610214E+0	5.00000000E+0	3.81739411E-1	0.00000000E+0
145	02/09/2022	15:36:42.420	0.00000000E+0	-1.25671376E+0	5.00000000E+0	3.58557597E-1	0.00000000E+0
146	02/09/2022	15:36:43.902	0.00000000E+0	-1.04732538E+0	5.00000000E+0	3.36728656E-1	0.00000000E+0
147	02/09/2022	15:36:45.294	0.00000000E+0	-8.37937005E-1	5.00000000E+0	3.22877947E-1	0.00000000E+0
148	02/09/2022	15:36:46.799	0.00000000E+0	-6.28165133E-1	5.00000000E+0	3.05753632E-1	0.00000000E+0
149	02/09/2022	15:36:48.191	0.00000000E+0	-4.18776755E-1	5.00000000E+0	3.04706243E-1	0.00000000E+0
150	02/09/2022	15:36:49.591	0.00000000E+0	-2.09388378E-1	5.00000000E+0	3.04935802E-1	0.00000000E+0
151	02/09/2022	15:36:51.142	0.00000000E+0	0.00000000E+0	5.00000000E+0	3.08328075E-1	0.00000000E+0
152	02/09/2022	15:36:52.548	0.00000000E+0	2.09388378E-1	5.00000000E+0	3.24381479E-1	0.00000000E+0
153	02/09/2022	15:36:54.046	0.00000000E+0	4.18776755E-1	5.00000000E+0	3.32444733E-1	0.00000000E+0
154	02/09/2022	15:36:55.484	0.00000000E+0	6.28165133E-1	5.00000000E+0	3.59699993E-1	0.00000000E+0
155	02/09/2022	15:36:56.875	0.00000000E+0	8.37937005E-1	5.00000000E+0	3.78547561E-1	0.00000000E+0
156	02/09/2022	15:36:58.346	0.00000000E+0	1.04732538E+0	5.00000000E+0	4.27868852E-1	0.00000000E+0
157	02/09/2022	15:36:59.732	0.00000000E+0	1.25671376E+0	5.00000000E+0	4.45404774E-1	0.00000000E+0
158	02/09/2022	15:37:01.141	0.00000000E+0	1.46610214E+0	5.00000000E+0	4.90851493E-1	0.00000000E+0
159	02/09/2022	15:37:02.650	0.00000000E+0	1.67549052E+0	5.00000000E+0	5.21142642E-1	0.00000000E+0
160	02/09/2022	15:37:04.046	0.00000000E+0	1.88487889E+0	5.00000000E+0	5.35898521E-1	0.00000000E+0
161	02/09/2022	15:37:05.534	0.00000000E+0	2.09426727E+0	5.00000000E+0	5.57614815E-1	0.00000000E+0
162	02/09/2022	15:37:06.907	0.00000000E+0	2.30365565E+0	5.00000000E+0	5.74502291E-1	0.00000000E+0
163	02/09/2022	15:37:08.346	0.00000000E+0	2.51342752E+0	5.00000000E+0	5.95226901E-1	0.00000000E+0
164	02/09/2022	15:37:09.916	0.00000000E+0	2.72281590E+0	5.00000000E+0	6.09165629E-1	0.00000000E+0
165	02/09/2022	15:37:11.291	0.00000000E+0	2.93220428E+0	5.00000000E+0	6.06616455E-1	0.00000000E+0
166	02/09/2022	15:37:12.741	0.00000000E+0	3.14159265E+0	5.00000000E+0	6.00693678E-1	0.00000000E+0
167	02/09/2022	15:37:14.071	0.00000000E+0	3.35098103E+0	5.00000000E+0	5.91013360E-1	0.00000000E+0
168	02/09/2022	15:37:15.466	0.00000000E+0	3.56036941E+0	5.00000000E+0	5.55963804E-1	0.00000000E+0
169	02/09/2022	15:37:16.955	0.00000000E+0	3.76975779E+0	5.00000000E+0	5.34384461E-1	0.00000000E+0
170	02/09/2022	15:37:18.324	0.00000000E+0	3.97952966E+0	5.00000000E+0	5.10312736E-1	0.00000000E+0
171	02/09/2022	15:37:19.770	0.00000000E+0	4.18891804E+0	5.00000000E+0	4.86912330E-1	0.00000000E+0
172	02/09/2022	15:37:21.282	0.00000000E+0	4.39830641E+0	5.00000000E+0	4.58813876E-1	0.00000000E+0
173	02/09/2022	15:37:22.671	0.00000000E+0	4.60769479E+0	5.00000000E+0	4.19067959E-1	0.00000000E+0
174	02/09/2022	15:37:24.161	0.00000000E+0	4.81708317E+0	5.00000000E+0	4.03322793E-1	0.00000000E+0
175	02/09/2022	15:37:25.546	0.00000000E+0	5.02647155E+0	5.00000000E+0	3.55242065E-1	0.00000000E+0
176	02/09/2022	15:37:26.948	0.00000000E+0	5.23585992E+0	5.00000000E+0	3.40171696E-1	0.00000000E+0
177	02/09/2022	15:37:28.413	0.00000000E+0	5.44524830E+0	5.00000000E+0	3.19082341E-1	0.00000000E+0
178	02/09/2022	15:37:29.795	0.00000000E+0	5.65502017E+0	5.00000000E+0	3.05365384E-1	0.00000000E+0
179	02/09/2022	15:37:31.193	0.00000000E+0	5.86440855E+0	5.00000000E+0	3.04841805E-1	0.00000000E+0
180	02/09/2022	15:37:32.706	0.00000000E+0	6.07379693E+0	5.00000000E+0	3.08483133E-1	0.00000000E+0
181	02/09/2022	15:37:34.093	0.00000000E+0	6.28318531E+0	5.00000000E+0	3.16061641E-1	0.00000000E+0
182	02/09/2022	15:37:35.563	0.00000000E+0	6.49257368E+0	5.00000000E+0	3.15854112E-1	0.00000000E+0
183	02/09/2022	15:37:36.953	0.00000000E+0	6.70196206E+0	5.00000000E+0	3.35285934E-1	0.00000000E+0
184	02/09/2022	15:37:38.357	0.00000000E+0	6.91135044E+0	5.00000000E+0	3.71089082E-1	0.00000000E+0
185	02/09/2022	15:37:39.831	0.00000000E+0	7.12112231E+0	5.00000000E+0	3.99179857E-1	0.00000000E+0
186	02/09/2022	15:37:41.195	0.00000000E+0	7.33051069E+0	5.00000000E+0	4.15060247E-1	0.00000000E+0
187	02/09/2022	15:37:42.641	0.00000000E+0	7.53989907E+0	5.00000000E+0	4.51916933E-1	0.00000000E+0
188	02/09/2022	15:37:43.977	0.00000000E+0	7.74928745E+0	5.00000000E+0	4.96951896E-1	0.00000000E+0
189	02/09/2022	15:37:45.376	0.00000000E+0	7.95867582E+0	5.00000000E+0	5.15907801E-1	0.00000000E+0
190	02/09/2022	15:37:46.838	0.00000000E+0	8.16806420E+0	5.00000000E+0	5.44134082E-1	0.00000000E+0
191	02/09/2022	15:37:48.234	0.00000000E+0	8.37745258E+0	5.00000000E+0	5.56342272E-1	0.00000000E+0
192	02/09/2022	15:37:49.673	0.00000000E+0	8.58684096E+0	5.00000000E+0	5.81992264E-1	0.00000000E+0
193	02/09/2022	15:37:51.156	0.00000000E+0	8.79661283E+0	5.00000000E+0	5.94838263E-1	0.00000000E+0
194	02/09/2022	15:37:52.548	0.00000000E+0	9.00600121E+0	5.00000000E+0	6.01455623E-1	0.00000000E+0
195	02/09/2022	15:37:54.057	0.00000000E+0	9.21538958E+0	5.00000000E+0	6.03523193E-1	0.00000000E+0
196	02/09/2022	15:37:55.446	0.00000000E+0	9.42477796E+0	5.00000000E+0	5.98802675E-1	0.00000000E+0
197	02/09/2022	15:37:56.831	0.00000000E+0	9.63416634E+0	5.00000000E+0	5.88501374E-1	0.00000000E+0
198	02/09/2022	15:37:58.289	0.00000000E+0	9.84355472E+0	5.00000000E+0	5.70786479E-1	0.00000000E+0
199	02/09/2022	15:37:59.731	0.00000000E+0	1.00529431E+1	5.00000000E+0	5.39237991E-1	0.00000000E+0
200	02/09/2022	15:38:01.114	0.00000000E+0	1.02627150E+1	5.00000000E+0	5.20221369E-1	0.00000000E+0
201	02/09/2022	15:38:02.615	0.00000000E+0	1.04721033E+1	5.00000000E+0	4.84290063E-1	0.00000000E+0
202	02/09/2022	15:38:03.979	0.00000000E+0	1.06814917E+1	5.00000000E+0	4.51063847E-1	0.00000000E+0
203	02/09/2022	15:38:05.468	0.00000000E+0	1.08908801E+1	5.00000000E+0	4.21401161E-1	0.00000000E+0
204	02/09/2022	15:38:06.875	0.00000000E+0	1.11002685E+1	5.00000000E+0	3.93894238E-1	0.00000000E+0
205	02/09/2022	15:38:08.248	0.00000000E+0	1.13096569E+1	5.00000000E+0	3.53981197E-1	0.00000000E+0
206	02/09/2022	15:38:09.757	0.00000000E+0	1.15190452E+1	5.00000000E+0	3.43087194E-1	0.00000000E+0
207	02/09/2022	15:38:11.133	0.00000000E+0	1.17284336E+1	5.00000000E+0	3.24396904E-1	0.00000000E+0
208	02/09/2022	15:38:12.669	0.00000000E+0	1.19382055E+1	5.00000000E+0	3.16955142E-1	0.00000000E+0
209	02/09/2022	15:38:14.094	0.00000000E+0	1.21475939E+1	5.00000000E+0	3.07551774E-1	0.00000000E+0
210	02/09/2022	15:38:15.461	0.00000000E+0	1.23569822E+1	5.00000000E+0	3.05781192E-1	0.00000000E+0
211	02/09/2022	15:38:17.000	0.00000000E+0	1.25663706E+1	5.00000000E+0	3.11778393E-1	0.00000000E+0
212	02/09/2022	15:38:18.395	0.00000000E+0	1.27757590E+1	5.00000000E+0	3.23204312E-1	0.00000000E+0
213	02/09/2022	15:38:19.778	0.00000000E+0	1.29851474E+1	5.00000000E+0	3.39931879E-1	0.00000000E+0
214	02/09/2022	15:38:21.277	0.00000000E+0	1.31945357E+1	5.00000000E+0	3.63660381E-1	0.00000000E+0
215	02/09/2022	15:38:22.664	0.00000000E+0	1.34043076E+1	5.00000000E+0	3.88127972E-1	0.00000000E+0
216	02/09/2022	15:38:24.140	0.00000000E+0	1.36136960E+1	5.00000000E+0	4.26764829E-1	0.00000000E+0
217	02/09/2022	15:38:25.526	0.00000000E+0	1.38230844E+1	5.00000000E+0	4.49218226E-1	0.00000000E+0
218	02/09/2022	15:38:26.920	0.00000000E+0	1.40324728E+1	5.00000000E+0	4.86392328E-1	0.00000000E+0
219	02/09/2022	15:38:28.509	0.00000000E+0	1.42418611E+1	5.00000000E+0	5.09472348E-1	0.00000000E+0
220	02/09/2022	15:38:29.885	0.00000000E+0	1.44512495E+1	5.00000000E+0	5.40420005E-1	0.00000000E+0
221	02/09/2022	15:38:31.346	0.00000000E+0	1.46606379E+1	5.00000000E+0	5.59435254E-1	0.00000000E+0
222	02/09/2022	15:38:32.748	0.00000000E+0	1.48700263E+1	5.00000000E+0	5.82203390E-1	0.00000000E+0
223	02/09/2022	15:38:34.152	0.00000000E+0	1.50797981E+1	5.00000000E+0	5.94580994E-1	0.00000000E+0
224	02/09/2022	15:38:35.620	0.00000000E+0	1.52891865E+1	5.00000000E+0	6.02215721E-1	0.00000000E+0
225	02/09/2022	15:38:37.007	0.00000000E+0	1.54985749E+1	5.00000000E+0	6.06811896E-1	0.00000000E+0
226	02/09/2022	15:38:38.476	0.00000000E+0	1.57079633E+1	5.00000000E+0	6.00943535E-1	0.00000000E+0
227	02/09/2022	15:38:39.971	0.00000000E+0	1.59173516E+1	5.00000000E+0	5.80824793E-1	0.00000000E+0
228	02/09/2022	15:38:41.364	0.00000000E+0	1.61267400E+1	5.00000000E+0	5.69898531E-1	0.00000000E+0
229	02/09/2022	15:38:42.834	0.00000000E+0	1.63361284E+1	5.00000000E+0	5.39037977E-1	0.00000000E+0
230	02/09/2022	15:38:44.252	0.00000000E+0	1.65459003E+1	5.00000000E+0	5.10805332E-1	0.00000000E+0
231	02/09/2022	15:38:45.661	0.00000000E+0	1.67552887E+1	5.00000000E+0	4.85489497E-1	0.00000000E+0
232	02/09/2022	15:38:47.159	0.00000000E+0	1.69646770E+1	5.00000000E+0	4.51201825E-1	0.00000000E+0
233	02/09/2022	15:38:48.539	0.00000000E+0	1.71740654E+1	5.00000000E+0	4.19099105E-1	0.00000000E+0
234	02/09/2022	15:38:50.010	0.00000000E+0	1.73834538E+1	5.00000000E+0	3.99266593E-1	0.00000000E+0
235	02/09/2022	15:38:51.508	0.00000000E+0	1.75928422E+1	5.00000000E+0	3.68398583E-1	0.00000000E+0
236	02/09/2022	15:38:52.900	0.00000000E+0	1.78022305E+1	5.00000000E+0	3.42292291E-1	0.00000000E+0
237	02/09/2022	15:38:54.372	0.00000000E+0	1.80116189E+1	5.00000000E+0	3.22631920E-1	0.00000000E+0
238	02/09/2022	15:38:55.806	0.00000000E+0	1.82213908E+1	5.00000000E+0	3.08093876E-1	0.00000000E+0
239	02/09/2022	15:38:57.200	0.00000000E+0	1.84307792E+1	5.00000000E+0	3.07480300E-1	0.00000000E+0
240	02/09/2022	15:38:58.703	0.00000000E+0	1.86401675E+1	5.00000000E+0	3.03384925E-1	0.00000000E+0
241	02/09/2022	15:39:00.100	0.00000000E+0	1.88495559E+1	5.00000000E+0	3.11638155E-1	0.00000000E+0
242	02/09/2022	15:39:01.582	0.00000000E+0	1.90589443E+1	5.00000000E+0	3.27752527E-1	0.00000000E+0
243	02/09/2022	15:39:03.031	0.00000000E+0	1.92683327E+1	5.00000000E+0	3.39214441E-1	0.00000000E+0
244	02/09/2022	15:39:04.409	0.00000000E+0	1.94777211E+1	5.00000000E+0	3.64126609E-1	0.00000000E+0
245	02/09/2022	15:39:05.909	0.00000000E+0	1.96874929E+1	5.00000000E+0	4.02182771E-1	0.00000000E+0
246	02/09/2022	15:39:07.303	0.00000000E+0	1.98968813E+1	5.00000000E+0	4.20902918E-1	0.00000000E+0
247	02/09/2022	15:39:08.713	0.00000000E+0	2.01062697E+1	5.00000000E+0	4.66965163E-1	0.00000000E+0
248	02/09/2022	15:39:10.207	0.00000000E+0	2.03156581E+1	5.00000000E+0	4.90904056E-1	0.00000000E+0
249	02/09/2022	15:39:11.591	0.00000000E+0	2.05250464E+1	5.00000000E+0	5.23495163E-1	0.00000000E+0
250	02/09/2022	15:39:13.048	0.00000000E+0	2.07344348E+1	5.00000000E+0	5.40096289E-1	0.00000000E+0
251	02/09/2022	15:39:14.419	0.00000000E+0	2.09438232E+1	5.00000000E+0	5.79228875E-1	0.00000000E+0
252	02/09/2022	15:39:15.803	0.00000000E+0	2.11532116E+1	5.00000000E+0	5.94418216E-1	0.00000000E+0
253	02/09/2022	15:39:17.258	0.00000000E+0	2.13629834E+1	5.00000000E+0	6.04089542E-1	0.00000000E+0
254	02/09/2022	15:39:18.636	0.00000000E+0	2.15723718E+1	5.00000000E+0	6.07053383E-1	0.00000000E+0
255	02/09/2022	15:39:20.093	0.00000000E+0	2.17817602E+1	5.00000000E+0	6.11629680E-1	0.00000000E+0
256	02/09/2022	15:39:21.560	0.00000000E+0	2.19911486E+1	5.00000000E+0	6.02419133E-1	0.00000000E+0
257	02/09/2022	15:39:22.949	0.00000000E+0	2.22005370E+1	5.00000000E+0	5.91430217E-1	0.00000000E+0
258	02/09/2022	15:39:24.448	0.00000000E+0	2.24099253E+1	5.00000000E+0	5.69018546E-1	0.00000000E+0
259	02/09/2022	15:39:25.829	0.00000000E+0	2.26193137E+1	5.00000000E+0	5.44957354E-1	0.00000000E+0
260	02/09/2022	15:39:27.216	0.00000000E+0	2.28290856E+1	5.00000000E+0	5.29867427E-1	0.00000000E+0
261	02/09/2022	15:39:28.798	0.00000000E+0	2.30384740E+1	5.00000000E+0	4.91456278E-1	0.00000000E+0
262	02/09/2022	15:39:30.197	0.00000000E+0	2.32478623E+1	5.00000000E+0	4.44196677E-1	0.00000000E+0
263	02/09/2022	15:39:31.744	0.00000000E+0	2.34572507E+1	5.00000000E+0	4.13120551E-1	0.00000000E+0
264	02/09/2022	15:39:33.145	0.00000000E+0	2.36666391E+1	5.00000000E+0	3.92970865E-1	0.00000000E+0
265	02/09/2022	15:39:34.541	0.00000000E+0	2.38760275E+1	5.00000000E+0	3.60158096E-1	0.00000000E+0
266	02/09/2022	15:39:36.004	0.00000000E+0	2.40854158E+1	5.00000000E+0	3.45876663E-1	0.00000000E+0
267	02/09/2022	15:39:37.407	0.00000000E+0	2.42948042E+1	5.00000000E+0	3.21939851E-1	0.00000000E+0
268	02/09/2022	15:39:38.785	0.00000000E+0	2.45045761E+1	5.00000000E+0	3.12694357E-1	0.00000000E+0
269	02/09/2022	15:39:40.304	0.00000000E+0	2.47139645E+1	5.00000000E+0	2.98100102E-1	0.00000000E+0
270	02/09/2022	15:39:41.692	0.00000000E+0	2.49233529E+1	5.00000000E+0	3.04009751E-1	0.00000000E+0
271	02/09/2022	15:39:43.127	0.00000000E+0	2.51327412E+1	5.00000000E+0	3.18244618E-1	0.00000000E+0
272	02/09/2022	15:39:44.507	0.00000000E+0	2.53421296E+1	5.00000000E+0	3.20670888E-1	0.00000000E+0
273	02/09/2022	15:39:45.906	0.00000000E+0	2.55515180E+1	5.00000000E+0	3.36202674E-1	0.00000000E+0
274	02/09/2022	15:39:47.460	0.00000000E+0	2.57609064E+1	5.00000000E+0	3.72274003E-1	0.00000000E+0
275	02/09/2022	15:39:48.877	0.00000000E+0	2.59706782E+1	5.00000000E+0	3.86075603E-1	0.00000000E+0
276	02/09/2022	15:39:50.265	0.00000000E+0	2.61800666E+1	5.00000000E+0	4.21124841E-1	0.00000000E+0
277	02/09/2022	15:39:51.624	0.00000000E+0	2.63894550E+1	5.00000000E+0	4.58083631E-1	0.00000000E+0
278	02/09/2022	15:39:52.995	0.00000000E+0	2.65988434E+1	5.00000000E+0	4.90197454E-1	0.00000000E+0
279	02/09/2022	15:39:54.526	0.00000000E+0	2.68082317E+1	5.00000000E+0	5.14005118E-1	0.00000000E+0
280	02/09/2022	15:39:55.930	0.00000000E+0	2.70176201E+1	5.00000000E+0	5.41413148E-1	0.00000000E+0
281	02/09/2022	15:39:57.385	0.00000000E+0	2.72270085E+1	5.00000000E+0	5.65154120E-1	0.00000000E+0
282	02/09/2022	15:39:58.941	0.00000000E+0	2.74363969E+1	5.00000000E+0	5.81266152E-1	0.00000000E+0
283	02/09/2022	15:40:00.334	0.00000000E+0	2.76461687E+1	5.00000000E+0	6.02503689E-1	0.00000000E+0
284	02/09/2022	15:40:01.738	0.00000000E+0	2.78555571E+1	5.00000000E+0	6.11299910E-1	0.00000000E+0
285	02/09/2022	15:40:03.220	0.00000000E+0	2.80649455E+1	5.00000000E+0	6.08127304E-1	0.00000000E+0
286	02/09/2022	15:40:04.627	0.00000000E+0	2.82743339E+1	5.00000000E+0	5.96327134E-1	0.00000000E+0
287	02/09/2022	15:40:06.150	0.00000000E+0	2.84837223E+1	5.00000000E+0	5.89143007E-1	0.00000000E+0
288	02/09/2022	15:40:07.516	0.00000000E+0	2.86931106E+1	5.00000000E+0	5.63078521E-1	0.00000000E+0
289	02/09/2022	15:40:08.987	0.00000000E+0	2.89024990E+1	5.00000000E+0	5.43250830E-1	0.00000000E+0
290	02/09/2022	15:40:10.478	0.00000000E+0	2.91122709E+1	5.00000000E+0	5.10175520E-1	0.00000000E+0
291	02/09/2022	15:40:11.860	0.00000000E+0	2.93216593E+1	5.00000000E+0	4.83952095E-1	0.00000000E+0
292	02/09/2022	15:40:13.384	0.00000000E+0	2.95310476E+1	5.00000000E+0	4.55669611E-1	0.00000000E+0
293	02/09/2022	15:40:14.769	0.00000000E+0	2.97404360E+1	5.00000000E+0	4.17366057E-1	0.00000000E+0
294	02/09/2022	15:40:16.192	0.00000000E+0	2.99498244E+1	5.00000000E+0	3.92783034E-1	0.00000000E+0
295	02/09/2022	15:40:17.701	0.00000000E+0	3.01592128E+1	5.00000000E+0	3.59817560E-1	0.00000000E+0
296	02/09/2022	15:40:19.071	0.00000000E+0	3.03686012E+1	5.00000000E+0	3.42634518E-1	0.00000000E+0
297	02/09/2022	15:40:20.545	0.00000000E+0	3.05779895E+1	5.00000000E+0	3.22126814E-1	0.00000000E+0
298	02/09/2022	15:40:22.001	0.00000000E+0	3.07877614E+1	5.00000000E+0	3.11950920E-1	0.00000000E+0
299	02/09/2022	15:40:23.387	0.00000000E+0	3.09971498E+1	5.00000000E+0	3.06353637E-1	0.00000000E+0
300	02/09/2022	15:40:24.912	0.00000000E+0	3.12065382E+1	5.00000000E+0	2.99663032E-1	0.00000000E+0
301	02/09/2022	15:40:26.317	0.00000000E+0	3.14159265E+1	5.00000000E+0	3.09365711E-1	0.00000000E+0
