#Iteration	Date	Time	STSX	STSY	RotationRateX	RotationRateY	FrCntX	FrCntY	TiptiltCmd1	TiptiltCmd2	TiptiltMonitor1	TiptiltMonitor2
1	02/09/2022	15:33:15.695	0.00000E+0	0.00000E+0	4.00000E+1	0.00000E+0	0.00000E+0	0.00000E+0	2.00000E+1	1.40000E+1	1.99990E+1	1.39996E+1
2	02/09/2022	15:33:17.116	0.00000E+0	0.00000E+0	4.00000E+1	0.00000E+0	0.00000E+0	0.00000E+0	2.00000E+1	1.40000E+1	1.99987E+1	1.40005E+1
3	02/09/2022	15:33:18.656	0.00000E+0	0.00000E+0	4.00000E+1	0.00000E+0	0.00000E+0	0.00000E+0	2.00000E+1	1.40000E+1	1.99997E+1	1.40004E+1
4	02/09/2022	15:33:20.144	0.00000E+0	0.00000E+0	4.00000E+1	0.00000E+0	0.00000E+0	0.00000E+0	2.00000E+1	1.40000E+1	2.00013E+1	1.39997E+1
5	02/09/2022	15:33:21.544	0.00000E+0	0.00000E+0	4.00000E+1	0.00000E+0	0.00000E+0	0.00000E+0	2.00000E+1	1.40000E+1	1.99997E+1	1.39988E+1
6	02/09/2022	15:33:22.931	0.00000E+0	0.00000E+0	4.00000E+1	0.00000E+0	0.00000E+0	0.00000E+0	2.00000E+1	1.40000E+1	1.99989E+1	1.39979E+1
7	02/09/2022	15:33:24.527	0.00000E+0	0.00000E+0	4.00000E+1	0.00000E+0	0.00000E+0	0.00000E+0	2.00000E+1	1.40000E+1	2.00028E+1	1.40001E+1
8	02/09/2022	15:33:25.909	0.00000E+0	0.00000E+0	4.00000E+1	0.00000E+0	0.00000E+0	0.00000E+0	2.00000E+1	1.40000E+1	1.99969E+1	1.39988E+1
9	02/09/2022	15:33:27.431	0.00000E+0	0.00000E+0	4.00000E+1	0.00000E+0	0.00000E+0	0.00000E+0	2.00000E+1	1.40000E+1	2.00000E+1	1.40022E+1
10	02/09/2022	15:33:28.836	0.00000E+0	0.00000E+0	4.00000E+1	0.00000E+0	0.00000E+0	0.00000E+0	2.00000E+1	1.40000E+1	1.99970E+1	1.39993E+1
11	02/09/2022	15:33:30.210	0.00000E+0	0.00000E+0	4.00000E+1	0.00000E+0	0.00000E+0	0.00000E+0	2.00000E+1	1.40000E+1	2.00014E+1	1.40008E+1
12	02/09/2022	15:33:31.719	0.00000E+0	0.00000E+0	4.00000E+1	0.00000E+0	0.00000E+0	0.00000E+0	2.00000E+1	1.40000E+1	2.00029E+1	1.39990E+1
13	02/09/2022	15:33:33.086	0.00000E+0	0.00000E+0	4.00000E+1	0.00000E+0	0.00000E+0	0.00000E+0	2.00000E+1	1.40000E+1	1.99973E+1	1.40030E+1
14	02/09/2022	15:33:34.548	0.00000E+0	0.00000E+0	4.00000E+1	0.00000E+0	0.00000E+0	0.00000E+0	2.00000E+1	1.40000E+1	1.99996E+1	1.40027E+1
15	02/09/2022	15:33:36.070	0.00000E+0	0.00000E+0	4.00000E+1	0.00000E+0	0.00000E+0	0.00000E+0	2.00000E+1	1.40000E+1	2.00005E+1	1.40007E+1
16	02/09/2022	15:33:37.532	0.00000E+0	0.00000E+0	4.00000E+1	0.00000E+0	0.00000E+0	0.00000E+0	2.00000E+1	1.40000E+1	1.99989E+1	1.40016E+1
17	02/09/2022	15:33:39.078	0.00000E+0	0.00000E+0	4.00000E+1	0.00000E+0	0.00000E+0	0.00000E+0	2.00000E+1	1.40000E+1	2.00006E+1	1.40019E+1
18	02/09/2022	15:33:40.464	0.00000E+0	0.00000E+0	4.00000E+1	0.00000E+0	0.00000E+0	0.00000E+0	2.00000E+1	1.40000E+1	1.99999E+1	1.39998E+1
19	02/09/2022	15:33:41.854	0.00000E+0	0.00000E+0	4.00000E+1	0.00000E+0	0.00000E+0	0.00000E+0	2.00000E+1	1.40000E+1	2.00013E+1	1.39992E+1
20	02/09/2022	15:33:43.353	0.00000E+0	0.00000E+0	4.00000E+1	0.00000E+0	0.00000E+0	0.00000E+0	2.00000E+1	1.40000E+1	2.00024E+1	1.39993E+1
21	02/09/2022	15:33:44.751	0.00000E+0	0.00000E+0	4.00000E+1	0.00000E+0	0.00000E+0	0.00000E+0	2.00000E+1	1.40000E+1	1.99993E+1	1.40017E+1
22	02/09/2022	15:33:46.202	0.00000E+0	0.00000E+0	4.00000E+1	0.00000E+0	0.00000E+0	0.00000E+0	2.00000E+1	1.40000E+1	1.99992E+1	1.39988E+1
23	02/09/2022	15:33:47.534	0.00000E+0	0.00000E+0	4.00000E+1	0.00000E+0	0.00000E+0	0.00000E+0	2.00000E+1	1.40000E+1	1.99999E+1	1.39979E+1
24	02/09/2022	15:33:48.929	0.00000E+0	0.00000E+0	4.00000E+1	0.00000E+0	0.00000E+0	0.00000E+0	2.00000E+1	1.40000E+1	1.99971E+1	1.39993E+1
25	02/09/2022	15:33:50.395	0.00000E+0	0.00000E+0	4.00000E+1	0.00000E+0	0.00000E+0	0.00000E+0	2.00000E+1	1.40000E+1	1.99993E+1	1.39995E+1
26	02/09/2022	15:33:51.788	0.00000E+0	0.00000E+0	4.00000E+1	0.00000E+0	0.00000E+0	0.00000E+0	2.00000E+1	1.40000E+1	1.99985E+1	1.40004E+1
27	02/09/2022	15:33:53.195	0.00000E+0	0.00000E+0	4.00000E+1	0.00000E+0	0.00000E+0	0.00000E+0	2.00000E+1	1.40000E+1	1.99964E+1	1.39979E+1
28	02/09/2022	15:33:54.677	0.00000E+0	0.00000E+0	4.00000E+1	0.00000E+0	0.00000E+0	0.00000E+0	2.00000E+1	1.40000E+1	1.99990E+1	1.39996E+1
29	02/09/2022	15:33:56.062	0.00000E+0	0.00000E+0	4.00000E+1	0.00000E+0	0.00000E+0	0.00000E+0	2.00000E+1	1.40000E+1	1.99999E+1	1.40013E+1
30	02/09/2022	15:33:57.580	0.00000E+0	0.00000E+0	4.00000E+1	0.00000E+0	0.00000E+0	0.00000E+0	2.00000E+1	1.40000E+1	1.99991E+1	1.40010E+1
31	02/09/2022	15:33:58.991	0.00000E+0	0.00000E+0	4.00000E+1	0.00000E+0	0.00000E+0	0.00000E+0	2.00000E+1	1.40000E+1	1.99993E+1	1.40030E+1
32	02/09/2022	15:34:00.367	0.00000E+0	0.00000E+0	4.00000E+1	0.00000E+0	0.00000E+0	0.00000E+0	2.00000E+1	1.40000E+1	1.99973E+1	1.39984E+1
33	02/09/2022	15:34:01.839	0.00000E+0	0.00000E+0	4.00000E+1	0.00000E+0	0.00000E+0	0.00000E+0	2.00000E+1	1.40000E+1	1.99995E+1	1.39979E+1
34	02/09/2022	15:34:03.219	0.00000E+0	0.00000E+0	4.00000E+1	0.00000E+0	0.00000E+0	0.00000E+0	2.00000E+1	1.40000E+1	1.99998E+1	1.40012E+1
35	02/09/2022	15:34:04.641	0.00000E+0	0.00000E+0	4.00000E+1	0.00000E+0	0.00000E+0	0.00000E+0	2.00000E+1	1.40000E+1	1.99986E+1	1.40002E+1
36	02/09/2022	15:34:06.154	0.00000E+0	0.00000E+0	4.00000E+1	0.00000E+0	0.00000E+0	0.00000E+0	2.00000E+1	1.40000E+1	2.00011E+1	1.39981E+1
37	02/09/2022	15:34:07.545	0.00000E+0	0.00000E+0	4.00000E+1	0.00000E+0	0.00000E+0	0.00000E+0	2.00000E+1	1.40000E+1	2.00010E+1	1.39997E+1
38	02/09/2022	15:34:09.038	0.00000E+0	0.00000E+0	4.00000E+1	0.00000E+0	0.00000E+0	0.00000E+0	2.00000E+1	1.40000E+1	1.99992E+1	1.40005E+1
39	02/09/2022	15:34:10.434	0.00000E+0	0.00000E+0	4.00000E+1	0.00000E+0	0.00000E+0	0.00000E+0	2.00000E+1	1.40000E+1	1.99972E+1	1.39996E+1
40	02/09/2022	15:34:11.833	0.00000E+0	0.00000E+0	4.00000E+1	0.00000E+0	0.00000E+0	0.00000E+0	2.00000E+1	1.40000E+1	2.00009E+1	1.40008E+1
41	02/09/2022	15:34:13.320	0.00000E+0	0.00000E+0	4.00000E+1	0.00000E+0	0.00000E+0	0.00000E+0	2.00000E+1	1.40000E+1	1.99979E+1	1.40013E+1
42	02/09/2022	15:34:14.729	0.00000E+0	0.00000E+0	4.00000E+1	0.00000E+0	0.00000E+0	0.00000E+0	2.00000E+1	1.40000E+1	1.99999E+1	1.39993E+1
43	02/09/2022	15:34:16.215	0.00000E+0	0.00000E+0	4.00000E+1	0.00000E+0	0.00000E+0	0.00000E+0	2.00000E+1	1.40000E+1	2.00019E+1	1.40004E+1
44	02/09/2022	15:34:17.658	0.00000E+0	0.00000E+0	4.00000E+1	0.00000E+0	0.00000E+0	0.00000E+0	2.00000E+1	1.40000E+1	2.00009E+1	1.39982E+1
45	02/09/2022	15:34:19.063	0.00000E+0	0.00000E+0	4.00000E+1	0.00000E+0	0.00000E+0	0.00000E+0	2.00000E+1	1.40000E+1	2.00009E+1	1.40012E+1
46	02/09/2022	15:34:20.566	0.00000E+0	0.00000E+0	4.00000E+1	0.00000E+0	0.00000E+0	0.00000E+0	2.00000E+1	1.40000E+1	1.99993E+1	1.39991E+1
47	02/09/2022	15:34:21.959	0.00000E+0	0.00000E+0	4.00000E+1	0.00000E+0	0.00000E+0	0.00000E+0	2.00000E+1	1.40000E+1	2.00008E+1	1.39982E+1
48	02/09/2022	15:34:23.408	0.00000E+0	0.00000E+0	4.00000E+1	0.00000E+0	0.00000E+0	0.00000E+0	2.00000E+1	1.40000E+1	1.99986E+1	1.39990E+1
49	02/09/2022	15:34:24.929	0.00000E+0	0.00000E+0	4.00000E+1	0.00000E+0	0.00000E+0	0.00000E+0	2.00000E+1	1.40000E+1	2.00007E+1	1.39975E+1
50	02/09/2022	15:34:26.323	0.00000E+0	0.00000E+0	4.00000E+1	0.00000E+0	0.00000E+0	0.00000E+0	2.00000E+1	1.40000E+1	1.99993E+1	1.39989E+1
51	02/09/2022	15:34:27.779	0.00000E+0	0.00000E+0	4.00000E+1	0.00000E+0	0.00000E+0	0.00000E+0	2.00000E+1	1.40000E+1	1.99989E+1	1.39999E+1
52	02/09/2022	15:34:29.155	0.00000E+0	0.00000E+0	4.00000E+1	0.00000E+0	0.00000E+0	0.00000E+0	2.00000E+1	1.40000E+1	1.99996E+1	1.39988E+1
53	02/09/2022	15:34:30.538	0.00000E+0	0.00000E+0	4.00000E+1	0.00000E+0	0.00000E+0	0.00000E+0	2.00000E+1	1.40000E+1	2.00013E+1	1.40001E+1
54	02/09/2022	15:34:32.078	0.00000E+0	0.00000E+0	4.00000E+1	0.00000E+0	0.00000E+0	0.00000E+0	2.00000E+1	1.40000E+1	2.00004E+1	1.40016E+1
55	02/09/2022	15:34:33.461	0.00000E+0	0.00000E+0	4.00000E+1	0.00000E+0	0.00000E+0	0.00000E+0	2.00000E+1	1.40000E+1	2.00011E+1	1.40013E+1
56	02/09/2022	15:34:34.891	0.00000E+0	0.00000E+0	4.00000E+1	0.00000E+0	0.00000E+0	0.00000E+0	2.00000E+1	1.40000E+1	2.00014E+1	1.40014E+1
57	02/09/2022	15:34:36.267	0.00000E+0	0.00000E+0	4.00000E+1	0.00000E+0	0.00000E+0	0.00000E+0	2.00000E+1	1.40000E+1	2.00024E+1	1.40008E+1
58	02/09/2022	15:34:37.668	0.00000E+0	0.00000E+0	4.00000E+1	0.00000E+0	0.00000E+0	0.00000E+0	2.00000E+1	1.40000E+1	2.00018E+1	1.40005E+1
59	02/09/2022	15:34:39.153	0.00000E+0	0.00000E+0	4.00000E+1	0.00000E+0	0.00000E+0	0.00000E+0	2.00000E+1	1.40000E+1	1.99999E+1	1.40020E+1
60	02/09/2022	15:34:40.535	0.00000E+0	0.00000E+0	4.00000E+1	0.00000E+0	0.00000E+0	0.00000E+0	2.00000E+1	1.40000E+1	2.00010E+1	1.40007E+1
61	02/09/2022	15:34:41.979	0.00000E+0	0.00000E+0	4.00000E+1	0.00000E+0	0.00000E+0	0.00000E+0	2.00000E+1	1.40000E+1	1.99978E+1	1.39998E+1
62	02/09/2022	15:34:43.489	0.00000E+0	0.00000E+0	4.00000E+1	0.00000E+0	0.00000E+0	0.00000E+0	2.00000E+1	1.40000E+1	1.99992E+1	1.40008E+1
63	02/09/2022	15:34:44.872	0.00000E+0	0.00000E+0	4.00000E+1	0.00000E+0	0.00000E+0	0.00000E+0	2.00000E+1	1.40000E+1	2.00010E+1	1.39991E+1
64	02/09/2022	15:34:46.404	0.00000E+0	0.00000E+0	4.00000E+1	0.00000E+0	0.00000E+0	0.00000E+0	2.00000E+1	1.40000E+1	1.99957E+1	1.40010E+1
65	02/09/2022	15:34:47.782	0.00000E+0	0.00000E+0	4.00000E+1	0.00000E+0	0.00000E+0	0.00000E+0	2.00000E+1	1.40000E+1	1.99993E+1	1.39980E+1
66	02/09/2022	15:34:49.174	0.00000E+0	0.00000E+0	4.00000E+1	0.00000E+0	0.00000E+0	0.00000E+0	2.00000E+1	1.40000E+1	2.00021E+1	1.40004E+1
67	02/09/2022	15:34:50.684	0.00000E+0	0.00000E+0	4.00000E+1	0.00000E+0	0.00000E+0	0.00000E+0	2.00000E+1	1.40000E+1	2.00002E+1	1.39999E+1
68	02/09/2022	15:34:52.058	0.00000E+0	0.00000E+0	4.00000E+1	0.00000E+0	0.00000E+0	0.00000E+0	2.00000E+1	1.40000E+1	1.99991E+1	1.39983E+1
69	02/09/2022	15:34:53.467	0.00000E+0	0.00000E+0	4.00000E+1	0.00000E+0	0.00000E+0	0.00000E+0	2.00000E+1	1.40000E+1	2.00004E+1	1.39983E+1
70	02/09/2022	15:34:54.978	0.00000E+0	0.00000E+0	4.00000E+1	0.00000E+0	0.00000E+0	0.00000E+0	2.00000E+1	1.40000E+1	2.00011E+1	1.40023E+1
71	02/09/2022	15:34:56.361	0.00000E+0	0.00000E+0	4.00000E+1	0.00000E+0	0.00000E+0	0.00000E+0	2.00000E+1	1.40000E+1	2.00012E+1	1.40019E+1
72	02/09/2022	15:34:57.907	0.00000E+0	0.00000E+0	4.00000E+1	0.00000E+0	0.00000E+0	0.00000E+0	2.00000E+1	1.40000E+1	1.99993E+1	1.39976E+1
73	02/09/2022	15:34:59.309	0.00000E+0	0.00000E+0	4.00000E+1	0.00000E+0	0.00000E+0	0.00000E+0	2.00000E+1	1.40000E+1	1.99977E+1	1.39989E+1
74	02/09/2022	15:35:00.695	0.00000E+0	0.00000E+0	4.00000E+1	0.00000E+0	0.00000E+0	0.00000E+0	2.00000E+1	1.40000E+1	2.00004E+1	1.39971E+1
75	02/09/2022	15:35:02.160	0.00000E+0	0.00000E+0	4.00000E+1	0.00000E+0	0.00000E+0	0.00000E+0	2.00000E+1	1.40000E+1	1.99997E+1	1.39972E+1
76	02/09/2022	15:35:03.551	0.00000E+0	0.00000E+0	4.00000E+1	0.00000E+0	0.00000E+0	0.00000E+0	2.00000E+1	1.40000E+1	1.99992E+1	1.40010E+1
77	02/09/2022	15:35:04.939	0.00000E+0	0.00000E+0	4.00000E+1	0.00000E+0	0.00000E+0	0.00000E+0	2.00000E+1	1.40000E+1	2.00000E+1	1.39986E+1
78	02/09/2022	15:35:06.348	0.00000E+0	0.00000E+0	4.00000E+1	0.00000E+0	0.00000E+0	0.00000E+0	2.00000E+1	1.40000E+1	1.99997E+1	1.40015E+1
79	02/09/2022	15:35:07.714	0.00000E+0	0.00000E+0	4.00000E+1	0.00000E+0	0.00000E+0	0.00000E+0	2.00000E+1	1.40000E+1	1.99989E+1	1.40024E+1
80	02/09/2022	15:35:09.179	0.00000E+0	0.00000E+0	4.00000E+1	0.00000E+0	0.00000E+0	0.00000E+0	2.00000E+1	1.40000E+1	1.99984E+1	1.39999E+1
81	02/09/2022	15:35:10.583	0.00000E+0	0.00000E+0	4.00000E+1	0.00000E+0	0.00000E+0	0.00000E+0	2.00000E+1	1.40000E+1	2.00010E+1	1.40001E+1
82	02/09/2022	15:35:11.964	0.00000E+0	0.00000E+0	4.00000E+1	0.00000E+0	0.00000E+0	0.00000E+0	2.00000E+1	1.40000E+1	1.99995E+1	1.39988E+1
83	02/09/2022	15:35:13.483	0.00000E+0	0.00000E+0	4.00000E+1	0.00000E+0	0.00000E+0	0.00000E+0	2.00000E+1	1.40000E+1	2.00004E+1	1.40010E+1
84	02/09/2022	15:35:14.874	0.00000E+0	0.00000E+0	4.00000E+1	0.00000E+0	0.00000E+0	0.00000E+0	2.00000E+1	1.40000E+1	2.00028E+1	1.39991E+1
85	02/09/2022	15:35:16.404	0.00000E+0	0.00000E+0	4.00000E+1	0.00000E+0	0.00000E+0	0.00000E+0	2.00000E+1	1.40000E+1	1.99999E+1	1.40007E+1
86	02/09/2022	15:35:17.797	0.00000E+0	0.00000E+0	4.00000E+1	0.00000E+0	0.00000E+0	0.00000E+0	2.00000E+1	1.40000E+1	2.00019E+1	1.39996E+1
87	02/09/2022	15:35:19.185	0.00000E+0	0.00000E+0	4.00000E+1	0.00000E+0	0.00000E+0	0.00000E+0	2.00000E+1	1.40000E+1	2.00019E+1	1.40021E+1
88	02/09/2022	15:35:20.643	0.00000E+0	0.00000E+0	4.00000E+1	0.00000E+0	0.00000E+0	0.00000E+0	2.00000E+1	1.40000E+1	1.99991E+1	1.40001E+1
89	02/09/2022	15:35:22.050	0.00000E+0	0.00000E+0	4.00000E+1	0.00000E+0	0.00000E+0	0.00000E+0	2.00000E+1	1.40000E+1	2.00000E+1	1.39990E+1
90	02/09/2022	15:35:23.492	0.00000E+0	0.00000E+0	4.00000E+1	0.00000E+0	0.00000E+0	0.00000E+0	2.00000E+1	1.40000E+1	2.00002E+1	1.40010E+1
91	02/09/2022	15:35:24.986	0.00000E+0	0.00000E+0	4.00000E+1	0.00000E+0	0.00000E+0	0.00000E+0	2.00000E+1	1.40000E+1	2.00017E+1	1.39991E+1
92	02/09/2022	15:35:26.422	0.00000E+0	0.00000E+0	4.00000E+1	0.00000E+0	0.00000E+0	0.00000E+0	2.00000E+1	1.40000E+1	1.99987E+1	1.40000E+1
93	02/09/2022	15:35:27.935	0.00000E+0	0.00000E+0	4.00000E+1	0.00000E+0	0.00000E+0	0.00000E+0	2.00000E+1	1.40000E+1	1.99987E+1	1.39991E+1
94	02/09/2022	15:35:29.319	0.00000E+0	0.00000E+0	4.00000E+1	0.00000E+0	0.00000E+0	0.00000E+0	2.00000E+1	1.40000E+1	2.00016E+1	1.39988E+1
95	02/09/2022	15:35:30.706	0.00000E+0	0.00000E+0	4.00000E+1	0.00000E+0	0.00000E+0	0.00000E+0	2.00000E+1	1.40000E+1	1.99973E+1	1.40011E+1
96	02/09/2022	15:35:32.164	0.00000E+0	0.00000E+0	4.00000E+1	0.00000E+0	0.00000E+0	0.00000E+0	2.00000E+1	1.40000E+1	1.99983E+1	1.39988E+1
97	02/09/2022	15:35:33.543	0.00000E+0	0.00000E+0	4.00000E+1	0.00000E+0	0.00000E+0	0.00000E+0	2.00000E+1	1.40000E+1	2.00001E+1	1.40009E+1
98	02/09/2022	15:35:35.000	0.00000E+0	0.00000E+0	4.00000E+1	0.00000E+0	0.00000E+0	0.00000E+0	2.00000E+1	1.40000E+1	2.00002E+1	1.40004E+1
99	02/09/2022	15:35:36.511	0.00000E+0	0.00000E+0	4.00000E+1	0.00000E+0	0.00000E+0	0.00000E+0	2.00000E+1	1.40000E+1	2.00023E+1	1.39997E+1
100	02/09/2022	15:35:37.876	0.00000E+0	0.00000E+0	4.00000E+1	0.00000E+0	0.00000E+0	0.00000E+0	2.00000E+1	1.40000E+1	1.99993E+1	1.40017E+1
101	02/09/2022	15:35:39.376	0.00000E+0	0.00000E+0	4.00000E+1	0.00000E+0	0.00000E+0	0.00000E+0	2.00000E+1	1.40000E+1	1.99998E+1	1.39981E+1
102	02/09/2022	15:35:40.769	0.00000E+0	0.00000E+0	4.00000E+1	0.00000E+0	0.00000E+0	0.00000E+0	2.00000E+1	1.40000E+1	2.00011E+1	1.39992E+1
103	02/09/2022	15:35:42.162	0.00000E+0	0.00000E+0	4.00000E+1	0.00000E+0	0.00000E+0	0.00000E+0	2.00000E+1	1.40000E+1	2.00008E+1	1.40005E+1
104	02/09/2022	15:35:43.653	0.00000E+0	0.00000E+0	4.00000E+1	0.00000E+0	0.00000E+0	0.00000E+0	2.00000E+1	1.40000E+1	2.00001E+1	1.40031E+1
105	02/09/2022	15:35:45.061	0.00000E+0	0.00000E+0	4.00000E+1	0.00000E+0	0.00000E+0	0.00000E+0	2.00000E+1	1.40000E+1	1.99999E+1	1.40024E+1
106	02/09/2022	15:35:46.485	0.00000E+0	0.00000E+0	4.00000E+1	0.00000E+0	0.00000E+0	0.00000E+0	2.00000E+1	1.40000E+1	2.00010E+1	1.39993E+1
107	02/09/2022	15:35:47.875	0.00000E+0	0.00000E+0	4.00000E+1	0.00000E+0	0.00000E+0	0.00000E+0	2.00000E+1	1.40000E+1	1.99990E+1	1.39995E+1
108	02/09/2022	15:35:49.244	0.00000E+0	0.00000E+0	4.00000E+1	0.00000E+0	0.00000E+0	0.00000E+0	2.00000E+1	1.40000E+1	2.00012E+1	1.40018E+1
109	02/09/2022	15:35:50.791	0.00000E+0	0.00000E+0	4.00000E+1	0.00000E+0	0.00000E+0	0.00000E+0	2.00000E+1	1.40000E+1	1.99991E+1	1.39999E+1
110	02/09/2022	15:35:52.159	0.00000E+0	0.00000E+0	4.00000E+1	0.00000E+0	0.00000E+0	0.00000E+0	2.00000E+1	1.40000E+1	2.00012E+1	1.39983E+1
111	02/09/2022	15:35:53.570	0.00000E+0	0.00000E+0	4.00000E+1	0.00000E+0	0.00000E+0	0.00000E+0	2.00000E+1	1.40000E+1	2.00009E+1	1.40012E+1
112	02/09/2022	15:35:54.960	0.00000E+0	0.00000E+0	4.00000E+1	0.00000E+0	0.00000E+0	0.00000E+0	2.00000E+1	1.40000E+1	1.99990E+1	1.39999E+1
113	02/09/2022	15:35:56.359	0.00000E+0	0.00000E+0	4.00000E+1	0.00000E+0	0.00000E+0	0.00000E+0	2.00000E+1	1.40000E+1	2.00017E+1	1.39993E+1
114	02/09/2022	15:35:57.821	0.00000E+0	0.00000E+0	4.00000E+1	0.00000E+0	0.00000E+0	0.00000E+0	2.00000E+1	1.40000E+1	2.00003E+1	1.39976E+1
115	02/09/2022	15:35:59.253	0.00000E+0	0.00000E+0	4.00000E+1	0.00000E+0	0.00000E+0	0.00000E+0	2.00000E+1	1.40000E+1	2.00022E+1	1.39996E+1
116	02/09/2022	15:36:00.688	0.00000E+0	0.00000E+0	4.00000E+1	0.00000E+0	0.00000E+0	0.00000E+0	2.00000E+1	1.40000E+1	2.00014E+1	1.40007E+1
117	02/09/2022	15:36:02.195	0.00000E+0	0.00000E+0	4.00000E+1	0.00000E+0	0.00000E+0	0.00000E+0	2.00000E+1	1.40000E+1	1.99993E+1	1.39998E+1
118	02/09/2022	15:36:03.589	0.00000E+0	0.00000E+0	4.00000E+1	0.00000E+0	0.00000E+0	0.00000E+0	2.00000E+1	1.40000E+1	2.00001E+1	1.39983E+1
119	02/09/2022	15:36:05.045	0.00000E+0	0.00000E+0	4.00000E+1	0.00000E+0	0.00000E+0	0.00000E+0	2.00000E+1	1.40000E+1	2.00010E+1	1.39988E+1
120	02/09/2022	15:36:06.466	0.00000E+0	0.00000E+0	4.00000E+1	0.00000E+0	0.00000E+0	0.00000E+0	2.00000E+1	1.40000E+1	2.00013E+1	1.39992E+1
121	02/09/2022	15:36:07.856	0.00000E+0	0.00000E+0	4.00000E+1	0.00000E+0	0.00000E+0	0.00000E+0	2.00000E+1	1.40000E+1	2.00004E+1	1.40001E+1
122	02/09/2022	15:36:09.336	0.00000E+0	0.00000E+0	4.00000E+1	0.00000E+0	0.00000E+0	0.00000E+0	2.00000E+1	1.40000E+1	1.99991E+1	1.40007E+1
123	02/09/2022	15:36:10.747	0.00000E+0	0.00000E+0	4.00000E+1	0.00000E+0	0.00000E+0	0.00000E+0	2.00000E+1	1.40000E+1	1.99976E+1	1.39991E+1
124	02/09/2022	15:36:12.162	0.00000E+0	0.00000E+0	4.00000E+1	0.00000E+0	0.00000E+0	0.00000E+0	2.00000E+1	1.40000E+1	1.99991E+1	1.39996E+1
125	02/09/2022	15:36:13.654	0.00000E+0	0.00000E+0	4.00000E+1	0.00000E+0	0.00000E+0	0.00000E+0	2.00000E+1	1.40000E+1	2.00015E+1	1.39997E+1
126	02/09/2022	15:36:15.106	0.00000E+0	0.00000E+0	4.00000E+1	0.00000E+0	0.00000E+0	0.00000E+0	2.00000E+1	1.40000E+1	1.99983E+1	1.40009E+1
127	02/09/2022	15:36:16.586	0.00000E+0	0.00000E+0	4.00000E+1	0.00000E+0	0.00000E+0	0.00000E+0	2.00000E+1	1.40000E+1	2.00035E+1	1.39994E+1
128	02/09/2022	15:36:18.031	0.00000E+0	0.00000E+0	4.00000E+1	0.00000E+0	0.00000E+0	0.00000E+0	2.00000E+1	1.40000E+1	2.00012E+1	1.39986E+1
129	02/09/2022	15:36:19.430	0.00000E+0	0.00000E+0	4.00000E+1	0.00000E+0	0.00000E+0	0.00000E+0	2.00000E+1	1.40000E+1	1.99998E+1	1.39992E+1
130	02/09/2022	15:36:20.919	0.00000E+0	0.00000E+0	4.00000E+1	0.00000E+0	0.00000E+0	0.00000E+0	2.00000E+1	1.40000E+1	1.99983E+1	1.40014E+1
131	02/09/2022	15:36:22.313	0.00000E+0	0.00000E+0	4.00000E+1	0.00000E+0	0.00000E+0	0.00000E+0	2.00000E+1	1.40000E+1	2.00013E+1	1.39997E+1
132	02/09/2022	15:36:23.699	0.00000E+0	0.00000E+0	4.00000E+1	0.00000E+0	0.00000E+0	0.00000E+0	2.00000E+1	1.40000E+1	1.99988E+1	1.39996E+1
133	02/09/2022	15:36:25.124	0.00000E+0	0.00000E+0	4.00000E+1	0.00000E+0	0.00000E+0	0.00000E+0	2.00000E+1	1.40000E+1	2.00039E+1	1.40009E+1
134	02/09/2022	15:36:26.510	0.00000E+0	0.00000E+0	4.00000E+1	0.00000E+0	0.00000E+0	0.00000E+0	2.00000E+1	1.40000E+1	1.99988E+1	1.39995E+1
135	02/09/2022	15:36:27.969	0.00000E+0	0.00000E+0	4.00000E+1	0.00000E+0	0.00000E+0	0.00000E+0	2.00000E+1	1.40000E+1	2.00014E+1	1.40020E+1
136	02/09/2022	15:36:29.360	0.00000E+0	0.00000E+0	4.00000E+1	0.00000E+0	0.00000E+0	0.00000E+0	2.00000E+1	1.40000E+1	1.99984E+1	1.40004E+1
137	02/09/2022	15:36:30.750	0.00000E+0	0.00000E+0	4.00000E+1	0.00000E+0	0.00000E+0	0.00000E+0	2.00000E+1	1.40000E+1	1.99997E+1	1.39981E+1
138	02/09/2022	15:36:32.247	0.00000E+0	0.00000E+0	4.00000E+1	0.00000E+0	0.00000E+0	0.00000E+0	2.00000E+1	1.40000E+1	2.00022E+1	1.39989E+1
139	02/09/2022	15:36:33.631	0.00000E+0	0.00000E+0	4.00000E+1	0.00000E+0	0.00000E+0	0.00000E+0	2.00000E+1	1.40000E+1	1.99991E+1	1.39992E+1
140	02/09/2022	15:36:35.386	0.00000E+0	0.00000E+0	4.00000E+1	0.00000E+0	0.00000E+0	0.00000E+0	2.00000E+1	1.40000E+1	2.00025E+1	1.39998E+1
141	02/09/2022	15:36:36.795	0.00000E+0	0.00000E+0	4.00000E+1	0.00000E+0	0.00000E+0	0.00000E+0	2.00000E+1	1.40000E+1	2.00003E+1	1.40009E+1
142	02/09/2022	15:36:38.184	0.00000E+0	0.00000E+0	4.00000E+1	0.00000E+0	0.00000E+0	0.00000E+0	2.00000E+1	1.40000E+1	2.00015E+1	1.40029E+1
143	02/09/2022	15:36:39.631	0.00000E+0	0.00000E+0	4.00000E+1	0.00000E+0	0.00000E+0	0.00000E+0	2.00000E+1	1.40000E+1	1.99995E+1	1.39999E+1
144	02/09/2022	15:36:41.032	0.00000E+0	0.00000E+0	4.00000E+1	0.00000E+0	0.00000E+0	0.00000E+0	2.00000E+1	1.40000E+1	2.00019E+1	1.39994E+1
145	02/09/2022	15:36:42.420	0.00000E+0	0.00000E+0	4.00000E+1	0.00000E+0	0.00000E+0	0.00000E+0	2.00000E+1	1.40000E+1	2.00017E+1	1.40013E+1
146	02/09/2022	15:36:43.902	0.00000E+0	0.00000E+0	4.00000E+1	0.00000E+0	0.00000E+0	0.00000E+0	2.00000E+1	1.40000E+1	2.00003E+1	1.39994E+1
147	02/09/2022	15:36:45.294	0.00000E+0	0.00000E+0	4.00000E+1	0.00000E+0	0.00000E+0	0.00000E+0	2.00000E+1	1.40000E+1	1.99994E+1	1.40010E+1
148	02/09/2022	15:36:46.799	0.00000E+0	0.00000E+0	4.00000E+1	0.00000E+0	0.00000E+0	0.00000E+0	2.00000E+1	1.40000E+1	2.00006E+1	1.39982E+1
149	02/09/2022	15:36:48.191	0.00000E+0	0.00000E+0	4.00000E+1	0.00000E+0	0.00000E+0	0.00000E+0	2.00000E+1	1.40000E+1	2.00001E+1	1.39998E+1
150	02/09/2022	15:36:49.591	0.00000E+0	0.00000E+0	4.00000E+1	0.00000E+0	0.00000E+0	0.00000E+0	2.00000E+1	1.40000E+1	2.00031E+1	1.39972E+1
151	02/09/2022	15:36:51.142	0.00000E+0	0.00000E+0	4.00000E+1	0.00000E+0	0.00000E+0	0.00000E+0	2.00000E+1	1.40000E+1	2.00007E+1	1.40024E+1
152	02/09/2022	15:36:52.548	0.00000E+0	0.00000E+0	4.00000E+1	0.00000E+0	0.00000E+0	0.00000E+0	2.00000E+1	1.40000E+1	2.00012E+1	1.39972E+1
153	02/09/2022	15:36:54.046	0.00000E+0	0.00000E+0	4.00000E+1	0.00000E+0	0.00000E+0	0.00000E+0	2.00000E+1	1.40000E+1	1.99970E+1	1.39982E+1
154	02/09/2022	15:36:55.484	0.00000E+0	0.00000E+0	4.00000E+1	0.00000E+0	0.00000E+0	0.00000E+0	2.00000E+1	1.40000E+1	1.99991E+1	1.39992E+1
155	02/09/2022	15:36:56.875	0.00000E+0	0.00000E+0	4.00000E+1	0.00000E+0	0.00000E+0	0.00000E+0	2.00000E+1	1.40000E+1	1.99985E+1	1.40021E+1
156	02/09/2022	15:36:58.346	0.00000E+0	0.00000E+0	4.00000E+1	0.00000E+0	0.00000E+0	0.00000E+0	2.00000E+1	1.40000E+1	2.00013E+1	1.39988E+1
157	02/09/2022	15:36:59.732	0.00000E+0	0.00000E+0	4.00000E+1	0.00000E+0	0.00000E+0	0.00000E+0	2.00000E+1	1.40000E+1	2.00026E+1	1.39987E+1
158	02/09/2022	15:37:01.141	0.00000E+0	0.00000E+0	4.00000E+1	0.00000E+0	0.00000E+0	0.00000E+0	2.00000E+1	1.40000E+1	2.00010E+1	1.39985E+1
159	02/09/2022	15:37:02.650	0.00000E+0	0.00000E+0	4.00000E+1	0.00000E+0	0.00000E+0	0.00000E+0	2.00000E+1	1.40000E+1	1.99976E+1	1.39991E+1
160	02/09/2022	15:37:04.046	0.00000E+0	0.00000E+0	4.00000E+1	0.00000E+0	0.00000E+0	0.00000E+0	2.00000E+1	1.40000E+1	1.99976E+1	1.40010E+1
161	02/09/2022	15:37:05.534	0.00000E+0	0.00000E+0	4.00000E+1	0.00000E+0	0.00000E+0	0.00000E+0	2.00000E+1	1.40000E+1	1.99988E+1	1.39997E+1
162	02/09/2022	15:37:06.907	0.00000E+0	0.00000E+0	4.00000E+1	0.00000E+0	0.00000E+0	0.00000E+0	2.00000E+1	1.40000E+1	2.00000E+1	1.40004E+1
163	02/09/2022	15:37:08.346	0.00000E+0	0.00000E+0	4.00000E+1	0.00000E+0	0.00000E+0	0.00000E+0	2.00000E+1	1.40000E+1	2.00004E+1	1.39979E+1
164	02/09/2022	15:37:09.916	0.00000E+0	0.00000E+0	4.00000E+1	0.00000E+0	0.00000E+0	0.00000E+0	2.00000E+1	1.40000E+1	2.00008E+1	1.39995E+1
165	02/09/2022	15:37:11.291	0.00000E+0	0.00000E+0	4.00000E+1	0.00000E+0	0.00000E+0	0.00000E+0	2.00000E+1	1.40000E+1	2.00010E+1	1.39993E+1
166	02/09/2022	15:37:12.741	0.00000E+0	0.00000E+0	4.00000E+1	0.00000E+0	0.00000E+0	0.00000E+0	2.00000E+1	1.40000E+1	2.00009E+1	1.40009E+1
167	02/09/2022	15:37:14.071	0.00000E+0	0.00000E+0	4.00000E+1	0.00000E+0	0.00000E+0	0.00000E+0	2.00000E+1	1.40000E+1	2.00002E+1	1.39990E+1
168	02/09/2022	15:37:15.466	0.00000E+0	0.00000E+0	4.00000E+1	0.00000E+0	0.00000E+0	0.00000E+0	2.00000E+1	1.40000E+1	1.99992E+1	1.40005E+1
169	02/09/2022	15:37:16.955	0.00000E+0	0.00000E+0	4.00000E+1	0.00000E+0	0.00000E+0	0.00000E+0	2.00000E+1	1.40000E+1	2.00010E+1	1.39992E+1
170	02/09/2022	15:37:18.324	0.00000E+0	0.00000E+0	4.00000E+1	0.00000E+0	0.00000E+0	0.00000E+0	2.00000E+1	1.40000E+1	2.00018E+1	1.40048E+1
171	02/09/2022	15:37:19.770	0.00000E+0	0.00000E+0	4.00000E+1	0.00000E+0	0.00000E+0	0.00000E+0	2.00000E+1	1.40000E+1	1.99995E+1	1.40005E+1
172	02/09/2022	15:37:21.282	0.00000E+0	0.00000E+0	4.00000E+1	0.00000E+0	0.00000E+0	0.00000E+0	2.00000E+1	1.40000E+1	1.99981E+1	1.39990E+1
173	02/09/2022	15:37:22.671	0.00000E+0	0.00000E+0	4.00000E+1	0.00000E+0	0.00000E+0	0.00000E+0	2.00000E+1	1.40000E+1	1.99990E+1	1.40022E+1
174	02/09/2022	15:37:24.161	0.00000E+0	0.00000E+0	4.00000E+1	0.00000E+0	0.00000E+0	0.00000E+0	2.00000E+1	1.40000E+1	1.99999E+1	1.39997E+1
175	02/09/2022	15:37:25.546	0.00000E+0	0.00000E+0	4.00000E+1	0.00000E+0	0.00000E+0	0.00000E+0	2.00000E+1	1.40000E+1	2.00007E+1	1.40014E+1
176	02/09/2022	15:37:26.948	0.00000E+0	0.00000E+0	4.00000E+1	0.00000E+0	0.00000E+0	0.00000E+0	2.00000E+1	1.40000E+1	2.00014E+1	1.40009E+1
177	02/09/2022	15:37:28.413	0.00000E+0	0.00000E+0	4.00000E+1	0.00000E+0	0.00000E+0	0.00000E+0	2.00000E+1	1.40000E+1	2.00007E+1	1.40002E+1
178	02/09/2022	15:37:29.795	0.00000E+0	0.00000E+0	4.00000E+1	0.00000E+0	0.00000E+0	0.00000E+0	2.00000E+1	1.40000E+1	1.99989E+1	1.39973E+1
179	02/09/2022	15:37:31.193	0.00000E+0	0.00000E+0	4.00000E+1	0.00000E+0	0.00000E+0	0.00000E+0	2.00000E+1	1.40000E+1	1.99989E+1	1.40014E+1
180	02/09/2022	15:37:32.706	0.00000E+0	0.00000E+0	4.00000E+1	0.00000E+0	0.00000E+0	0.00000E+0	2.00000E+1	1.40000E+1	2.00010E+1	1.39981E+1
181	02/09/2022	15:37:34.093	0.00000E+0	0.00000E+0	4.00000E+1	0.00000E+0	0.00000E+0	0.00000E+0	2.00000E+1	1.40000E+1	2.00011E+1	1.40011E+1
182	02/09/2022	15:37:35.563	0.00000E+0	0.00000E+0	4.00000E+1	0.00000E+0	0.00000E+0	0.00000E+0	2.00000E+1	1.40000E+1	2.00018E+1	1.40017E+1
183	02/09/2022	15:37:36.953	0.00000E+0	0.00000E+0	4.00000E+1	0.00000E+0	0.00000E+0	0.00000E+0	2.00000E+1	1.40000E+1	1.99992E+1	1.40006E+1
184	02/09/2022	15:37:38.357	0.00000E+0	0.00000E+0	4.00000E+1	0.00000E+0	0.00000E+0	0.00000E+0	2.00000E+1	1.40000E+1	1.99978E+1	1.39986E+1
185	02/09/2022	15:37:39.831	0.00000E+0	0.00000E+0	4.00000E+1	0.00000E+0	0.00000E+0	0.00000E+0	2.00000E+1	1.40000E+1	1.99996E+1	1.40020E+1
186	02/09/2022	15:37:41.195	0.00000E+0	0.00000E+0	4.00000E+1	0.00000E+0	0.00000E+0	0.00000E+0	2.00000E+1	1.40000E+1	1.99974E+1	1.40001E+1
187	02/09/2022	15:37:42.641	0.00000E+0	0.00000E+0	4.00000E+1	0.00000E+0	0.00000E+0	0.00000E+0	2.00000E+1	1.40000E+1	2.00010E+1	1.40012E+1
188	02/09/2022	15:37:43.977	0.00000E+0	0.00000E+0	4.00000E+1	0.00000E+0	0.00000E+0	0.00000E+0	2.00000E+1	1.40000E+1	1.99995E+1	1.40036E+1
189	02/09/2022	15:37:45.376	0.00000E+0	0.00000E+0	4.00000E+1	0.00000E+0	0.00000E+0	0.00000E+0	2.00000E+1	1.40000E+1	2.00013E+1	1.39989E+1
190	02/09/2022	15:37:46.838	0.00000E+0	0.00000E+0	4.00000E+1	0.00000E+0	0.00000E+0	0.00000E+0	2.00000E+1	1.40000E+1	2.00012E+1	1.40022E+1
191	02/09/2022	15:37:48.234	0.00000E+0	0.00000E+0	4.00000E+1	0.00000E+0	0.00000E+0	0.00000E+0	2.00000E+1	1.40000E+1	2.00005E+1	1.39997E+1
192	02/09/2022	15:37:49.673	0.00000E+0	0.00000E+0	4.00000E+1	0.00000E+0	0.00000E+0	0.00000E+0	2.00000E+1	1.40000E+1	2.00003E+1	1.39990E+1
193	02/09/2022	15:37:51.156	0.00000E+0	0.00000E+0	4.00000E+1	0.00000E+0	0.00000E+0	0.00000E+0	2.00000E+1	1.40000E+1	2.00015E+1	1.40004E+1
194	02/09/2022	15:37:52.548	0.00000E+0	0.00000E+0	4.00000E+1	0.00000E+0	0.00000E+0	0.00000E+0	2.00000E+1	1.40000E+1	1.99994E+1	1.39997E+1
195	02/09/2022	15:37:54.057	0.00000E+0	0.00000E+0	4.00000E+1	0.00000E+0	0.00000E+0	0.00000E+0	2.00000E+1	1.40000E+1	2.00008E+1	1.39988E+1
196	02/09/2022	15:37:55.446	0.00000E+0	0.00000E+0	4.00000E+1	0.00000E+0	0.00000E+0	0.00000E+0	2.00000E+1	1.40000E+1	2.00004E+1	1.40005E+1
197	02/09/2022	15:37:56.831	0.00000E+0	0.00000E+0	4.00000E+1	0.00000E+0	0.00000E+0	0.00000E+0	2.00000E+1	1.40000E+1	1.99982E+1	1.39995E+1
198	02/09/2022	15:37:58.289	0.00000E+0	0.00000E+0	4.00000E+1	0.00000E+0	0.00000E+0	0.00000E+0	2.00000E+1	1.40000E+1	1.99992E+1	1.40016E+1
199	02/09/2022	15:37:59.731	0.00000E+0	0.00000E+0	4.00000E+1	0.00000E+0	0.00000E+0	0.00000E+0	2.00000E+1	1.40000E+1	1.99995E+1	1.40014E+1
200	02/09/2022	15:38:01.114	0.00000E+0	0.00000E+0	4.00000E+1	0.00000E+0	0.00000E+0	0.00000E+0	2.00000E+1	1.40000E+1	2.00027E+1	1.39973E+1
201	02/09/2022	15:38:02.615	0.00000E+0	0.00000E+0	4.00000E+1	0.00000E+0	0.00000E+0	0.00000E+0	2.00000E+1	1.40000E+1	1.99985E+1	1.39992E+1
202	02/09/2022	15:38:03.979	0.00000E+0	0.00000E+0	4.00000E+1	0.00000E+0	0.00000E+0	0.00000E+0	2.00000E+1	1.40000E+1	2.00010E+1	1.39989E+1
203	02/09/2022	15:38:05.468	0.00000E+0	0.00000E+0	4.00000E+1	0.00000E+0	0.00000E+0	0.00000E+0	2.00000E+1	1.40000E+1	1.99985E+1	1.39969E+1
204	02/09/2022	15:38:06.875	0.00000E+0	0.00000E+0	4.00000E+1	0.00000E+0	0.00000E+0	0.00000E+0	2.00000E+1	1.40000E+1	1.99989E+1	1.39982E+1
205	02/09/2022	15:38:08.248	0.00000E+0	0.00000E+0	4.00000E+1	0.00000E+0	0.00000E+0	0.00000E+0	2.00000E+1	1.40000E+1	2.00003E+1	1.39993E+1
206	02/09/2022	15:38:09.757	0.00000E+0	0.00000E+0	4.00000E+1	0.00000E+0	0.00000E+0	0.00000E+0	2.00000E+1	1.40000E+1	1.99992E+1	1.40005E+1
207	02/09/2022	15:38:11.133	0.00000E+0	0.00000E+0	4.00000E+1	0.00000E+0	0.00000E+0	0.00000E+0	2.00000E+1	1.40000E+1	1.99999E+1	1.40003E+1
208	02/09/2022	15:38:12.669	0.00000E+0	0.00000E+0	4.00000E+1	0.00000E+0	0.00000E+0	0.00000E+0	2.00000E+1	1.40000E+1	1.99980E+1	1.39997E+1
209	02/09/2022	15:38:14.094	0.00000E+0	0.00000E+0	4.00000E+1	0.00000E+0	0.00000E+0	0.00000E+0	2.00000E+1	1.40000E+1	1.99977E+1	1.39999E+1
210	02/09/2022	15:38:15.461	0.00000E+0	0.00000E+0	4.00000E+1	0.00000E+0	0.00000E+0	0.00000E+0	2.00000E+1	1.40000E+1	1.99998E+1	1.39993E+1
211	02/09/2022	15:38:17.000	0.00000E+0	0.00000E+0	4.00000E+1	0.00000E+0	0.00000E+0	0.00000E+0	2.00000E+1	1.40000E+1	2.00001E+1	1.39993E+1
212	02/09/2022	15:38:18.395	0.00000E+0	0.00000E+0	4.00000E+1	0.00000E+0	0.00000E+0	0.00000E+0	2.00000E+1	1.40000E+1	1.99996E+1	1.40034E+1
213	02/09/2022	15:38:19.778	0.00000E+0	0.00000E+0	4.00000E+1	0.00000E+0	0.00000E+0	0.00000E+0	2.00000E+1	1.40000E+1	2.00013E+1	1.40024E+1
214	02/09/2022	15:38:21.277	0.00000E+0	0.00000E+0	4.00000E+1	0.00000E+0	0.00000E+0	0.00000E+0	2.00000E+1	1.40000E+1	2.00006E+1	1.39987E+1
215	02/09/2022	15:38:22.664	0.00000E+0	0.00000E+0	4.00000E+1	0.00000E+0	0.00000E+0	0.00000E+0	2.00000E+1	1.40000E+1	1.99987E+1	1.39985E+1
216	02/09/2022	15:38:24.140	0.00000E+0	0.00000E+0	4.00000E+1	0.00000E+0	0.00000E+0	0.00000E+0	2.00000E+1	1.40000E+1	2.00018E+1	1.40028E+1
217	02/09/2022	15:38:25.526	0.00000E+0	0.00000E+0	4.00000E+1	0.00000E+0	0.00000E+0	0.00000E+0	2.00000E+1	1.40000E+1	2.00003E+1	1.39999E+1
218	02/09/2022	15:38:26.920	0.00000E+0	0.00000E+0	4.00000E+1	0.00000E+0	0.00000E+0	0.00000E+0	2.00000E+1	1.40000E+1	1.99991E+1	1.39991E+1
219	02/09/2022	15:38:28.509	0.00000E+0	0.00000E+0	4.00000E+1	0.00000E+0	0.00000E+0	0.00000E+0	2.00000E+1	1.40000E+1	1.99999E+1	1.40020E+1
220	02/09/2022	15:38:29.885	0.00000E+0	0.00000E+0	4.00000E+1	0.00000E+0	0.00000E+0	0.00000E+0	2.00000E+1	1.40000E+1	1.99974E+1	1.40002E+1
221	02/09/2022	15:38:31.346	0.00000E+0	0.00000E+0	4.00000E+1	0.00000E+0	0.00000E+0	0.00000E+0	2.00000E+1	1.40000E+1	1.99995E+1	1.40017E+1
222	02/09/2022	15:38:32.748	0.00000E+0	0.00000E+0	4.00000E+1	0.00000E+0	0.00000E+0	0.00000E+0	2.00000E+1	1.40000E+1	2.00020E+1	1.39969E+1
223	02/09/2022	15:38:34.152	0.00000E+0	0.00000E+0	4.00000E+1	0.00000E+0	0.00000E+0	0.00000E+0	2.00000E+1	1.40000E+1	2.00006E+1	1.40007E+1
224	02/09/2022	15:38:35.620	0.00000E+0	0.00000E+0	4.00000E+1	0.00000E+0	0.00000E+0	0.00000E+0	2.00000E+1	1.40000E+1	1.99995E+1	1.39982E+1
225	02/09/2022	15:38:37.007	0.00000E+0	0.00000E+0	4.00000E+1	0.00000E+0	0.00000E+0	0.00000E+0	2.00000E+1	1.40000E+1	2.00004E+1	1.40005E+1
226	02/09/2022	15:38:38.476	0.00000E+0	0.00000E+0	4.00000E+1	0.00000E+0	0.00000E+0	0.00000E+0	2.00000E+1	1.40000E+1	1.99993E+1	1.40013E+1
227	02/09/2022	15:38:39.971	0.00000E+0	0.00000E+0	4.00000E+1	0.00000E+0	0.00000E+0	0.00000E+0	2.00000E+1	1.40000E+1	1.99993E+1	1.39987E+1
228	02/09/2022	15:38:41.364	0.00000E+0	0.00000E+0	4.00000E+1	0.00000E+0	0.00000E+0	0.00000E+0	2.00000E+1	1.40000E+1	1.99989E+1	1.39999E+1
229	02/09/2022	15:38:42.834	0.00000E+0	0.00000E+0	4.00000E+1	0.00000E+0	0.00000E+0	0.00000E+0	2.00000E+1	1.40000E+1	2.00008E+1	1.39975E+1
230	02/09/2022	15:38:44.252	0.00000E+0	0.00000E+0	4.00000E+1	0.00000E+0	0.00000E+0	0.00000E+0	2.00000E+1	1.40000E+1	1.99989E+1	1.40021E+1
231	02/09/2022	15:38:45.661	0.00000E+0	0.00000E+0	4.00000E+1	0.00000E+0	0.00000E+0	0.00000E+0	2.00000E+1	1.40000E+1	2.00028E+1	1.40005E+1
232	02/09/2022	15:38:47.159	0.00000E+0	0.00000E+0	4.00000E+1	0.00000E+0	0.00000E+0	0.00000E+0	2.00000E+1	1.40000E+1	1.99992E+1	1.40016E+1
233	02/09/2022	15:38:48.539	0.00000E+0	0.00000E+0	4.00000E+1	0.00000E+0	0.00000E+0	0.00000E+0	2.00000E+1	1.40000E+1	1.99987E+1	1.39997E+1
234	02/09/2022	15:38:50.010	0.00000E+0	0.00000E+0	4.00000E+1	0.00000E+0	0.00000E+0	0.00000E+0	2.00000E+1	1.40000E+1	1.99984E+1	1.40027E+1
235	02/09/2022	15:38:51.508	0.00000E+0	0.00000E+0	4.00000E+1	0.00000E+0	0.00000E+0	0.00000E+0	2.00000E+1	1.40000E+1	1.99980E+1	1.39997E+1
236	02/09/2022	15:38:52.900	0.00000E+0	0.00000E+0	4.00000E+1	0.00000E+0	0.00000E+0	0.00000E+0	2.00000E+1	1.40000E+1	1.99985E+1	1.39997E+1
237	02/09/2022	15:38:54.372	0.00000E+0	0.00000E+0	4.00000E+1	0.00000E+0	0.00000E+0	0.00000E+0	2.00000E+1	1.40000E+1	2.00001E+1	1.40002E+1
238	02/09/2022	15:38:55.806	0.00000E+0	0.00000E+0	4.00000E+1	0.00000E+0	0.00000E+0	0.00000E+0	2.00000E+1	1.40000E+1	1.99979E+1	1.40007E+1
239	02/09/2022	15:38:57.200	0.00000E+0	0.00000E+0	4.00000E+1	0.00000E+0	0.00000E+0	0.00000E+0	2.00000E+1	1.40000E+1	2.00010E+1	1.40002E+1
240	02/09/2022	15:38:58.703	0.00000E+0	0.00000E+0	4.00000E+1	0.00000E+0	0.00000E+0	0.00000E+0	2.00000E+1	1.40000E+1	2.00014E+1	1.39990E+1
241	02/09/2022	15:39:00.100	0.00000E+0	0.00000E+0	4.00000E+1	0.00000E+0	0.00000E+0	0.00000E+0	2.00000E+1	1.40000E+1	2.00039E+1	1.40001E+1
242	02/09/2022	15:39:01.582	0.00000E+0	0.00000E+0	4.00000E+1	0.00000E+0	0.00000E+0	0.00000E+0	2.00000E+1	1.40000E+1	1.99993E+1	1.39995E+1
243	02/09/2022	15:39:03.031	0.00000E+0	0.00000E+0	4.00000E+1	0.00000E+0	0.00000E+0	0.00000E+0	2.00000E+1	1.40000E+1	2.00029E+1	1.40003E+1
244	02/09/2022	15:39:04.409	0.00000E+0	0.00000E+0	4.00000E+1	0.00000E+0	0.00000E+0	0.00000E+0	2.00000E+1	1.40000E+1	1.99996E+1	1.40004E+1
245	02/09/2022	15:39:05.909	0.00000E+0	0.00000E+0	4.00000E+1	0.00000E+0	0.00000E+0	0.00000E+0	2.00000E+1	1.40000E+1	1.99998E+1	1.40004E+1
246	02/09/2022	15:39:07.303	0.00000E+0	0.00000E+0	4.00000E+1	0.00000E+0	0.00000E+0	0.00000E+0	2.00000E+1	1.40000E+1	2.00000E+1	1.39997E+1
247	02/09/2022	15:39:08.713	0.00000E+0	0.00000E+0	4.00000E+1	0.00000E+0	0.00000E+0	0.00000E+0	2.00000E+1	1.40000E+1	2.00009E+1	1.40012E+1
248	02/09/2022	15:39:10.207	0.00000E+0	0.00000E+0	4.00000E+1	0.00000E+0	0.00000E+0	0.00000E+0	2.00000E+1	1.40000E+1	2.00008E+1	1.40014E+1
249	02/09/2022	15:39:11.591	0.00000E+0	0.00000E+0	4.00000E+1	0.00000E+0	0.00000E+0	0.00000E+0	2.00000E+1	1.40000E+1	2.00007E+1	1.39980E+1
250	02/09/2022	15:39:13.048	0.00000E+0	0.00000E+0	4.00000E+1	0.00000E+0	0.00000E+0	0.00000E+0	2.00000E+1	1.40000E+1	2.00007E+1	1.39999E+1
251	02/09/2022	15:39:14.419	0.00000E+0	0.00000E+0	4.00000E+1	0.00000E+0	0.00000E+0	0.00000E+0	2.00000E+1	1.40000E+1	2.00033E+1	1.40005E+1
252	02/09/2022	15:39:15.803	0.00000E+0	0.00000E+0	4.00000E+1	0.00000E+0	0.00000E+0	0.00000E+0	2.00000E+1	1.40000E+1	2.00011E+1	1.39991E+1
253	02/09/2022	15:39:17.258	0.00000E+0	0.00000E+0	4.00000E+1	0.00000E+0	0.00000E+0	0.00000E+0	2.00000E+1	1.40000E+1	2.00017E+1	1.40001E+1
254	02/09/2022	15:39:18.636	0.00000E+0	0.00000E+0	4.00000E+1	0.00000E+0	0.00000E+0	0.00000E+0	2.00000E+1	1.40000E+1	2.00015E+1	1.40013E+1
255	02/09/2022	15:39:20.093	0.00000E+0	0.00000E+0	4.00000E+1	0.00000E+0	0.00000E+0	0.00000E+0	2.00000E+1	1.40000E+1	2.00001E+1	1.39981E+1
256	02/09/2022	15:39:21.560	0.00000E+0	0.00000E+0	4.00000E+1	0.00000E+0	0.00000E+0	0.00000E+0	2.00000E+1	1.40000E+1	1.99977E+1	1.40003E+1
257	02/09/2022	15:39:22.949	0.00000E+0	0.00000E+0	4.00000E+1	0.00000E+0	0.00000E+0	0.00000E+0	2.00000E+1	1.40000E+1	1.99975E+1	1.39982E+1
258	02/09/2022	15:39:24.448	0.00000E+0	0.00000E+0	4.00000E+1	0.00000E+0	0.00000E+0	0.00000E+0	2.00000E+1	1.40000E+1	1.99996E+1	1.40005E+1
259	02/09/2022	15:39:25.829	0.00000E+0	0.00000E+0	4.00000E+1	0.00000E+0	0.00000E+0	0.00000E+0	2.00000E+1	1.40000E+1	2.00030E+1	1.39990E+1
260	02/09/2022	15:39:27.216	0.00000E+0	0.00000E+0	4.00000E+1	0.00000E+0	0.00000E+0	0.00000E+0	2.00000E+1	1.40000E+1	2.00024E+1	1.40025E+1
261	02/09/2022	15:39:28.798	0.00000E+0	0.00000E+0	4.00000E+1	0.00000E+0	0.00000E+0	0.00000E+0	2.00000E+1	1.40000E+1	2.00000E+1	1.40018E+1
262	02/09/2022	15:39:30.197	0.00000E+0	0.00000E+0	4.00000E+1	0.00000E+0	0.00000E+0	0.00000E+0	2.00000E+1	1.40000E+1	2.00004E+1	1.39965E+1
263	02/09/2022	15:39:31.744	0.00000E+0	0.00000E+0	4.00000E+1	0.00000E+0	0.00000E+0	0.00000E+0	2.00000E+1	1.40000E+1	2.00002E+1	1.40015E+1
264	02/09/2022	15:39:33.145	0.00000E+0	0.00000E+0	4.00000E+1	0.00000E+0	0.00000E+0	0.00000E+0	2.00000E+1	1.40000E+1	2.00013E+1	1.39981E+1
265	02/09/2022	15:39:34.541	0.00000E+0	0.00000E+0	4.00000E+1	0.00000E+0	0.00000E+0	0.00000E+0	2.00000E+1	1.40000E+1	2.00026E+1	1.40015E+1
266	02/09/2022	15:39:36.004	0.00000E+0	0.00000E+0	4.00000E+1	0.00000E+0	0.00000E+0	0.00000E+0	2.00000E+1	1.40000E+1	1.99992E+1	1.40010E+1
267	02/09/2022	15:39:37.407	0.00000E+0	0.00000E+0	4.00000E+1	0.00000E+0	0.00000E+0	0.00000E+0	2.00000E+1	1.40000E+1	2.00004E+1	1.40022E+1
268	02/09/2022	15:39:38.785	0.00000E+0	0.00000E+0	4.00000E+1	0.00000E+0	0.00000E+0	0.00000E+0	2.00000E+1	1.40000E+1	2.00027E+1	1.40007E+1
269	02/09/2022	15:39:40.304	0.00000E+0	0.00000E+0	4.00000E+1	0.00000E+0	0.00000E+0	0.00000E+0	2.00000E+1	1.40000E+1	2.00026E+1	1.40005E+1
270	02/09/2022	15:39:41.692	0.00000E+0	0.00000E+0	4.00000E+1	0.00000E+0	0.00000E+0	0.00000E+0	2.00000E+1	1.40000E+1	1.99976E+1	1.39989E+1
271	02/09/2022	15:39:43.127	0.00000E+0	0.00000E+0	4.00000E+1	0.00000E+0	0.00000E+0	0.00000E+0	2.00000E+1	1.40000E+1	1.99992E+1	1.40003E+1
272	02/09/2022	15:39:44.507	0.00000E+0	0.00000E+0	4.00000E+1	0.00000E+0	0.00000E+0	0.00000E+0	2.00000E+1	1.40000E+1	2.00002E+1	1.39974E+1
273	02/09/2022	15:39:45.906	0.00000E+0	0.00000E+0	4.00000E+1	0.00000E+0	0.00000E+0	0.00000E+0	2.00000E+1	1.40000E+1	1.99996E+1	1.39983E+1
274	02/09/2022	15:39:47.460	0.00000E+0	0.00000E+0	4.00000E+1	0.00000E+0	0.00000E+0	0.00000E+0	2.00000E+1	1.40000E+1	2.00000E+1	1.40003E+1
275	02/09/2022	15:39:48.877	0.00000E+0	0.00000E+0	4.00000E+1	0.00000E+0	0.00000E+0	0.00000E+0	2.00000E+1	1.40000E+1	1.99960E+1	1.40009E+1
276	02/09/2022	15:39:50.265	0.00000E+0	0.00000E+0	4.00000E+1	0.00000E+0	0.00000E+0	0.00000E+0	2.00000E+1	1.40000E+1	2.00003E+1	1.40019E+1
277	02/09/2022	15:39:51.624	0.00000E+0	0.00000E+0	4.00000E+1	0.00000E+0	0.00000E+0	0.00000E+0	2.00000E+1	1.40000E+1	2.00005E+1	1.39965E+1
278	02/09/2022	15:39:52.995	0.00000E+0	0.00000E+0	4.00000E+1	0.00000E+0	0.00000E+0	0.00000E+0	2.00000E+1	1.40000E+1	1.99993E+1	1.39988E+1
279	02/09/2022	15:39:54.526	0.00000E+0	0.00000E+0	4.00000E+1	0.00000E+0	0.00000E+0	0.00000E+0	2.00000E+1	1.40000E+1	2.00017E+1	1.39982E+1
280	02/09/2022	15:39:55.930	0.00000E+0	0.00000E+0	4.00000E+1	0.00000E+0	0.00000E+0	0.00000E+0	2.00000E+1	1.40000E+1	1.99989E+1	1.40009E+1
281	02/09/2022	15:39:57.385	0.00000E+0	0.00000E+0	4.00000E+1	0.00000E+0	0.00000E+0	0.00000E+0	2.00000E+1	1.40000E+1	1.99982E+1	1.40001E+1
282	02/09/2022	15:39:58.941	0.00000E+0	0.00000E+0	4.00000E+1	0.00000E+0	0.00000E+0	0.00000E+0	2.00000E+1	1.40000E+1	1.99995E+1	1.40018E+1
283	02/09/2022	15:40:00.334	0.00000E+0	0.00000E+0	4.00000E+1	0.00000E+0	0.00000E+0	0.00000E+0	2.00000E+1	1.40000E+1	2.00033E+1	1.40002E+1
284	02/09/2022	15:40:01.738	0.00000E+0	0.00000E+0	4.00000E+1	0.00000E+0	0.00000E+0	0.00000E+0	2.00000E+1	1.40000E+1	1.99968E+1	1.39984E+1
285	02/09/2022	15:40:03.220	0.00000E+0	0.00000E+0	4.00000E+1	0.00000E+0	0.00000E+0	0.00000E+0	2.00000E+1	1.40000E+1	2.00018E+1	1.39993E+1
286	02/09/2022	15:40:04.627	0.00000E+0	0.00000E+0	4.00000E+1	0.00000E+0	0.00000E+0	0.00000E+0	2.00000E+1	1.40000E+1	2.00022E+1	1.40000E+1
287	02/09/2022	15:40:06.150	0.00000E+0	0.00000E+0	4.00000E+1	0.00000E+0	0.00000E+0	0.00000E+0	2.00000E+1	1.40000E+1	1.99990E+1	1.40002E+1
288	02/09/2022	15:40:07.516	0.00000E+0	0.00000E+0	4.00000E+1	0.00000E+0	0.00000E+0	0.00000E+0	2.00000E+1	1.40000E+1	1.99993E+1	1.40015E+1
289	02/09/2022	15:40:08.987	0.00000E+0	0.00000E+0	4.00000E+1	0.00000E+0	0.00000E+0	0.00000E+0	2.00000E+1	1.40000E+1	1.99991E+1	1.39984E+1
290	02/09/2022	15:40:10.478	0.00000E+0	0.00000E+0	4.00000E+1	0.00000E+0	0.00000E+0	0.00000E+0	2.00000E+1	1.40000E+1	1.99992E+1	1.39971E+1
291	02/09/2022	15:40:11.860	0.00000E+0	0.00000E+0	4.00000E+1	0.00000E+0	0.00000E+0	0.00000E+0	2.00000E+1	1.40000E+1	1.99981E+1	1.39984E+1
292	02/09/2022	15:40:13.384	0.00000E+0	0.00000E+0	4.00000E+1	0.00000E+0	0.00000E+0	0.00000E+0	2.00000E+1	1.40000E+1	2.00008E+1	1.39977E+1
293	02/09/2022	15:40:14.769	0.00000E+0	0.00000E+0	4.00000E+1	0.00000E+0	0.00000E+0	0.00000E+0	2.00000E+1	1.40000E+1	1.99993E+1	1.40005E+1
294	02/09/2022	15:40:16.192	0.00000E+0	0.00000E+0	4.00000E+1	0.00000E+0	0.00000E+0	0.00000E+0	2.00000E+1	1.40000E+1	2.00022E+1	1.40022E+1
295	02/09/2022	15:40:17.701	0.00000E+0	0.00000E+0	4.00000E+1	0.00000E+0	0.00000E+0	0.00000E+0	2.00000E+1	1.40000E+1	2.00020E+1	1.39977E+1
296	02/09/2022	15:40:19.071	0.00000E+0	0.00000E+0	4.00000E+1	0.00000E+0	0.00000E+0	0.00000E+0	2.00000E+1	1.40000E+1	1.99977E+1	1.39997E+1
297	02/09/2022	15:40:20.545	0.00000E+0	0.00000E+0	4.00000E+1	0.00000E+0	0.00000E+0	0.00000E+0	2.00000E+1	1.40000E+1	1.99994E+1	1.39975E+1
298	02/09/2022	15:40:22.001	0.00000E+0	0.00000E+0	4.00000E+1	0.00000E+0	0.00000E+0	0.00000E+0	2.00000E+1	1.40000E+1	1.99991E+1	1.40005E+1
299	02/09/2022	15:40:23.387	0.00000E+0	0.00000E+0	4.00000E+1	0.00000E+0	0.00000E+0	0.00000E+0	2.00000E+1	1.40000E+1	1.99989E+1	1.40003E+1
300	02/09/2022	15:40:24.912	0.00000E+0	0.00000E+0	4.00000E+1	0.00000E+0	0.00000E+0	0.00000E+0	2.00000E+1	1.40000E+1	2.00019E+1	1.39973E+1
301	02/09/2022	15:40:26.317	0.00000E+0	0.00000E+0	4.00000E+1	0.00000E+0	0.00000E+0	0.00000E+0	2.00000E+1	1.40000E+1	1.99999E+1	1.39986E+1
