#Iteration	Date	Time	RTPhase	NFringe	AccelAxis	AccelMean	AccelTemp
1	02/09/2022	17:00:17.151	2.09541776E+0	-1.23300000E+3	2.00000000E+0	-9.80588353E+0	7.15909900E+6
2	02/09/2022	17:00:18.591	5.77467068E+0	-1.23500000E+3	2.00000000E+0	-9.80588353E+0	7.15909900E+6
3	02/09/2022	17:00:19.986	3.74559759E+0	-1.23400000E+3	2.00000000E+0	-9.80588353E+0	7.15909900E+6
4	02/09/2022	17:00:21.495	1.90136919E+0	-1.23400000E+3	2.00000000E+0	-9.80588353E+0	7.15909900E+6
5	02/09/2022	17:00:22.894	3.43611696E+0	-1.23300000E+3	2.00000000E+0	-9.80588353E+0	7.15909900E+6
6	02/09/2022	17:00:24.303	1.92054395E+0	-1.23300000E+3	2.00000000E+0	-9.80588353E+0	7.15909900E+6
7	02/09/2022	17:00:25.801	3.65279175E+0	-1.23400000E+3	2.00000000E+0	-9.80588353E+0	7.15909900E+6
8	02/09/2022	17:00:27.197	7.01796210E-2	-1.23400000E+3	2.00000000E+0	-9.80588353E+0	7.15909900E+6
9	02/09/2022	17:00:28.683	2.46050518E+0	-1.23300000E+3	2.00000000E+0	-9.80588353E+0	7.15909900E+6
10	02/09/2022	17:00:30.080	2.30672361E+0	-1.23500000E+3	2.00000000E+0	-9.80588353E+0	7.15909900E+6
11	02/09/2022	17:00:31.488	5.54150560E+0	-1.23500000E+3	2.00000000E+0	-9.80588353E+0	7.15909900E+6
12	02/09/2022	17:00:32.993	5.01458320E+0	-1.23500000E+3	2.00000000E+0	-9.80588353E+0	7.15909900E+6
13	02/09/2022	17:00:34.386	3.71415098E+0	-1.23300000E+3	2.00000000E+0	-9.80588353E+0	7.15909900E+6
14	02/09/2022	17:00:35.864	1.83924296E+0	-1.23400000E+3	2.00000000E+0	-9.80588353E+0	7.15909900E+6
15	02/09/2022	17:00:37.360	4.95168998E+0	-1.23300000E+3	2.00000000E+0	-9.80588353E+0	7.15909900E+6
16	02/09/2022	17:00:38.751	2.78225765E+0	-1.23500000E+3	2.00000000E+0	-9.80588353E+0	7.15909900E+6
17	02/09/2022	17:00:40.246	8.06490399E-1	-1.23400000E+3	2.00000000E+0	-9.80588353E+0	7.15909900E+6
18	02/09/2022	17:00:41.638	1.62755362E+0	-1.23300000E+3	2.00000000E+0	-9.80588353E+0	7.15909900E+6
19	02/09/2022	17:00:43.091	1.02738363E+0	-1.23400000E+3	2.00000000E+0	-9.80588353E+0	7.15909900E+6
20	02/09/2022	17:00:44.592	3.95076752E+0	-1.23500000E+3	2.00000000E+0	-9.80588353E+0	7.15909900E+6
21	02/09/2022	17:00:46.016	4.84354434E+0	-1.23400000E+3	2.00000000E+0	-9.80588353E+0	7.15909900E+6
22	02/09/2022	17:00:47.482	4.24299086E+0	-1.23300000E+3	2.00000000E+0	-9.80588353E+0	7.15909900E+6
23	02/09/2022	17:00:48.874	4.05546171E+0	-1.23500000E+3	2.00000000E+0	-9.80588353E+0	7.15909900E+6
24	02/09/2022	17:00:50.260	5.07134048E+0	-1.23400000E+3	2.00000000E+0	-9.80588353E+0	7.15909900E+6
25	02/09/2022	17:00:51.799	8.66699145E-1	-1.23500000E+3	2.00000000E+0	-9.80588353E+0	7.15909900E+6
26	02/09/2022	17:00:53.183	2.40336440E+0	-1.23300000E+3	2.00000000E+0	-9.80588353E+0	7.15909900E+6
27	02/09/2022	17:00:54.628	2.45360227E+0	-1.23500000E+3	2.00000000E+0	-9.80588353E+0	7.15909900E+6
28	02/09/2022	17:00:56.105	3.96917529E-1	-1.23200000E+3	2.00000000E+0	-9.80588353E+0	7.15909900E+6
29	02/09/2022	17:00:57.484	4.97776766E-1	-1.23300000E+3	2.00000000E+0	-9.80588353E+0	7.15909900E+6
30	02/09/2022	17:00:58.987	4.09611220E+0	-1.23300000E+3	2.00000000E+0	-9.80588353E+0	7.15909900E+6
31	02/09/2022	17:01:00.375	4.28402485E+0	-1.23500000E+3	2.00000000E+0	-9.80588353E+0	7.15909900E+6
32	02/09/2022	17:01:01.823	2.26914108E+0	-1.23400000E+3	2.00000000E+0	-9.80588353E+0	7.15909900E+6
33	02/09/2022	17:01:03.344	3.23209752E+0	-1.23500000E+3	2.00000000E+0	-9.80588353E+0	7.15909900E+6
34	02/09/2022	17:01:04.727	3.81922867E+0	-1.23300000E+3	2.00000000E+0	-9.80588353E+0	7.15909900E+6
35	02/09/2022	17:01:06.236	5.00039387E+0	-1.23300000E+3	2.00000000E+0	-9.80588353E+0	7.15909900E+6
36	02/09/2022	17:01:07.661	5.36509781E+0	-1.23400000E+3	2.00000000E+0	-9.80588353E+0	7.15909900E+6
37	02/09/2022	17:01:09.053	3.06949556E+0	-1.23400000E+3	2.00000000E+0	-9.80588353E+0	7.15909900E+6
38	02/09/2022	17:01:10.561	5.34515606E+0	-1.23400000E+3	2.00000000E+0	-9.80588353E+0	7.15909900E+6
39	02/09/2022	17:01:11.961	3.34791307E+0	-1.23500000E+3	2.00000000E+0	-9.80588353E+0	7.15909900E+6
40	02/09/2022	17:01:13.364	3.72642283E+0	-1.23400000E+3	2.00000000E+0	-9.80588353E+0	7.15909900E+6
41	02/09/2022	17:01:14.856	2.54027218E+0	-1.23300000E+3	2.00000000E+0	-9.80588353E+0	7.15909900E+6
42	02/09/2022	17:01:16.249	3.61252476E+0	-1.23500000E+3	2.00000000E+0	-9.80588353E+0	7.15909900E+6
43	02/09/2022	17:01:17.794	4.37836466E+0	-1.23500000E+3	2.00000000E+0	-9.80588353E+0	7.15909900E+6
44	02/09/2022	17:01:19.192	4.70011713E+0	-1.23300000E+3	2.00000000E+0	-9.80588353E+0	7.15909900E+6
45	02/09/2022	17:01:20.569	1.25786425E-1	-1.23300000E+3	2.00000000E+0	-9.80588353E+0	7.15909900E+6
46	02/09/2022	17:01:22.149	5.46902500E+0	-1.23400000E+3	2.00000000E+0	-9.80588353E+0	7.15909900E+6
47	02/09/2022	17:01:23.530	6.17082121E+0	-1.23300000E+3	2.00000000E+0	-9.80588353E+0	7.15909900E+6
48	02/09/2022	17:01:24.983	5.13308321E+0	-1.23300000E+3	2.00000000E+0	-9.80588353E+0	7.15909900E+6
49	02/09/2022	17:01:26.318	4.61728217E-1	-1.23300000E+3	2.00000000E+0	-9.80588353E+0	7.15909900E+6
50	02/09/2022	17:01:27.736	2.06358765E+0	-1.23400000E+3	2.00000000E+0	-9.80588353E+0	7.15909900E+6
51	02/09/2022	17:01:29.206	2.42522363E+0	-1.23500000E+3	2.00000000E+0	-9.80588353E+0	7.15909900E+6
52	02/09/2022	17:01:30.596	3.99985490E+0	-1.23300000E+3	2.00000000E+0	-9.80588353E+0	7.15909900E+6
53	02/09/2022	17:01:32.025	3.13622372E+0	-1.23400000E+3	2.00000000E+0	-9.80588353E+0	7.15909900E+6
54	02/09/2022	17:01:33.544	3.99295199E+0	-1.23500000E+3	2.00000000E+0	-9.80588353E+0	7.15909900E+6
55	02/09/2022	17:01:34.916	5.36049586E+0	-1.23500000E+3	2.00000000E+0	-9.80588353E+0	7.15909900E+6
56	02/09/2022	17:01:36.380	1.67970896E-1	-1.23400000E+3	2.00000000E+0	-9.80588353E+0	7.15909900E+6
57	02/09/2022	17:01:37.769	2.87468000E+0	-1.23300000E+3	2.00000000E+0	-9.80588353E+0	7.15909900E+6
58	02/09/2022	17:01:39.147	4.86271910E-1	-1.23400000E+3	2.00000000E+0	-9.80588353E+0	7.15909900E+6
59	02/09/2022	17:01:40.681	5.77467068E+0	-1.23300000E+3	2.00000000E+0	-9.80588353E+0	7.15909900E+6
60	02/09/2022	17:01:42.068	4.90183561E+0	-1.23500000E+3	2.00000000E+0	-9.80588353E+0	7.15909900E+6
61	02/09/2022	17:01:43.500	3.57072378E+0	-1.23400000E+3	2.00000000E+0	-9.80588353E+0	7.15909900E+6
62	02/09/2022	17:01:45.008	2.32052944E+0	-1.23300000E+3	2.00000000E+0	-9.80588353E+0	7.15909900E+6
63	02/09/2022	17:01:46.398	2.78801008E+0	-1.23400000E+3	2.00000000E+0	-9.80588353E+0	7.15909900E+6
64	02/09/2022	17:01:47.870	1.73646625E+0	-1.23500000E+3	2.00000000E+0	-9.80588353E+0	7.15909900E+6
65	02/09/2022	17:01:49.248	3.58146164E+0	-1.23400000E+3	2.00000000E+0	-9.80588353E+0	7.15909900E+6
66	02/09/2022	17:01:50.643	3.82076265E+0	-1.23500000E+3	2.00000000E+0	-9.80588353E+0	7.15909900E+6
67	02/09/2022	17:01:52.100	4.36302486E+0	-1.23500000E+3	2.00000000E+0	-9.80588353E+0	7.15909900E+6
68	02/09/2022	17:01:53.486	3.01734021E+0	-1.23500000E+3	2.00000000E+0	-9.80588353E+0	7.15909900E+6
69	02/09/2022	17:01:54.984	2.89500524E+0	-1.23500000E+3	2.00000000E+0	-9.80588353E+0	7.15909900E+6
70	02/09/2022	17:01:56.435	2.51841296E+0	-1.23400000E+3	2.00000000E+0	-9.80588353E+0	7.15909900E+6
71	02/09/2022	17:01:57.824	1.22526715E+0	-1.23400000E+3	2.00000000E+0	-9.80588353E+0	7.15909900E+6
72	02/09/2022	17:01:59.335	1.26054871E+0	-1.23300000E+3	2.00000000E+0	-9.80588353E+0	7.15909900E+6
73	02/09/2022	17:02:00.712	4.71622393E+0	-1.23300000E+3	2.00000000E+0	-9.80588353E+0	7.15909900E+6
74	02/09/2022	17:02:02.120	2.80871882E+0	-1.23300000E+3	2.00000000E+0	-9.80588353E+0	7.15909900E+6
75	02/09/2022	17:02:03.623	3.36708783E-1	-1.23300000E+3	2.00000000E+0	-9.80588353E+0	7.15909900E+6
76	02/09/2022	17:02:05.015	1.01127683E+0	-1.23400000E+3	2.00000000E+0	-9.80588353E+0	7.15909900E+6
77	02/09/2022	17:02:06.498	9.01213713E-1	-1.23300000E+3	2.00000000E+0	-9.80588353E+0	7.15909900E+6
78	02/09/2022	17:02:07.901	2.38610712E+0	-1.23500000E+3	2.00000000E+0	-9.80588353E+0	7.15909900E+6
79	02/09/2022	17:02:09.285	4.17204425E+0	-1.23300000E+3	2.00000000E+0	-9.80588353E+0	7.15909900E+6
80	02/09/2022	17:02:10.822	4.72964626E+0	-1.23500000E+3	2.00000000E+0	-9.80588353E+0	7.15909900E+6
81	02/09/2022	17:02:12.230	3.45490823E+0	-1.23500000E+3	2.00000000E+0	-9.80588353E+0	7.15909900E+6
82	02/09/2022	17:02:13.669	3.76668982E+0	-1.23300000E+3	2.00000000E+0	-9.80588353E+0	7.15909900E+6
83	02/09/2022	17:02:15.176	4.66828703E+0	-1.23300000E+3	2.00000000E+0	-9.80588353E+0	7.15909900E+6
84	02/09/2022	17:02:16.571	5.34132110E+0	-1.23500000E+3	2.00000000E+0	-9.80588353E+0	7.15909900E+6
85	02/09/2022	17:02:18.100	1.04425742E+0	-1.23300000E+3	2.00000000E+0	-9.80588353E+0	7.15909900E+6
86	02/09/2022	17:02:19.484	3.62019466E+0	-1.23500000E+3	2.00000000E+0	-9.80588353E+0	7.15909900E+6
87	02/09/2022	17:02:20.895	4.29783067E+0	-1.23500000E+3	2.00000000E+0	-9.80588353E+0	7.15909900E+6
88	02/09/2022	17:02:22.441	8.15310789E-1	-1.23400000E+3	2.00000000E+0	-9.80588353E+0	7.15909900E+6
89	02/09/2022	17:02:23.987	4.73616568E+0	-1.23400000E+3	2.00000000E+0	-9.80588353E+0	7.15909900E+6
90	02/09/2022	17:02:25.457	3.26431112E+0	-1.23500000E+3	2.00000000E+0	-9.80588353E+0	7.15909900E+6
91	02/09/2022	17:02:26.893	1.42468466E+0	-1.23300000E+3	2.00000000E+0	-9.80588353E+0	7.15909900E+6
92	02/09/2022	17:02:28.289	4.45583069E+0	-1.23500000E+3	2.00000000E+0	-9.80588353E+0	7.15909900E+6
93	02/09/2022	17:02:29.836	4.58238411E+0	-1.23500000E+3	2.00000000E+0	-9.80588353E+0	7.15909900E+6
94	02/09/2022	17:02:31.226	2.16367990E+0	-1.23300000E+3	2.00000000E+0	-9.80588353E+0	7.15909900E+6
95	02/09/2022	17:02:32.685	4.84622880E+0	-1.23400000E+3	2.00000000E+0	-9.80588353E+0	7.15909900E+6
96	02/09/2022	17:02:34.209	4.19428697E+0	-1.23400000E+3	2.00000000E+0	-9.80588353E+0	7.15909900E+6
97	02/09/2022	17:02:35.601	1.63599051E+0	-1.23400000E+3	2.00000000E+0	-9.80588353E+0	7.15909900E+6
98	02/09/2022	17:02:37.083	3.90781606E+0	-1.23400000E+3	2.00000000E+0	-9.80588353E+0	7.15909900E+6
99	02/09/2022	17:02:38.474	3.03728196E-1	-1.23400000E+3	2.00000000E+0	-9.80588353E+0	7.15909900E+6
100	02/09/2022	17:02:39.872	3.77551021E+0	-1.23500000E+3	2.00000000E+0	-9.80588353E+0	7.15909900E+6
101	02/09/2022	17:02:41.468	5.63546192E+0	-1.23500000E+3	2.00000000E+0	-9.80588353E+0	7.15909900E+6
102	02/09/2022	17:02:42.848	2.91149554E+0	-1.23500000E+3	2.00000000E+0	-9.80588353E+0	7.15909900E+6
103	02/09/2022	17:02:44.323	4.11797143E+0	-1.23300000E+3	2.00000000E+0	-9.80588353E+0	7.15909900E+6
104	02/09/2022	17:02:45.711	4.38143263E+0	-1.23500000E+3	2.00000000E+0	-9.80588353E+0	7.15909900E+6
105	02/09/2022	17:02:47.112	3.94271412E+0	-1.23300000E+3	2.00000000E+0	-9.80588353E+0	7.15909900E+6
106	02/09/2022	17:02:48.579	5.89585516E+0	-1.23400000E+3	2.00000000E+0	-9.80588353E+0	7.15909900E+6
107	02/09/2022	17:02:49.973	7.97670010E-2	-1.23300000E+3	2.00000000E+0	-9.80588353E+0	7.15909900E+6
108	02/09/2022	17:02:51.433	4.12487434E+0	-1.23400000E+3	2.00000000E+0	-9.80588353E+0	7.15909900E+6
109	02/09/2022	17:02:52.936	2.39837896E+0	-1.23400000E+3	2.00000000E+0	-9.80588353E+0	7.15909900E+6
110	02/09/2022	17:02:54.330	1.15585452E+0	-1.23400000E+3	2.00000000E+0	-9.80588353E+0	7.15909900E+6
111	02/09/2022	17:02:55.774	3.69459273E+0	-1.23300000E+3	2.00000000E+0	-9.80588353E+0	7.15909900E+6
112	02/09/2022	17:02:57.157	4.96741329E+0	-1.23400000E+3	2.00000000E+0	-9.80588353E+0	7.15909900E+6
113	02/09/2022	17:02:58.569	9.48383622E-1	-1.23300000E+3	2.00000000E+0	-9.80588353E+0	7.15909900E+6
114	02/09/2022	17:03:00.064	3.06220915E+0	-1.23300000E+3	2.00000000E+0	-9.80588353E+0	7.15909900E+6
115	02/09/2022	17:03:01.454	4.46465108E+0	-1.23500000E+3	2.00000000E+0	-9.80588353E+0	7.15909900E+6
116	02/09/2022	17:03:02.955	6.01435517E+0	-1.23500000E+3	2.00000000E+0	-9.80588353E+0	7.15909900E+6
117	02/09/2022	17:03:04.468	4.68516082E+0	-1.23500000E+3	2.00000000E+0	-9.80588353E+0	7.15909900E+6
118	02/09/2022	17:03:05.851	4.75188899E+0	-1.23400000E+3	2.00000000E+0	-9.80588353E+0	7.15909900E+6
119	02/09/2022	17:03:07.334	3.16153440E+0	-1.23400000E+3	2.00000000E+0	-9.80588353E+0	7.15909900E+6
120	02/09/2022	17:03:08.723	1.33494678E+0	-1.23400000E+3	2.00000000E+0	-9.80588353E+0	7.15909900E+6
121	02/09/2022	17:03:10.121	5.93995711E+0	-1.23500000E+3	2.00000000E+0	-9.80588353E+0	7.15909900E+6
122	02/09/2022	17:03:11.641	9.71393334E-1	-1.23400000E+3	2.00000000E+0	-9.80588353E+0	7.15909900E+6
123	02/09/2022	17:03:13.038	2.35120905E+0	-1.23400000E+3	2.00000000E+0	-9.80588353E+0	7.15909900E+6
124	02/09/2022	17:03:14.472	1.88986433E+0	-1.23400000E+3	2.00000000E+0	-9.80588353E+0	7.15909900E+6
125	02/09/2022	17:03:15.985	4.28747630E+0	-1.23300000E+3	2.00000000E+0	-9.80588353E+0	7.15909900E+6
126	02/09/2022	17:03:17.374	5.86555904E+0	-1.23500000E+3	2.00000000E+0	-9.80588353E+0	7.15909900E+6
127	02/09/2022	17:03:18.943	3.52853931E+0	-1.23400000E+3	2.00000000E+0	-9.80588353E+0	7.15909900E+6
128	02/09/2022	17:03:20.320	4.42630156E+0	-1.23300000E+3	2.00000000E+0	-9.80588353E+0	7.15909900E+6
129	02/09/2022	17:03:21.806	3.34484511E+0	-1.23500000E+3	2.00000000E+0	-9.80588353E+0	7.15909900E+6
130	02/09/2022	17:03:23.301	4.46465108E+0	-1.23400000E+3	2.00000000E+0	-9.80588353E+0	7.15909900E+6
131	02/09/2022	17:03:24.697	3.53352474E+0	-1.23300000E+3	2.00000000E+0	-9.80588353E+0	7.15909900E+6
132	02/09/2022	17:03:26.188	3.42921405E+0	-1.23500000E+3	2.00000000E+0	-9.80588353E+0	7.15909900E+6
133	02/09/2022	17:03:27.579	3.75096652E+0	-1.23300000E+3	2.00000000E+0	-9.80588353E+0	7.15909900E+6
134	02/09/2022	17:03:28.966	3.42039366E+0	-1.23500000E+3	2.00000000E+0	-9.80588353E+0	7.15909900E+6
135	02/09/2022	17:03:30.489	6.15202995E+0	-1.23400000E+3	2.00000000E+0	-9.80588353E+0	7.15909900E+6
136	02/09/2022	17:03:31.882	7.39762235E-1	-1.23400000E+3	2.00000000E+0	-9.80588353E+0	7.15909900E+6
137	02/09/2022	17:03:33.360	2.68523337E+0	-1.23400000E+3	2.00000000E+0	-9.80588353E+0	7.15909900E+6
138	02/09/2022	17:03:34.745	5.31946188E+0	-1.23300000E+3	2.00000000E+0	-9.80588353E+0	7.15909900E+6
139	02/09/2022	17:03:36.148	2.25073331E+0	-1.23300000E+3	2.00000000E+0	-9.80588353E+0	7.15909900E+6
140	02/09/2022	17:03:37.663	4.75150549E+0	-1.23300000E+3	2.00000000E+0	-9.80588353E+0	7.15909900E+6
141	02/09/2022	17:03:39.060	8.27966130E-1	-1.23400000E+3	2.00000000E+0	-9.80588353E+0	7.15909900E+6
142	02/09/2022	17:03:40.450	3.54733057E+0	-1.23300000E+3	2.00000000E+0	-9.80588353E+0	7.15909900E+6
143	02/09/2022	17:03:42.027	5.85980661E-1	-1.23400000E+3	2.00000000E+0	-9.80588353E+0	7.15909900E+6
144	02/09/2022	17:03:43.427	3.48597134E+0	-1.23500000E+3	2.00000000E+0	-9.80588353E+0	7.15909900E+6
145	02/09/2022	17:03:44.870	5.04986475E+0	-1.23300000E+3	2.00000000E+0	-9.80588353E+0	7.15909900E+6
146	02/09/2022	17:03:46.320	5.43757840E+0	-1.23400000E+3	2.00000000E+0	-9.80588353E+0	7.15909900E+6
147	02/09/2022	17:03:47.709	3.55116552E+0	-1.23400000E+3	2.00000000E+0	-9.80588353E+0	7.15909900E+6
148	02/09/2022	17:03:49.203	5.12848127E+0	-1.23300000E+3	2.00000000E+0	-9.80588353E+0	7.15909900E+6
149	02/09/2022	17:03:50.599	3.19566548E+0	-1.23500000E+3	2.00000000E+0	-9.80588353E+0	7.15909900E+6
150	02/09/2022	17:03:51.998	3.15769945E+0	-1.23400000E+3	2.00000000E+0	-9.80588353E+0	7.15909900E+6
151	02/09/2022	17:03:53.491	5.28226284E+0	-1.23300000E+3	2.00000000E+0	-9.80588353E+0	7.15909900E+6
152	02/09/2022	17:03:54.888	4.10071414E+0	-1.23500000E+3	2.00000000E+0	-9.80588353E+0	7.15909900E+6
153	02/09/2022	17:03:56.325	3.05300526E+0	-1.23300000E+3	2.00000000E+0	-9.80588353E+0	7.15909900E+6
154	02/09/2022	17:03:57.703	2.09119931E+0	-1.23400000E+3	2.00000000E+0	-9.80588353E+0	7.15909900E+6
155	02/09/2022	17:03:59.091	1.54165069E+0	-1.23400000E+3	2.00000000E+0	-9.80588353E+0	7.15909900E+6
156	02/09/2022	17:04:00.622	1.66782061E+0	-1.23400000E+3	2.00000000E+0	-9.80588353E+0	7.15909900E+6
157	02/09/2022	17:04:02.013	5.90966099E+0	-1.23400000E+3	2.00000000E+0	-9.80588353E+0	7.15909900E+6
158	02/09/2022	17:04:03.417	1.33111183E+0	-1.23500000E+3	2.00000000E+0	-9.80588353E+0	7.15909900E+6
159	02/09/2022	17:04:04.773	1.36025746E+0	-1.23400000E+3	2.00000000E+0	-9.80588353E+0	7.15909900E+6
160	02/09/2022	17:04:06.172	4.48651031E+0	-1.23300000E+3	2.00000000E+0	-9.80588353E+0	7.15909900E+6
161	02/09/2022	17:04:07.745	1.92936434E+0	-1.23500000E+3	2.00000000E+0	-9.80588353E+0	7.15909900E+6
162	02/09/2022	17:04:09.131	5.81877262E+0	-1.23400000E+3	2.00000000E+0	-9.80588353E+0	7.15909900E+6
163	02/09/2022	17:04:10.523	4.78065113E+0	-1.23500000E+3	2.00000000E+0	-9.80588353E+0	7.15909900E+6
164	02/09/2022	17:04:12.050	6.20840374E+0	-1.23400000E+3	2.00000000E+0	-9.80588353E+0	7.15909900E+6
165	02/09/2022	17:04:13.433	4.47653943E+0	-1.23300000E+3	2.00000000E+0	-9.80588353E+0	7.15909900E+6
166	02/09/2022	17:04:14.956	1.00974285E+0	-1.23500000E+3	2.00000000E+0	-9.80588353E+0	7.15909900E+6
167	02/09/2022	17:04:16.351	2.02792260E+0	-1.23300000E+3	2.00000000E+0	-9.80588353E+0	7.15909900E+6
168	02/09/2022	17:04:17.731	2.82904407E+0	-1.23400000E+3	2.00000000E+0	-9.80588353E+0	7.15909900E+6
169	02/09/2022	17:04:19.219	2.09656824E+0	-1.23300000E+3	2.00000000E+0	-9.80588353E+0	7.15909900E+6
170	02/09/2022	17:04:20.613	2.65301977E+0	-1.23500000E+3	2.00000000E+0	-9.80588353E+0	7.15909900E+6
171	02/09/2022	17:04:22.047	8.66315650E-1	-1.23300000E+3	2.00000000E+0	-9.80588353E+0	7.15909900E+6
172	02/09/2022	17:04:23.550	1.50368467E+0	-1.23300000E+3	2.00000000E+0	-9.80588353E+0	7.15909900E+6
173	02/09/2022	17:04:24.933	2.28409739E+0	-1.23300000E+3	2.00000000E+0	-9.80588353E+0	7.15909900E+6
174	02/09/2022	17:04:26.415	4.80711229E+0	-1.23500000E+3	2.00000000E+0	-9.80588353E+0	7.15909900E+6
175	02/09/2022	17:04:27.800	5.13691816E+0	-1.23300000E+3	2.00000000E+0	-9.80588353E+0	7.15909900E+6
176	02/09/2022	17:04:29.189	1.84691287E+0	-1.23500000E+3	2.00000000E+0	-9.80588353E+0	7.15909900E+6
177	02/09/2022	17:04:30.645	4.24797630E+0	-1.23500000E+3	2.00000000E+0	-9.80588353E+0	7.15909900E+6
178	02/09/2022	17:04:32.043	6.11291344E+0	-1.23300000E+3	2.00000000E+0	-9.80588353E+0	7.15909900E+6
179	02/09/2022	17:04:33.592	4.06888404E+0	-1.23300000E+3	2.00000000E+0	-9.80588353E+0	7.15909900E+6
180	02/09/2022	17:04:35.011	4.93481619E+0	-1.23300000E+3	2.00000000E+0	-9.80588353E+0	7.15909900E+6
181	02/09/2022	17:04:36.406	2.53835471E+0	-1.23500000E+3	2.00000000E+0	-9.80588353E+0	7.15909900E+6
182	02/09/2022	17:04:37.911	4.07118501E+0	-1.23500000E+3	2.00000000E+0	-9.80588353E+0	7.15909900E+6
183	02/09/2022	17:04:39.308	4.82628705E+0	-1.23400000E+3	2.00000000E+0	-9.80588353E+0	7.15909900E+6
184	02/09/2022	17:04:40.768	4.05162676E+0	-1.23400000E+3	2.00000000E+0	-9.80588353E+0	7.15909900E+6
185	02/09/2022	17:04:42.279	5.25273371E+0	-1.23500000E+3	2.00000000E+0	-9.80588353E+0	7.15909900E+6
186	02/09/2022	17:04:43.671	1.92514589E+0	-1.23300000E+3	2.00000000E+0	-9.80588353E+0	7.15909900E+6
187	02/09/2022	17:04:45.196	1.46073321E+0	-1.23400000E+3	2.00000000E+0	-9.80588353E+0	7.15909900E+6
188	02/09/2022	17:04:46.579	3.56803931E+0	-1.23500000E+3	2.00000000E+0	-9.80588353E+0	7.15909900E+6
189	02/09/2022	17:04:47.960	1.28394192E+0	-1.23300000E+3	2.00000000E+0	-9.80588353E+0	7.15909900E+6
190	02/09/2022	17:04:49.457	5.58905900E+0	-1.23500000E+3	2.00000000E+0	-9.80588353E+0	7.15909900E+6
191	02/09/2022	17:04:50.855	9.44548670E-1	-1.23400000E+3	2.00000000E+0	-9.80588353E+0	7.15909900E+6
192	02/09/2022	17:04:52.288	9.61422459E-1	-1.23400000E+3	2.00000000E+0	-9.80588353E+0	7.15909900E+6
193	02/09/2022	17:04:53.702	1.10906811E+0	-1.23400000E+3	2.00000000E+0	-9.80588353E+0	7.15909900E+6
194	02/09/2022	17:04:55.086	5.33441819E+0	-1.23300000E+3	2.00000000E+0	-9.80588353E+0	7.15909900E+6
195	02/09/2022	17:04:56.600	3.49134027E+0	-1.23400000E+3	2.00000000E+0	-9.80588353E+0	7.15909900E+6
196	02/09/2022	17:04:57.989	6.06114159E+0	-1.23500000E+3	2.00000000E+0	-9.80588353E+0	7.15909900E+6
197	02/09/2022	17:04:59.445	5.00077737E+0	-1.23500000E+3	2.00000000E+0	-9.80588353E+0	7.15909900E+6
198	02/09/2022	17:05:00.926	4.71162199E+0	-1.23300000E+3	2.00000000E+0	-9.80588353E+0	7.15909900E+6
199	02/09/2022	17:05:02.346	6.00016585E+0	-1.23400000E+3	2.00000000E+0	-9.80588353E+0	7.15909900E+6
200	02/09/2022	17:05:03.921	2.45590324E+0	-1.23400000E+3	2.00000000E+0	-9.80588353E+0	7.15909900E+6
201	02/09/2022	17:05:05.310	6.19574840E+0	-1.23400000E+3	2.00000000E+0	-9.80588353E+0	7.15909900E+6
202	02/09/2022	17:05:06.709	2.87237903E-1	-1.23300000E+3	2.00000000E+0	-9.80588353E+0	7.15909900E+6
203	02/09/2022	17:05:08.184	1.11520403E+0	-1.23300000E+3	2.00000000E+0	-9.80588353E+0	7.15909900E+6
204	02/09/2022	17:05:09.588	3.70456360E+0	-1.23300000E+3	2.00000000E+0	-9.80588353E+0	7.15909900E+6
205	02/09/2022	17:05:10.987	3.01465574E+0	-1.23500000E+3	2.00000000E+0	-9.80588353E+0	7.15909900E+6
206	02/09/2022	17:05:12.474	6.03621440E-1	-1.23300000E+3	2.00000000E+0	-9.80588353E+0	7.15909900E+6
207	02/09/2022	17:05:13.878	4.09035977E+0	-1.23300000E+3	2.00000000E+0	-9.80588353E+0	7.15909900E+6
208	02/09/2022	17:05:15.376	5.41763665E+0	-1.23400000E+3	2.00000000E+0	-9.80588353E+0	7.15909900E+6
209	02/09/2022	17:05:16.771	5.91733089E-1	-1.23400000E+3	2.00000000E+0	-9.80588353E+0	7.15909900E+6
210	02/09/2022	17:05:18.153	5.28571430E+0	-1.23500000E+3	2.00000000E+0	-9.80588353E+0	7.15909900E+6
211	02/09/2022	17:05:19.671	2.63729647E+0	-1.23300000E+3	2.00000000E+0	-9.80588353E+0	7.15909900E+6
212	02/09/2022	17:05:21.055	3.94386461E+0	-1.23400000E+3	2.00000000E+0	-9.80588353E+0	7.15909900E+6
213	02/09/2022	17:05:22.492	3.48865581E+0	-1.23400000E+3	2.00000000E+0	-9.80588353E+0	7.15909900E+6
214	02/09/2022	17:05:23.903	5.38619004E+0	-1.23500000E+3	2.00000000E+0	-9.80588353E+0	7.15909900E+6
215	02/09/2022	17:05:25.318	4.51527245E+0	-1.23500000E+3	2.00000000E+0	-9.80588353E+0	7.15909900E+6
216	02/09/2022	17:05:26.830	3.70456360E+0	-1.23300000E+3	2.00000000E+0	-9.80588353E+0	7.15909900E+6
217	02/09/2022	17:05:28.218	4.61191324E+0	-1.23400000E+3	2.00000000E+0	-9.80588353E+0	7.15909900E+6
218	02/09/2022	17:05:29.666	5.11966088E-1	-1.23200000E+3	2.00000000E+0	-9.80588353E+0	7.15909900E+6
219	02/09/2022	17:05:31.171	5.16606380E+0	-1.23300000E+3	2.00000000E+0	-9.80588353E+0	7.15909900E+6
220	02/09/2022	17:05:32.564	2.05821872E+0	-1.23500000E+3	2.00000000E+0	-9.80588353E+0	7.15909900E+6
221	02/09/2022	17:05:34.070	2.73662173E+0	-1.23500000E+3	2.00000000E+0	-9.80588353E+0	7.15909900E+6
222	02/09/2022	17:05:35.463	2.28409739E+0	-1.23300000E+3	2.00000000E+0	-9.80588353E+0	7.15909900E+6
223	02/09/2022	17:05:36.845	5.28648129E+0	-1.23500000E+3	2.00000000E+0	-9.80588353E+0	7.15909900E+6
224	02/09/2022	17:05:38.375	2.91149554E+0	-1.23300000E+3	2.00000000E+0	-9.80588353E+0	7.15909900E+6
225	02/09/2022	17:05:39.766	5.64083085E+0	-1.23500000E+3	2.00000000E+0	-9.80588353E+0	7.15909900E+6
226	02/09/2022	17:05:41.208	3.84185488E+0	-1.23300000E+3	2.00000000E+0	-9.80588353E+0	7.15909900E+6
227	02/09/2022	17:05:42.702	2.46932557E+0	-1.23400000E+3	2.00000000E+0	-9.80588353E+0	7.15909900E+6
228	02/09/2022	17:05:44.093	1.76407791E-1	-1.23300000E+3	2.00000000E+0	-9.80588353E+0	7.15909900E+6
229	02/09/2022	17:05:45.611	2.39224304E+0	-1.23500000E+3	2.00000000E+0	-9.80588353E+0	7.15909900E+6
230	02/09/2022	17:05:47.008	3.59718495E+0	-1.23300000E+3	2.00000000E+0	-9.80588353E+0	7.15909900E+6
231	02/09/2022	17:05:48.399	2.30327215E+0	-1.23500000E+3	2.00000000E+0	-9.80588353E+0	7.15909900E+6
232	02/09/2022	17:05:49.857	3.00161691E+0	-1.23500000E+3	2.00000000E+0	-9.80588353E+0	7.15909900E+6
233	02/09/2022	17:05:51.241	3.21023829E+0	-1.23300000E+3	2.00000000E+0	-9.80588353E+0	7.15909900E+6
234	02/09/2022	17:05:52.696	7.93835058E-2	-1.23300000E+3	2.00000000E+0	-9.80588353E+0	7.15909900E+6
235	02/09/2022	17:05:54.173	1.03620402E+0	-1.23300000E+3	2.00000000E+0	-9.80588353E+0	7.15909900E+6
236	02/09/2022	17:05:55.575	3.64435486E+0	-1.23300000E+3	2.00000000E+0	-9.80588353E+0	7.15909900E+6
237	02/09/2022	17:05:57.076	4.21576270E+0	-1.23400000E+3	2.00000000E+0	-9.80588353E+0	7.15909900E+6
238	02/09/2022	17:05:58.461	3.05070429E+0	-1.23300000E+3	2.00000000E+0	-9.80588353E+0	7.15909900E+6
239	02/09/2022	17:05:59.879	4.47807342E+0	-1.23400000E+3	2.00000000E+0	-9.80588353E+0	7.15909900E+6
240	02/09/2022	17:06:01.395	2.74582561E-1	-1.23500000E+3	2.00000000E+0	-9.80588353E+0	7.15909900E+6
241	02/09/2022	17:06:02.767	2.31669448E+0	-1.23500000E+3	2.00000000E+0	-9.80588353E+0	7.15909900E+6
242	02/09/2022	17:06:04.208	1.52669438E+0	-1.23300000E+3	2.00000000E+0	-9.80588353E+0	7.15909900E+6
243	02/09/2022	17:06:05.613	2.49041781E+0	-1.23300000E+3	2.00000000E+0	-9.80588353E+0	7.15909900E+6
244	02/09/2022	17:06:06.984	5.89432118E+0	-1.23300000E+3	2.00000000E+0	-9.80588353E+0	7.15909900E+6
245	02/09/2022	17:06:08.441	4.95475794E+0	-1.23300000E+3	2.00000000E+0	-9.80588353E+0	7.15909900E+6
246	02/09/2022	17:06:09.825	4.33349573E-2	-1.23300000E+3	2.00000000E+0	-9.80588353E+0	7.15909900E+6
247	02/09/2022	17:06:11.228	4.40214137E+0	-1.23300000E+3	2.00000000E+0	-9.80588353E+0	7.15909900E+6
248	02/09/2022	17:06:12.593	3.34829656E+0	-1.23300000E+3	2.00000000E+0	-9.80588353E+0	7.15909900E+6
249	02/09/2022	17:06:13.978	3.60792281E+0	-1.23400000E+3	2.00000000E+0	-9.80588353E+0	7.15909900E+6
250	02/09/2022	17:06:15.506	4.10531608E+0	-1.23400000E+3	2.00000000E+0	-9.80588353E+0	7.15909900E+6
251	02/09/2022	17:06:16.932	5.20556380E+0	-1.23300000E+3	2.00000000E+0	-9.80588353E+0	7.15909900E+6
252	02/09/2022	17:06:18.388	3.30611209E+0	-1.23300000E+3	2.00000000E+0	-9.80588353E+0	7.15909900E+6
253	02/09/2022	17:06:19.895	4.52409284E+0	-1.23300000E+3	2.00000000E+0	-9.80588353E+0	7.15909900E+6
254	02/09/2022	17:06:21.258	9.38029252E-1	-1.23300000E+3	2.00000000E+0	-9.80588353E+0	7.15909900E+6
255	02/09/2022	17:06:22.796	4.55707343E+0	-1.23500000E+3	2.00000000E+0	-9.80588353E+0	7.15909900E+6
256	02/09/2022	17:06:24.190	2.39607799E+0	-1.23300000E+3	2.00000000E+0	-9.80588353E+0	7.15909900E+6
257	02/09/2022	17:06:25.558	3.80005391E+0	-1.23300000E+3	2.00000000E+0	-9.80588353E+0	7.15909900E+6
258	02/09/2022	17:06:27.016	5.08322884E+0	-1.23300000E+3	2.00000000E+0	-9.80588353E+0	7.15909900E+6
259	02/09/2022	17:06:28.406	4.60846178E+0	-1.23500000E+3	2.00000000E+0	-9.80588353E+0	7.15909900E+6
260	02/09/2022	17:06:29.819	3.79698595E+0	-1.23500000E+3	2.00000000E+0	-9.80588353E+0	7.15909900E+6
261	02/09/2022	17:06:31.322	5.23164148E+0	-1.23500000E+3	2.00000000E+0	-9.80588353E+0	7.15909900E+6
262	02/09/2022	17:06:32.691	3.04456837E+0	-1.23500000E+3	2.00000000E+0	-9.80588353E+0	7.15909900E+6
263	02/09/2022	17:06:34.245	3.10554411E+0	-1.23500000E+3	2.00000000E+0	-9.80588353E+0	7.15909900E+6
264	02/09/2022	17:06:35.623	6.00936974E-1	-1.23400000E+3	2.00000000E+0	-9.80588353E+0	7.15909900E+6
265	02/09/2022	17:06:37.017	3.76323837E+0	-1.23400000E+3	2.00000000E+0	-9.80588353E+0	7.15909900E+6
266	02/09/2022	17:06:38.479	1.49716525E+0	-1.23400000E+3	2.00000000E+0	-9.80588353E+0	7.15909900E+6
267	02/09/2022	17:06:39.863	2.10078669E+0	-1.23500000E+3	2.00000000E+0	-9.80588353E+0	7.15909900E+6
268	02/09/2022	17:06:41.304	6.16545228E+0	-1.23400000E+3	2.00000000E+0	-9.80588353E+0	7.15909900E+6
269	02/09/2022	17:06:42.735	3.14159265E+0	-1.23500000E+3	2.00000000E+0	-9.80588353E+0	7.15909900E+6
270	02/09/2022	17:06:44.138	6.27359793E+0	-1.23500000E+3	2.00000000E+0	-9.80588353E+0	7.15909900E+6
271	02/09/2022	17:06:45.657	6.17580665E+0	-1.23500000E+3	2.00000000E+0	-9.80588353E+0	7.15909900E+6
272	02/09/2022	17:06:47.033	4.82283560E+0	-1.23400000E+3	2.00000000E+0	-9.80588353E+0	7.15909900E+6
273	02/09/2022	17:06:48.485	5.94149109E+0	-1.23500000E+3	2.00000000E+0	-9.80588353E+0	7.15909900E+6
274	02/09/2022	17:06:49.989	1.97308279E+0	-1.23500000E+3	2.00000000E+0	-9.80588353E+0	7.15909900E+6
275	02/09/2022	17:06:51.401	3.59526747E+0	-1.23500000E+3	2.00000000E+0	-9.80588353E+0	7.15909900E+6
276	02/09/2022	17:06:52.884	3.25088878E+0	-1.23300000E+3	2.00000000E+0	-9.80588353E+0	7.15909900E+6
277	02/09/2022	17:06:54.276	4.64949577E+0	-1.23500000E+3	2.00000000E+0	-9.80588353E+0	7.15909900E+6
278	02/09/2022	17:06:55.658	1.04157295E+0	-1.23300000E+3	2.00000000E+0	-9.80588353E+0	7.15909900E+6
279	02/09/2022	17:06:57.121	5.48896675E+0	-1.23300000E+3	2.00000000E+0	-9.80588353E+0	7.15909900E+6
280	02/09/2022	17:06:58.512	3.60140339E+0	-1.23500000E+3	2.00000000E+0	-9.80588353E+0	7.15909900E+6
281	02/09/2022	17:06:59.977	1.47415554E+0	-1.23500000E+3	2.00000000E+0	-9.80588353E+0	7.15909900E+6
282	02/09/2022	17:07:01.502	4.92292784E+0	-1.23300000E+3	2.00000000E+0	-9.80588353E+0	7.15909900E+6
283	02/09/2022	17:07:02.897	1.54088370E+0	-1.23500000E+3	2.00000000E+0	-9.80588353E+0	7.15909900E+6
284	02/09/2022	17:07:04.373	3.02002468E+0	-1.23300000E+3	2.00000000E+0	-9.80588353E+0	7.15909900E+6
285	02/09/2022	17:07:05.767	2.56980131E+0	-1.23500000E+3	2.00000000E+0	-9.80588353E+0	7.15909900E+6
286	02/09/2022	17:07:07.150	1.93971871E+0	-1.23400000E+3	2.00000000E+0	-9.80588353E+0	7.15909900E+6
287	02/09/2022	17:07:08.667	4.86578706E+0	-1.23300000E+3	2.00000000E+0	-9.80588353E+0	7.15909900E+6
288	02/09/2022	17:07:10.066	4.38526758E+0	-1.23500000E+3	2.00000000E+0	-9.80588353E+0	7.15909900E+6
289	02/09/2022	17:07:11.535	3.41310725E-2	-1.23300000E+3	2.00000000E+0	-9.80588353E+0	7.15909900E+6
290	02/09/2022	17:07:12.955	4.42783554E+0	-1.23300000E+3	2.00000000E+0	-9.80588353E+0	7.15909900E+6
291	02/09/2022	17:07:14.352	3.60830631E+0	-1.23500000E+3	2.00000000E+0	-9.80588353E+0	7.15909900E+6
292	02/09/2022	17:07:15.872	1.18960210E+0	-1.23300000E+3	2.00000000E+0	-9.80588353E+0	7.15909900E+6
293	02/09/2022	17:07:17.265	5.28264634E+0	-1.23500000E+3	2.00000000E+0	-9.80588353E+0	7.15909900E+6
294	02/09/2022	17:07:18.705	3.31915093E+0	-1.23300000E+3	2.00000000E+0	-9.80588353E+0	7.15909900E+6
295	02/09/2022	17:07:20.206	6.41587465E-1	-1.23300000E+3	2.00000000E+0	-9.80588353E+0	7.15909900E+6
296	02/09/2022	17:07:21.619	2.13530126E+0	-1.23300000E+3	2.00000000E+0	-9.80588353E+0	7.15909900E+6
297	02/09/2022	17:07:23.110	2.13645174E+0	-1.23500000E+3	2.00000000E+0	-9.80588353E+0	7.15909900E+6
298	02/09/2022	17:07:24.495	2.35542750E+0	-1.23300000E+3	2.00000000E+0	-9.80588353E+0	7.15909900E+6
299	02/09/2022	17:07:25.895	1.32996134E+0	-1.23500000E+3	2.00000000E+0	-9.80588353E+0	7.15909900E+6
300	02/09/2022	17:07:27.423	5.29875314E+0	-1.23300000E+3	2.00000000E+0	-9.80588353E+0	7.15909900E+6
301	02/09/2022	17:07:28.806	3.61367524E+0	-1.23500000E+3	2.00000000E+0	-9.80588353E+0	7.15909900E+6
