#Iteration	Date	Time	STSX	STSY	RotationRateX	RotationRateY	FrCntX	FrCntY	TiptiltCmd1	TiptiltCmd2	TiptiltMonitor1	TiptiltMonitor2
1	02/09/2022	17:00:17.151	0.00000E+0	0.00000E+0	1.00000E+2	0.00000E+0	0.00000E+0	0.00000E+0	2.00000E+1	1.40000E+1	2.00007E+1	1.39973E+1
2	02/09/2022	17:00:18.591	0.00000E+0	0.00000E+0	1.00000E+2	0.00000E+0	0.00000E+0	0.00000E+0	2.00000E+1	1.40000E+1	2.00014E+1	1.40001E+1
3	02/09/2022	17:00:19.986	0.00000E+0	0.00000E+0	1.00000E+2	0.00000E+0	0.00000E+0	0.00000E+0	2.00000E+1	1.40000E+1	2.00000E+1	1.39958E+1
4	02/09/2022	17:00:21.495	0.00000E+0	0.00000E+0	1.00000E+2	0.00000E+0	0.00000E+0	0.00000E+0	2.00000E+1	1.40000E+1	1.99991E+1	1.40004E+1
5	02/09/2022	17:00:22.894	0.00000E+0	0.00000E+0	1.00000E+2	0.00000E+0	0.00000E+0	0.00000E+0	2.00000E+1	1.40000E+1	2.00012E+1	1.40036E+1
6	02/09/2022	17:00:24.303	0.00000E+0	0.00000E+0	1.00000E+2	0.00000E+0	0.00000E+0	0.00000E+0	2.00000E+1	1.40000E+1	1.99998E+1	1.39986E+1
7	02/09/2022	17:00:25.801	0.00000E+0	0.00000E+0	1.00000E+2	0.00000E+0	0.00000E+0	0.00000E+0	2.00000E+1	1.40000E+1	1.99987E+1	1.40010E+1
8	02/09/2022	17:00:27.197	0.00000E+0	0.00000E+0	1.00000E+2	0.00000E+0	0.00000E+0	0.00000E+0	2.00000E+1	1.40000E+1	1.99987E+1	1.40020E+1
9	02/09/2022	17:00:28.683	0.00000E+0	0.00000E+0	1.00000E+2	0.00000E+0	0.00000E+0	0.00000E+0	2.00000E+1	1.40000E+1	2.00001E+1	1.40013E+1
10	02/09/2022	17:00:30.080	0.00000E+0	0.00000E+0	1.00000E+2	0.00000E+0	0.00000E+0	0.00000E+0	2.00000E+1	1.40000E+1	1.99997E+1	1.40015E+1
11	02/09/2022	17:00:31.488	0.00000E+0	0.00000E+0	1.00000E+2	0.00000E+0	0.00000E+0	0.00000E+0	2.00000E+1	1.40000E+1	1.99983E+1	1.40031E+1
12	02/09/2022	17:00:32.993	0.00000E+0	0.00000E+0	1.00000E+2	0.00000E+0	0.00000E+0	0.00000E+0	2.00000E+1	1.40000E+1	2.00020E+1	1.39999E+1
13	02/09/2022	17:00:34.386	0.00000E+0	0.00000E+0	1.00000E+2	0.00000E+0	0.00000E+0	0.00000E+0	2.00000E+1	1.40000E+1	1.99987E+1	1.39992E+1
14	02/09/2022	17:00:35.864	0.00000E+0	0.00000E+0	1.00000E+2	0.00000E+0	0.00000E+0	0.00000E+0	2.00000E+1	1.40000E+1	2.00010E+1	1.39999E+1
15	02/09/2022	17:00:37.360	0.00000E+0	0.00000E+0	1.00000E+2	0.00000E+0	0.00000E+0	0.00000E+0	2.00000E+1	1.40000E+1	2.00003E+1	1.40021E+1
16	02/09/2022	17:00:38.751	0.00000E+0	0.00000E+0	1.00000E+2	0.00000E+0	0.00000E+0	0.00000E+0	2.00000E+1	1.40000E+1	1.99972E+1	1.39981E+1
17	02/09/2022	17:00:40.246	0.00000E+0	0.00000E+0	1.00000E+2	0.00000E+0	0.00000E+0	0.00000E+0	2.00000E+1	1.40000E+1	2.00005E+1	1.39976E+1
18	02/09/2022	17:00:41.638	0.00000E+0	0.00000E+0	1.00000E+2	0.00000E+0	0.00000E+0	0.00000E+0	2.00000E+1	1.40000E+1	2.00004E+1	1.39997E+1
19	02/09/2022	17:00:43.091	0.00000E+0	0.00000E+0	1.00000E+2	0.00000E+0	0.00000E+0	0.00000E+0	2.00000E+1	1.40000E+1	2.00005E+1	1.39990E+1
20	02/09/2022	17:00:44.592	0.00000E+0	0.00000E+0	1.00000E+2	0.00000E+0	0.00000E+0	0.00000E+0	2.00000E+1	1.40000E+1	1.99986E+1	1.39990E+1
21	02/09/2022	17:00:46.016	0.00000E+0	0.00000E+0	1.00000E+2	0.00000E+0	0.00000E+0	0.00000E+0	2.00000E+1	1.40000E+1	2.00018E+1	1.39999E+1
22	02/09/2022	17:00:47.482	0.00000E+0	0.00000E+0	1.00000E+2	0.00000E+0	0.00000E+0	0.00000E+0	2.00000E+1	1.40000E+1	1.99987E+1	1.39973E+1
23	02/09/2022	17:00:48.874	0.00000E+0	0.00000E+0	1.00000E+2	0.00000E+0	0.00000E+0	0.00000E+0	2.00000E+1	1.40000E+1	2.00002E+1	1.39978E+1
24	02/09/2022	17:00:50.260	0.00000E+0	0.00000E+0	1.00000E+2	0.00000E+0	0.00000E+0	0.00000E+0	2.00000E+1	1.40000E+1	1.99971E+1	1.40005E+1
25	02/09/2022	17:00:51.799	0.00000E+0	0.00000E+0	1.00000E+2	0.00000E+0	0.00000E+0	0.00000E+0	2.00000E+1	1.40000E+1	1.99982E+1	1.40021E+1
26	02/09/2022	17:00:53.183	0.00000E+0	0.00000E+0	1.00000E+2	0.00000E+0	0.00000E+0	0.00000E+0	2.00000E+1	1.40000E+1	1.99989E+1	1.39962E+1
27	02/09/2022	17:00:54.628	0.00000E+0	0.00000E+0	1.00000E+2	0.00000E+0	0.00000E+0	0.00000E+0	2.00000E+1	1.40000E+1	1.99990E+1	1.39989E+1
28	02/09/2022	17:00:56.105	0.00000E+0	0.00000E+0	1.00000E+2	0.00000E+0	0.00000E+0	0.00000E+0	2.00000E+1	1.40000E+1	2.00000E+1	1.39992E+1
29	02/09/2022	17:00:57.484	0.00000E+0	0.00000E+0	1.00000E+2	0.00000E+0	0.00000E+0	0.00000E+0	2.00000E+1	1.40000E+1	1.99979E+1	1.39968E+1
30	02/09/2022	17:00:58.987	0.00000E+0	0.00000E+0	1.00000E+2	0.00000E+0	0.00000E+0	0.00000E+0	2.00000E+1	1.40000E+1	1.99994E+1	1.40000E+1
31	02/09/2022	17:01:00.375	0.00000E+0	0.00000E+0	1.00000E+2	0.00000E+0	0.00000E+0	0.00000E+0	2.00000E+1	1.40000E+1	1.99985E+1	1.39990E+1
32	02/09/2022	17:01:01.823	0.00000E+0	0.00000E+0	1.00000E+2	0.00000E+0	0.00000E+0	0.00000E+0	2.00000E+1	1.40000E+1	2.00011E+1	1.39991E+1
33	02/09/2022	17:01:03.344	0.00000E+0	0.00000E+0	1.00000E+2	0.00000E+0	0.00000E+0	0.00000E+0	2.00000E+1	1.40000E+1	1.99989E+1	1.39986E+1
34	02/09/2022	17:01:04.727	0.00000E+0	0.00000E+0	1.00000E+2	0.00000E+0	0.00000E+0	0.00000E+0	2.00000E+1	1.40000E+1	2.00007E+1	1.40005E+1
35	02/09/2022	17:01:06.236	0.00000E+0	0.00000E+0	1.00000E+2	0.00000E+0	0.00000E+0	0.00000E+0	2.00000E+1	1.40000E+1	2.00015E+1	1.40017E+1
36	02/09/2022	17:01:07.661	0.00000E+0	0.00000E+0	1.00000E+2	0.00000E+0	0.00000E+0	0.00000E+0	2.00000E+1	1.40000E+1	2.00003E+1	1.39995E+1
37	02/09/2022	17:01:09.053	0.00000E+0	0.00000E+0	1.00000E+2	0.00000E+0	0.00000E+0	0.00000E+0	2.00000E+1	1.40000E+1	2.00004E+1	1.39982E+1
38	02/09/2022	17:01:10.561	0.00000E+0	0.00000E+0	1.00000E+2	0.00000E+0	0.00000E+0	0.00000E+0	2.00000E+1	1.40000E+1	2.00005E+1	1.40002E+1
39	02/09/2022	17:01:11.961	0.00000E+0	0.00000E+0	1.00000E+2	0.00000E+0	0.00000E+0	0.00000E+0	2.00000E+1	1.40000E+1	1.99979E+1	1.39997E+1
40	02/09/2022	17:01:13.364	0.00000E+0	0.00000E+0	1.00000E+2	0.00000E+0	0.00000E+0	0.00000E+0	2.00000E+1	1.40000E+1	1.99991E+1	1.39990E+1
41	02/09/2022	17:01:14.856	0.00000E+0	0.00000E+0	1.00000E+2	0.00000E+0	0.00000E+0	0.00000E+0	2.00000E+1	1.40000E+1	1.99983E+1	1.40003E+1
42	02/09/2022	17:01:16.249	0.00000E+0	0.00000E+0	1.00000E+2	0.00000E+0	0.00000E+0	0.00000E+0	2.00000E+1	1.40000E+1	1.99999E+1	1.39989E+1
43	02/09/2022	17:01:17.794	0.00000E+0	0.00000E+0	1.00000E+2	0.00000E+0	0.00000E+0	0.00000E+0	2.00000E+1	1.40000E+1	2.00001E+1	1.39988E+1
44	02/09/2022	17:01:19.192	0.00000E+0	0.00000E+0	1.00000E+2	0.00000E+0	0.00000E+0	0.00000E+0	2.00000E+1	1.40000E+1	2.00010E+1	1.39979E+1
45	02/09/2022	17:01:20.569	0.00000E+0	0.00000E+0	1.00000E+2	0.00000E+0	0.00000E+0	0.00000E+0	2.00000E+1	1.40000E+1	2.00010E+1	1.39971E+1
46	02/09/2022	17:01:22.149	0.00000E+0	0.00000E+0	1.00000E+2	0.00000E+0	0.00000E+0	0.00000E+0	2.00000E+1	1.40000E+1	2.00022E+1	1.40024E+1
47	02/09/2022	17:01:23.530	0.00000E+0	0.00000E+0	1.00000E+2	0.00000E+0	0.00000E+0	0.00000E+0	2.00000E+1	1.40000E+1	2.00025E+1	1.39996E+1
48	02/09/2022	17:01:24.983	0.00000E+0	0.00000E+0	1.00000E+2	0.00000E+0	0.00000E+0	0.00000E+0	2.00000E+1	1.40000E+1	2.00014E+1	1.39984E+1
49	02/09/2022	17:01:26.318	0.00000E+0	0.00000E+0	1.00000E+2	0.00000E+0	0.00000E+0	0.00000E+0	2.00000E+1	1.40000E+1	1.99978E+1	1.39998E+1
50	02/09/2022	17:01:27.736	0.00000E+0	0.00000E+0	1.00000E+2	0.00000E+0	0.00000E+0	0.00000E+0	2.00000E+1	1.40000E+1	1.99997E+1	1.39993E+1
51	02/09/2022	17:01:29.206	0.00000E+0	0.00000E+0	1.00000E+2	0.00000E+0	0.00000E+0	0.00000E+0	2.00000E+1	1.40000E+1	2.00008E+1	1.39996E+1
52	02/09/2022	17:01:30.596	0.00000E+0	0.00000E+0	1.00000E+2	0.00000E+0	0.00000E+0	0.00000E+0	2.00000E+1	1.40000E+1	2.00012E+1	1.40013E+1
53	02/09/2022	17:01:32.025	0.00000E+0	0.00000E+0	1.00000E+2	0.00000E+0	0.00000E+0	0.00000E+0	2.00000E+1	1.40000E+1	1.99984E+1	1.40000E+1
54	02/09/2022	17:01:33.544	0.00000E+0	0.00000E+0	1.00000E+2	0.00000E+0	0.00000E+0	0.00000E+0	2.00000E+1	1.40000E+1	2.00005E+1	1.39991E+1
55	02/09/2022	17:01:34.916	0.00000E+0	0.00000E+0	1.00000E+2	0.00000E+0	0.00000E+0	0.00000E+0	2.00000E+1	1.40000E+1	2.00002E+1	1.40006E+1
56	02/09/2022	17:01:36.380	0.00000E+0	0.00000E+0	1.00000E+2	0.00000E+0	0.00000E+0	0.00000E+0	2.00000E+1	1.40000E+1	1.99982E+1	1.40011E+1
57	02/09/2022	17:01:37.769	0.00000E+0	0.00000E+0	1.00000E+2	0.00000E+0	0.00000E+0	0.00000E+0	2.00000E+1	1.40000E+1	1.99996E+1	1.40013E+1
58	02/09/2022	17:01:39.147	0.00000E+0	0.00000E+0	1.00000E+2	0.00000E+0	0.00000E+0	0.00000E+0	2.00000E+1	1.40000E+1	1.99991E+1	1.40002E+1
59	02/09/2022	17:01:40.681	0.00000E+0	0.00000E+0	1.00000E+2	0.00000E+0	0.00000E+0	0.00000E+0	2.00000E+1	1.40000E+1	2.00005E+1	1.39995E+1
60	02/09/2022	17:01:42.068	0.00000E+0	0.00000E+0	1.00000E+2	0.00000E+0	0.00000E+0	0.00000E+0	2.00000E+1	1.40000E+1	1.99992E+1	1.40016E+1
61	02/09/2022	17:01:43.500	0.00000E+0	0.00000E+0	1.00000E+2	0.00000E+0	0.00000E+0	0.00000E+0	2.00000E+1	1.40000E+1	1.99994E+1	1.40009E+1
62	02/09/2022	17:01:45.008	0.00000E+0	0.00000E+0	1.00000E+2	0.00000E+0	0.00000E+0	0.00000E+0	2.00000E+1	1.40000E+1	1.99974E+1	1.40017E+1
63	02/09/2022	17:01:46.398	0.00000E+0	0.00000E+0	1.00000E+2	0.00000E+0	0.00000E+0	0.00000E+0	2.00000E+1	1.40000E+1	2.00005E+1	1.40002E+1
64	02/09/2022	17:01:47.870	0.00000E+0	0.00000E+0	1.00000E+2	0.00000E+0	0.00000E+0	0.00000E+0	2.00000E+1	1.40000E+1	1.99993E+1	1.39988E+1
65	02/09/2022	17:01:49.248	0.00000E+0	0.00000E+0	1.00000E+2	0.00000E+0	0.00000E+0	0.00000E+0	2.00000E+1	1.40000E+1	2.00005E+1	1.39995E+1
66	02/09/2022	17:01:50.643	0.00000E+0	0.00000E+0	1.00000E+2	0.00000E+0	0.00000E+0	0.00000E+0	2.00000E+1	1.40000E+1	1.99984E+1	1.40018E+1
67	02/09/2022	17:01:52.100	0.00000E+0	0.00000E+0	1.00000E+2	0.00000E+0	0.00000E+0	0.00000E+0	2.00000E+1	1.40000E+1	1.99994E+1	1.39993E+1
68	02/09/2022	17:01:53.486	0.00000E+0	0.00000E+0	1.00000E+2	0.00000E+0	0.00000E+0	0.00000E+0	2.00000E+1	1.40000E+1	2.00004E+1	1.40029E+1
69	02/09/2022	17:01:54.984	0.00000E+0	0.00000E+0	1.00000E+2	0.00000E+0	0.00000E+0	0.00000E+0	2.00000E+1	1.40000E+1	1.99990E+1	1.39987E+1
70	02/09/2022	17:01:56.435	0.00000E+0	0.00000E+0	1.00000E+2	0.00000E+0	0.00000E+0	0.00000E+0	2.00000E+1	1.40000E+1	2.00005E+1	1.40008E+1
71	02/09/2022	17:01:57.824	0.00000E+0	0.00000E+0	1.00000E+2	0.00000E+0	0.00000E+0	0.00000E+0	2.00000E+1	1.40000E+1	2.00009E+1	1.39989E+1
72	02/09/2022	17:01:59.335	0.00000E+0	0.00000E+0	1.00000E+2	0.00000E+0	0.00000E+0	0.00000E+0	2.00000E+1	1.40000E+1	1.99997E+1	1.40019E+1
73	02/09/2022	17:02:00.712	0.00000E+0	0.00000E+0	1.00000E+2	0.00000E+0	0.00000E+0	0.00000E+0	2.00000E+1	1.40000E+1	2.00023E+1	1.39998E+1
74	02/09/2022	17:02:02.120	0.00000E+0	0.00000E+0	1.00000E+2	0.00000E+0	0.00000E+0	0.00000E+0	2.00000E+1	1.40000E+1	2.00002E+1	1.40012E+1
75	02/09/2022	17:02:03.623	0.00000E+0	0.00000E+0	1.00000E+2	0.00000E+0	0.00000E+0	0.00000E+0	2.00000E+1	1.40000E+1	2.00015E+1	1.40000E+1
76	02/09/2022	17:02:05.015	0.00000E+0	0.00000E+0	1.00000E+2	0.00000E+0	0.00000E+0	0.00000E+0	2.00000E+1	1.40000E+1	2.00002E+1	1.40003E+1
77	02/09/2022	17:02:06.498	0.00000E+0	0.00000E+0	1.00000E+2	0.00000E+0	0.00000E+0	0.00000E+0	2.00000E+1	1.40000E+1	2.00012E+1	1.40004E+1
78	02/09/2022	17:02:07.901	0.00000E+0	0.00000E+0	1.00000E+2	0.00000E+0	0.00000E+0	0.00000E+0	2.00000E+1	1.40000E+1	2.00011E+1	1.40008E+1
79	02/09/2022	17:02:09.285	0.00000E+0	0.00000E+0	1.00000E+2	0.00000E+0	0.00000E+0	0.00000E+0	2.00000E+1	1.40000E+1	1.99993E+1	1.40005E+1
80	02/09/2022	17:02:10.822	0.00000E+0	0.00000E+0	1.00000E+2	0.00000E+0	0.00000E+0	0.00000E+0	2.00000E+1	1.40000E+1	1.99968E+1	1.39988E+1
81	02/09/2022	17:02:12.230	0.00000E+0	0.00000E+0	1.00000E+2	0.00000E+0	0.00000E+0	0.00000E+0	2.00000E+1	1.40000E+1	2.00012E+1	1.39986E+1
82	02/09/2022	17:02:13.669	0.00000E+0	0.00000E+0	1.00000E+2	0.00000E+0	0.00000E+0	0.00000E+0	2.00000E+1	1.40000E+1	2.00003E+1	1.40026E+1
83	02/09/2022	17:02:15.176	0.00000E+0	0.00000E+0	1.00000E+2	0.00000E+0	0.00000E+0	0.00000E+0	2.00000E+1	1.40000E+1	1.99987E+1	1.39972E+1
84	02/09/2022	17:02:16.571	0.00000E+0	0.00000E+0	1.00000E+2	0.00000E+0	0.00000E+0	0.00000E+0	2.00000E+1	1.40000E+1	1.99992E+1	1.39988E+1
85	02/09/2022	17:02:18.100	0.00000E+0	0.00000E+0	1.00000E+2	0.00000E+0	0.00000E+0	0.00000E+0	2.00000E+1	1.40000E+1	1.99982E+1	1.40000E+1
86	02/09/2022	17:02:19.484	0.00000E+0	0.00000E+0	1.00000E+2	0.00000E+0	0.00000E+0	0.00000E+0	2.00000E+1	1.40000E+1	1.99994E+1	1.39986E+1
87	02/09/2022	17:02:20.895	0.00000E+0	0.00000E+0	1.00000E+2	0.00000E+0	0.00000E+0	0.00000E+0	2.00000E+1	1.40000E+1	1.99977E+1	1.40002E+1
88	02/09/2022	17:02:22.441	0.00000E+0	0.00000E+0	1.00000E+2	0.00000E+0	0.00000E+0	0.00000E+0	2.00000E+1	1.40000E+1	2.00010E+1	1.40011E+1
89	02/09/2022	17:02:23.987	0.00000E+0	0.00000E+0	1.00000E+2	0.00000E+0	0.00000E+0	0.00000E+0	2.00000E+1	1.40000E+1	2.00008E+1	1.40001E+1
90	02/09/2022	17:02:25.457	0.00000E+0	0.00000E+0	1.00000E+2	0.00000E+0	0.00000E+0	0.00000E+0	2.00000E+1	1.40000E+1	2.00005E+1	1.39971E+1
91	02/09/2022	17:02:26.893	0.00000E+0	0.00000E+0	1.00000E+2	0.00000E+0	0.00000E+0	0.00000E+0	2.00000E+1	1.40000E+1	1.99995E+1	1.39987E+1
92	02/09/2022	17:02:28.289	0.00000E+0	0.00000E+0	1.00000E+2	0.00000E+0	0.00000E+0	0.00000E+0	2.00000E+1	1.40000E+1	1.99995E+1	1.39982E+1
93	02/09/2022	17:02:29.836	0.00000E+0	0.00000E+0	1.00000E+2	0.00000E+0	0.00000E+0	0.00000E+0	2.00000E+1	1.40000E+1	1.99987E+1	1.39983E+1
94	02/09/2022	17:02:31.226	0.00000E+0	0.00000E+0	1.00000E+2	0.00000E+0	0.00000E+0	0.00000E+0	2.00000E+1	1.40000E+1	2.00020E+1	1.39999E+1
95	02/09/2022	17:02:32.685	0.00000E+0	0.00000E+0	1.00000E+2	0.00000E+0	0.00000E+0	0.00000E+0	2.00000E+1	1.40000E+1	1.99992E+1	1.40013E+1
96	02/09/2022	17:02:34.209	0.00000E+0	0.00000E+0	1.00000E+2	0.00000E+0	0.00000E+0	0.00000E+0	2.00000E+1	1.40000E+1	2.00004E+1	1.40002E+1
97	02/09/2022	17:02:35.601	0.00000E+0	0.00000E+0	1.00000E+2	0.00000E+0	0.00000E+0	0.00000E+0	2.00000E+1	1.40000E+1	1.99987E+1	1.40022E+1
98	02/09/2022	17:02:37.083	0.00000E+0	0.00000E+0	1.00000E+2	0.00000E+0	0.00000E+0	0.00000E+0	2.00000E+1	1.40000E+1	1.99987E+1	1.40018E+1
99	02/09/2022	17:02:38.474	0.00000E+0	0.00000E+0	1.00000E+2	0.00000E+0	0.00000E+0	0.00000E+0	2.00000E+1	1.40000E+1	2.00021E+1	1.40003E+1
100	02/09/2022	17:02:39.872	0.00000E+0	0.00000E+0	1.00000E+2	0.00000E+0	0.00000E+0	0.00000E+0	2.00000E+1	1.40000E+1	1.99997E+1	1.40003E+1
101	02/09/2022	17:02:41.468	0.00000E+0	0.00000E+0	1.00000E+2	0.00000E+0	0.00000E+0	0.00000E+0	2.00000E+1	1.40000E+1	2.00004E+1	1.39979E+1
102	02/09/2022	17:02:42.848	0.00000E+0	0.00000E+0	1.00000E+2	0.00000E+0	0.00000E+0	0.00000E+0	2.00000E+1	1.40000E+1	2.00020E+1	1.39987E+1
103	02/09/2022	17:02:44.323	0.00000E+0	0.00000E+0	1.00000E+2	0.00000E+0	0.00000E+0	0.00000E+0	2.00000E+1	1.40000E+1	1.99992E+1	1.40006E+1
104	02/09/2022	17:02:45.711	0.00000E+0	0.00000E+0	1.00000E+2	0.00000E+0	0.00000E+0	0.00000E+0	2.00000E+1	1.40000E+1	2.00024E+1	1.39997E+1
105	02/09/2022	17:02:47.112	0.00000E+0	0.00000E+0	1.00000E+2	0.00000E+0	0.00000E+0	0.00000E+0	2.00000E+1	1.40000E+1	2.00004E+1	1.40009E+1
106	02/09/2022	17:02:48.579	0.00000E+0	0.00000E+0	1.00000E+2	0.00000E+0	0.00000E+0	0.00000E+0	2.00000E+1	1.40000E+1	2.00007E+1	1.40026E+1
107	02/09/2022	17:02:49.973	0.00000E+0	0.00000E+0	1.00000E+2	0.00000E+0	0.00000E+0	0.00000E+0	2.00000E+1	1.40000E+1	1.99999E+1	1.40020E+1
108	02/09/2022	17:02:51.433	0.00000E+0	0.00000E+0	1.00000E+2	0.00000E+0	0.00000E+0	0.00000E+0	2.00000E+1	1.40000E+1	1.99981E+1	1.40008E+1
109	02/09/2022	17:02:52.936	0.00000E+0	0.00000E+0	1.00000E+2	0.00000E+0	0.00000E+0	0.00000E+0	2.00000E+1	1.40000E+1	1.99992E+1	1.40014E+1
110	02/09/2022	17:02:54.330	0.00000E+0	0.00000E+0	1.00000E+2	0.00000E+0	0.00000E+0	0.00000E+0	2.00000E+1	1.40000E+1	1.99997E+1	1.40014E+1
111	02/09/2022	17:02:55.774	0.00000E+0	0.00000E+0	1.00000E+2	0.00000E+0	0.00000E+0	0.00000E+0	2.00000E+1	1.40000E+1	2.00005E+1	1.39986E+1
112	02/09/2022	17:02:57.157	0.00000E+0	0.00000E+0	1.00000E+2	0.00000E+0	0.00000E+0	0.00000E+0	2.00000E+1	1.40000E+1	2.00009E+1	1.39986E+1
113	02/09/2022	17:02:58.569	0.00000E+0	0.00000E+0	1.00000E+2	0.00000E+0	0.00000E+0	0.00000E+0	2.00000E+1	1.40000E+1	2.00009E+1	1.40013E+1
114	02/09/2022	17:03:00.064	0.00000E+0	0.00000E+0	1.00000E+2	0.00000E+0	0.00000E+0	0.00000E+0	2.00000E+1	1.40000E+1	1.99993E+1	1.39996E+1
115	02/09/2022	17:03:01.454	0.00000E+0	0.00000E+0	1.00000E+2	0.00000E+0	0.00000E+0	0.00000E+0	2.00000E+1	1.40000E+1	1.99993E+1	1.39998E+1
116	02/09/2022	17:03:02.955	0.00000E+0	0.00000E+0	1.00000E+2	0.00000E+0	0.00000E+0	0.00000E+0	2.00000E+1	1.40000E+1	1.99990E+1	1.40001E+1
117	02/09/2022	17:03:04.468	0.00000E+0	0.00000E+0	1.00000E+2	0.00000E+0	0.00000E+0	0.00000E+0	2.00000E+1	1.40000E+1	1.99991E+1	1.40020E+1
118	02/09/2022	17:03:05.851	0.00000E+0	0.00000E+0	1.00000E+2	0.00000E+0	0.00000E+0	0.00000E+0	2.00000E+1	1.40000E+1	1.99972E+1	1.39987E+1
119	02/09/2022	17:03:07.334	0.00000E+0	0.00000E+0	1.00000E+2	0.00000E+0	0.00000E+0	0.00000E+0	2.00000E+1	1.40000E+1	2.00020E+1	1.39985E+1
120	02/09/2022	17:03:08.723	0.00000E+0	0.00000E+0	1.00000E+2	0.00000E+0	0.00000E+0	0.00000E+0	2.00000E+1	1.40000E+1	2.00011E+1	1.40004E+1
121	02/09/2022	17:03:10.121	0.00000E+0	0.00000E+0	1.00000E+2	0.00000E+0	0.00000E+0	0.00000E+0	2.00000E+1	1.40000E+1	2.00007E+1	1.40006E+1
122	02/09/2022	17:03:11.641	0.00000E+0	0.00000E+0	1.00000E+2	0.00000E+0	0.00000E+0	0.00000E+0	2.00000E+1	1.40000E+1	1.99988E+1	1.40014E+1
123	02/09/2022	17:03:13.038	0.00000E+0	0.00000E+0	1.00000E+2	0.00000E+0	0.00000E+0	0.00000E+0	2.00000E+1	1.40000E+1	1.99981E+1	1.40016E+1
124	02/09/2022	17:03:14.472	0.00000E+0	0.00000E+0	1.00000E+2	0.00000E+0	0.00000E+0	0.00000E+0	2.00000E+1	1.40000E+1	2.00013E+1	1.39992E+1
125	02/09/2022	17:03:15.985	0.00000E+0	0.00000E+0	1.00000E+2	0.00000E+0	0.00000E+0	0.00000E+0	2.00000E+1	1.40000E+1	2.00009E+1	1.40003E+1
126	02/09/2022	17:03:17.374	0.00000E+0	0.00000E+0	1.00000E+2	0.00000E+0	0.00000E+0	0.00000E+0	2.00000E+1	1.40000E+1	2.00014E+1	1.40016E+1
127	02/09/2022	17:03:18.943	0.00000E+0	0.00000E+0	1.00000E+2	0.00000E+0	0.00000E+0	0.00000E+0	2.00000E+1	1.40000E+1	1.99992E+1	1.39975E+1
128	02/09/2022	17:03:20.320	0.00000E+0	0.00000E+0	1.00000E+2	0.00000E+0	0.00000E+0	0.00000E+0	2.00000E+1	1.40000E+1	2.00008E+1	1.40025E+1
129	02/09/2022	17:03:21.806	0.00000E+0	0.00000E+0	1.00000E+2	0.00000E+0	0.00000E+0	0.00000E+0	2.00000E+1	1.40000E+1	1.99987E+1	1.39992E+1
130	02/09/2022	17:03:23.301	0.00000E+0	0.00000E+0	1.00000E+2	0.00000E+0	0.00000E+0	0.00000E+0	2.00000E+1	1.40000E+1	2.00009E+1	1.39971E+1
131	02/09/2022	17:03:24.697	0.00000E+0	0.00000E+0	1.00000E+2	0.00000E+0	0.00000E+0	0.00000E+0	2.00000E+1	1.40000E+1	2.00001E+1	1.39993E+1
132	02/09/2022	17:03:26.188	0.00000E+0	0.00000E+0	1.00000E+2	0.00000E+0	0.00000E+0	0.00000E+0	2.00000E+1	1.40000E+1	1.99994E+1	1.40012E+1
133	02/09/2022	17:03:27.579	0.00000E+0	0.00000E+0	1.00000E+2	0.00000E+0	0.00000E+0	0.00000E+0	2.00000E+1	1.40000E+1	1.99980E+1	1.39985E+1
134	02/09/2022	17:03:28.966	0.00000E+0	0.00000E+0	1.00000E+2	0.00000E+0	0.00000E+0	0.00000E+0	2.00000E+1	1.40000E+1	2.00012E+1	1.40002E+1
135	02/09/2022	17:03:30.489	0.00000E+0	0.00000E+0	1.00000E+2	0.00000E+0	0.00000E+0	0.00000E+0	2.00000E+1	1.40000E+1	1.99994E+1	1.39989E+1
136	02/09/2022	17:03:31.882	0.00000E+0	0.00000E+0	1.00000E+2	0.00000E+0	0.00000E+0	0.00000E+0	2.00000E+1	1.40000E+1	1.99998E+1	1.40009E+1
137	02/09/2022	17:03:33.360	0.00000E+0	0.00000E+0	1.00000E+2	0.00000E+0	0.00000E+0	0.00000E+0	2.00000E+1	1.40000E+1	2.00005E+1	1.39992E+1
138	02/09/2022	17:03:34.745	0.00000E+0	0.00000E+0	1.00000E+2	0.00000E+0	0.00000E+0	0.00000E+0	2.00000E+1	1.40000E+1	2.00011E+1	1.39991E+1
139	02/09/2022	17:03:36.148	0.00000E+0	0.00000E+0	1.00000E+2	0.00000E+0	0.00000E+0	0.00000E+0	2.00000E+1	1.40000E+1	2.00035E+1	1.39979E+1
140	02/09/2022	17:03:37.663	0.00000E+0	0.00000E+0	1.00000E+2	0.00000E+0	0.00000E+0	0.00000E+0	2.00000E+1	1.40000E+1	2.00023E+1	1.39999E+1
141	02/09/2022	17:03:39.060	0.00000E+0	0.00000E+0	1.00000E+2	0.00000E+0	0.00000E+0	0.00000E+0	2.00000E+1	1.40000E+1	1.99981E+1	1.40019E+1
142	02/09/2022	17:03:40.450	0.00000E+0	0.00000E+0	1.00000E+2	0.00000E+0	0.00000E+0	0.00000E+0	2.00000E+1	1.40000E+1	1.99994E+1	1.40041E+1
143	02/09/2022	17:03:42.027	0.00000E+0	0.00000E+0	1.00000E+2	0.00000E+0	0.00000E+0	0.00000E+0	2.00000E+1	1.40000E+1	2.00014E+1	1.39995E+1
144	02/09/2022	17:03:43.427	0.00000E+0	0.00000E+0	1.00000E+2	0.00000E+0	0.00000E+0	0.00000E+0	2.00000E+1	1.40000E+1	2.00002E+1	1.39970E+1
145	02/09/2022	17:03:44.870	0.00000E+0	0.00000E+0	1.00000E+2	0.00000E+0	0.00000E+0	0.00000E+0	2.00000E+1	1.40000E+1	2.00011E+1	1.40001E+1
146	02/09/2022	17:03:46.320	0.00000E+0	0.00000E+0	1.00000E+2	0.00000E+0	0.00000E+0	0.00000E+0	2.00000E+1	1.40000E+1	1.99996E+1	1.40009E+1
147	02/09/2022	17:03:47.709	0.00000E+0	0.00000E+0	1.00000E+2	0.00000E+0	0.00000E+0	0.00000E+0	2.00000E+1	1.40000E+1	2.00005E+1	1.40017E+1
148	02/09/2022	17:03:49.203	0.00000E+0	0.00000E+0	1.00000E+2	0.00000E+0	0.00000E+0	0.00000E+0	2.00000E+1	1.40000E+1	2.00013E+1	1.39999E+1
149	02/09/2022	17:03:50.599	0.00000E+0	0.00000E+0	1.00000E+2	0.00000E+0	0.00000E+0	0.00000E+0	2.00000E+1	1.40000E+1	1.99992E+1	1.40010E+1
150	02/09/2022	17:03:51.998	0.00000E+0	0.00000E+0	1.00000E+2	0.00000E+0	0.00000E+0	0.00000E+0	2.00000E+1	1.40000E+1	1.99986E+1	1.39994E+1
151	02/09/2022	17:03:53.491	0.00000E+0	0.00000E+0	1.00000E+2	0.00000E+0	0.00000E+0	0.00000E+0	2.00000E+1	1.40000E+1	1.99993E+1	1.39996E+1
152	02/09/2022	17:03:54.888	0.00000E+0	0.00000E+0	1.00000E+2	0.00000E+0	0.00000E+0	0.00000E+0	2.00000E+1	1.40000E+1	2.00004E+1	1.40006E+1
153	02/09/2022	17:03:56.325	0.00000E+0	0.00000E+0	1.00000E+2	0.00000E+0	0.00000E+0	0.00000E+0	2.00000E+1	1.40000E+1	2.00018E+1	1.40016E+1
154	02/09/2022	17:03:57.703	0.00000E+0	0.00000E+0	1.00000E+2	0.00000E+0	0.00000E+0	0.00000E+0	2.00000E+1	1.40000E+1	1.99986E+1	1.39996E+1
155	02/09/2022	17:03:59.091	0.00000E+0	0.00000E+0	1.00000E+2	0.00000E+0	0.00000E+0	0.00000E+0	2.00000E+1	1.40000E+1	2.00016E+1	1.40015E+1
156	02/09/2022	17:04:00.622	0.00000E+0	0.00000E+0	1.00000E+2	0.00000E+0	0.00000E+0	0.00000E+0	2.00000E+1	1.40000E+1	2.00008E+1	1.39973E+1
157	02/09/2022	17:04:02.013	0.00000E+0	0.00000E+0	1.00000E+2	0.00000E+0	0.00000E+0	0.00000E+0	2.00000E+1	1.40000E+1	1.99995E+1	1.39976E+1
158	02/09/2022	17:04:03.417	0.00000E+0	0.00000E+0	1.00000E+2	0.00000E+0	0.00000E+0	0.00000E+0	2.00000E+1	1.40000E+1	1.99985E+1	1.39999E+1
159	02/09/2022	17:04:04.773	0.00000E+0	0.00000E+0	1.00000E+2	0.00000E+0	0.00000E+0	0.00000E+0	2.00000E+1	1.40000E+1	1.99979E+1	1.40011E+1
160	02/09/2022	17:04:06.172	0.00000E+0	0.00000E+0	1.00000E+2	0.00000E+0	0.00000E+0	0.00000E+0	2.00000E+1	1.40000E+1	2.00013E+1	1.40002E+1
161	02/09/2022	17:04:07.745	0.00000E+0	0.00000E+0	1.00000E+2	0.00000E+0	0.00000E+0	0.00000E+0	2.00000E+1	1.40000E+1	1.99985E+1	1.40002E+1
162	02/09/2022	17:04:09.131	0.00000E+0	0.00000E+0	1.00000E+2	0.00000E+0	0.00000E+0	0.00000E+0	2.00000E+1	1.40000E+1	1.99999E+1	1.40001E+1
163	02/09/2022	17:04:10.523	0.00000E+0	0.00000E+0	1.00000E+2	0.00000E+0	0.00000E+0	0.00000E+0	2.00000E+1	1.40000E+1	1.99999E+1	1.40012E+1
164	02/09/2022	17:04:12.050	0.00000E+0	0.00000E+0	1.00000E+2	0.00000E+0	0.00000E+0	0.00000E+0	2.00000E+1	1.40000E+1	2.00000E+1	1.39999E+1
165	02/09/2022	17:04:13.433	0.00000E+0	0.00000E+0	1.00000E+2	0.00000E+0	0.00000E+0	0.00000E+0	2.00000E+1	1.40000E+1	1.99991E+1	1.40029E+1
166	02/09/2022	17:04:14.956	0.00000E+0	0.00000E+0	1.00000E+2	0.00000E+0	0.00000E+0	0.00000E+0	2.00000E+1	1.40000E+1	1.99995E+1	1.39980E+1
167	02/09/2022	17:04:16.351	0.00000E+0	0.00000E+0	1.00000E+2	0.00000E+0	0.00000E+0	0.00000E+0	2.00000E+1	1.40000E+1	1.99995E+1	1.40000E+1
168	02/09/2022	17:04:17.731	0.00000E+0	0.00000E+0	1.00000E+2	0.00000E+0	0.00000E+0	0.00000E+0	2.00000E+1	1.40000E+1	1.99988E+1	1.39985E+1
169	02/09/2022	17:04:19.219	0.00000E+0	0.00000E+0	1.00000E+2	0.00000E+0	0.00000E+0	0.00000E+0	2.00000E+1	1.40000E+1	2.00008E+1	1.39992E+1
170	02/09/2022	17:04:20.613	0.00000E+0	0.00000E+0	1.00000E+2	0.00000E+0	0.00000E+0	0.00000E+0	2.00000E+1	1.40000E+1	1.99987E+1	1.39983E+1
171	02/09/2022	17:04:22.047	0.00000E+0	0.00000E+0	1.00000E+2	0.00000E+0	0.00000E+0	0.00000E+0	2.00000E+1	1.40000E+1	2.00019E+1	1.39990E+1
172	02/09/2022	17:04:23.550	0.00000E+0	0.00000E+0	1.00000E+2	0.00000E+0	0.00000E+0	0.00000E+0	2.00000E+1	1.40000E+1	1.99998E+1	1.39989E+1
173	02/09/2022	17:04:24.933	0.00000E+0	0.00000E+0	1.00000E+2	0.00000E+0	0.00000E+0	0.00000E+0	2.00000E+1	1.40000E+1	1.99985E+1	1.39978E+1
174	02/09/2022	17:04:26.415	0.00000E+0	0.00000E+0	1.00000E+2	0.00000E+0	0.00000E+0	0.00000E+0	2.00000E+1	1.40000E+1	1.99993E+1	1.40018E+1
175	02/09/2022	17:04:27.800	0.00000E+0	0.00000E+0	1.00000E+2	0.00000E+0	0.00000E+0	0.00000E+0	2.00000E+1	1.40000E+1	1.99997E+1	1.40036E+1
176	02/09/2022	17:04:29.189	0.00000E+0	0.00000E+0	1.00000E+2	0.00000E+0	0.00000E+0	0.00000E+0	2.00000E+1	1.40000E+1	1.99978E+1	1.39990E+1
177	02/09/2022	17:04:30.645	0.00000E+0	0.00000E+0	1.00000E+2	0.00000E+0	0.00000E+0	0.00000E+0	2.00000E+1	1.40000E+1	1.99984E+1	1.39981E+1
178	02/09/2022	17:04:32.043	0.00000E+0	0.00000E+0	1.00000E+2	0.00000E+0	0.00000E+0	0.00000E+0	2.00000E+1	1.40000E+1	1.99999E+1	1.39982E+1
179	02/09/2022	17:04:33.592	0.00000E+0	0.00000E+0	1.00000E+2	0.00000E+0	0.00000E+0	0.00000E+0	2.00000E+1	1.40000E+1	2.00002E+1	1.40010E+1
180	02/09/2022	17:04:35.011	0.00000E+0	0.00000E+0	1.00000E+2	0.00000E+0	0.00000E+0	0.00000E+0	2.00000E+1	1.40000E+1	1.99996E+1	1.40001E+1
181	02/09/2022	17:04:36.406	0.00000E+0	0.00000E+0	1.00000E+2	0.00000E+0	0.00000E+0	0.00000E+0	2.00000E+1	1.40000E+1	2.00016E+1	1.40005E+1
182	02/09/2022	17:04:37.911	0.00000E+0	0.00000E+0	1.00000E+2	0.00000E+0	0.00000E+0	0.00000E+0	2.00000E+1	1.40000E+1	2.00001E+1	1.39998E+1
183	02/09/2022	17:04:39.308	0.00000E+0	0.00000E+0	1.00000E+2	0.00000E+0	0.00000E+0	0.00000E+0	2.00000E+1	1.40000E+1	2.00000E+1	1.39987E+1
184	02/09/2022	17:04:40.768	0.00000E+0	0.00000E+0	1.00000E+2	0.00000E+0	0.00000E+0	0.00000E+0	2.00000E+1	1.40000E+1	2.00024E+1	1.39975E+1
185	02/09/2022	17:04:42.279	0.00000E+0	0.00000E+0	1.00000E+2	0.00000E+0	0.00000E+0	0.00000E+0	2.00000E+1	1.40000E+1	2.00008E+1	1.39999E+1
186	02/09/2022	17:04:43.671	0.00000E+0	0.00000E+0	1.00000E+2	0.00000E+0	0.00000E+0	0.00000E+0	2.00000E+1	1.40000E+1	2.00003E+1	1.39995E+1
187	02/09/2022	17:04:45.196	0.00000E+0	0.00000E+0	1.00000E+2	0.00000E+0	0.00000E+0	0.00000E+0	2.00000E+1	1.40000E+1	1.99987E+1	1.39997E+1
188	02/09/2022	17:04:46.579	0.00000E+0	0.00000E+0	1.00000E+2	0.00000E+0	0.00000E+0	0.00000E+0	2.00000E+1	1.40000E+1	2.00003E+1	1.40008E+1
189	02/09/2022	17:04:47.960	0.00000E+0	0.00000E+0	1.00000E+2	0.00000E+0	0.00000E+0	0.00000E+0	2.00000E+1	1.40000E+1	1.99998E+1	1.40006E+1
190	02/09/2022	17:04:49.457	0.00000E+0	0.00000E+0	1.00000E+2	0.00000E+0	0.00000E+0	0.00000E+0	2.00000E+1	1.40000E+1	2.00013E+1	1.40032E+1
191	02/09/2022	17:04:50.855	0.00000E+0	0.00000E+0	1.00000E+2	0.00000E+0	0.00000E+0	0.00000E+0	2.00000E+1	1.40000E+1	1.99985E+1	1.39997E+1
192	02/09/2022	17:04:52.288	0.00000E+0	0.00000E+0	1.00000E+2	0.00000E+0	0.00000E+0	0.00000E+0	2.00000E+1	1.40000E+1	2.00007E+1	1.39997E+1
193	02/09/2022	17:04:53.702	0.00000E+0	0.00000E+0	1.00000E+2	0.00000E+0	0.00000E+0	0.00000E+0	2.00000E+1	1.40000E+1	1.99997E+1	1.40033E+1
194	02/09/2022	17:04:55.086	0.00000E+0	0.00000E+0	1.00000E+2	0.00000E+0	0.00000E+0	0.00000E+0	2.00000E+1	1.40000E+1	2.00011E+1	1.39986E+1
195	02/09/2022	17:04:56.600	0.00000E+0	0.00000E+0	1.00000E+2	0.00000E+0	0.00000E+0	0.00000E+0	2.00000E+1	1.40000E+1	2.00006E+1	1.39982E+1
196	02/09/2022	17:04:57.989	0.00000E+0	0.00000E+0	1.00000E+2	0.00000E+0	0.00000E+0	0.00000E+0	2.00000E+1	1.40000E+1	2.00002E+1	1.40002E+1
197	02/09/2022	17:04:59.445	0.00000E+0	0.00000E+0	1.00000E+2	0.00000E+0	0.00000E+0	0.00000E+0	2.00000E+1	1.40000E+1	2.00001E+1	1.39992E+1
198	02/09/2022	17:05:00.926	0.00000E+0	0.00000E+0	1.00000E+2	0.00000E+0	0.00000E+0	0.00000E+0	2.00000E+1	1.40000E+1	2.00000E+1	1.39967E+1
199	02/09/2022	17:05:02.346	0.00000E+0	0.00000E+0	1.00000E+2	0.00000E+0	0.00000E+0	0.00000E+0	2.00000E+1	1.40000E+1	1.99982E+1	1.39997E+1
200	02/09/2022	17:05:03.921	0.00000E+0	0.00000E+0	1.00000E+2	0.00000E+0	0.00000E+0	0.00000E+0	2.00000E+1	1.40000E+1	2.00022E+1	1.39994E+1
201	02/09/2022	17:05:05.310	0.00000E+0	0.00000E+0	1.00000E+2	0.00000E+0	0.00000E+0	0.00000E+0	2.00000E+1	1.40000E+1	1.99997E+1	1.39999E+1
202	02/09/2022	17:05:06.709	0.00000E+0	0.00000E+0	1.00000E+2	0.00000E+0	0.00000E+0	0.00000E+0	2.00000E+1	1.40000E+1	2.00016E+1	1.40000E+1
203	02/09/2022	17:05:08.184	0.00000E+0	0.00000E+0	1.00000E+2	0.00000E+0	0.00000E+0	0.00000E+0	2.00000E+1	1.40000E+1	2.00019E+1	1.40023E+1
204	02/09/2022	17:05:09.588	0.00000E+0	0.00000E+0	1.00000E+2	0.00000E+0	0.00000E+0	0.00000E+0	2.00000E+1	1.40000E+1	1.99990E+1	1.39992E+1
205	02/09/2022	17:05:10.987	0.00000E+0	0.00000E+0	1.00000E+2	0.00000E+0	0.00000E+0	0.00000E+0	2.00000E+1	1.40000E+1	1.99994E+1	1.40003E+1
206	02/09/2022	17:05:12.474	0.00000E+0	0.00000E+0	1.00000E+2	0.00000E+0	0.00000E+0	0.00000E+0	2.00000E+1	1.40000E+1	2.00016E+1	1.39994E+1
207	02/09/2022	17:05:13.878	0.00000E+0	0.00000E+0	1.00000E+2	0.00000E+0	0.00000E+0	0.00000E+0	2.00000E+1	1.40000E+1	1.99976E+1	1.39998E+1
208	02/09/2022	17:05:15.376	0.00000E+0	0.00000E+0	1.00000E+2	0.00000E+0	0.00000E+0	0.00000E+0	2.00000E+1	1.40000E+1	1.99999E+1	1.40011E+1
209	02/09/2022	17:05:16.771	0.00000E+0	0.00000E+0	1.00000E+2	0.00000E+0	0.00000E+0	0.00000E+0	2.00000E+1	1.40000E+1	2.00010E+1	1.39987E+1
210	02/09/2022	17:05:18.153	0.00000E+0	0.00000E+0	1.00000E+2	0.00000E+0	0.00000E+0	0.00000E+0	2.00000E+1	1.40000E+1	1.99987E+1	1.39997E+1
211	02/09/2022	17:05:19.671	0.00000E+0	0.00000E+0	1.00000E+2	0.00000E+0	0.00000E+0	0.00000E+0	2.00000E+1	1.40000E+1	2.00021E+1	1.39976E+1
212	02/09/2022	17:05:21.055	0.00000E+0	0.00000E+0	1.00000E+2	0.00000E+0	0.00000E+0	0.00000E+0	2.00000E+1	1.40000E+1	2.00010E+1	1.40013E+1
213	02/09/2022	17:05:22.492	0.00000E+0	0.00000E+0	1.00000E+2	0.00000E+0	0.00000E+0	0.00000E+0	2.00000E+1	1.40000E+1	2.00014E+1	1.40006E+1
214	02/09/2022	17:05:23.903	0.00000E+0	0.00000E+0	1.00000E+2	0.00000E+0	0.00000E+0	0.00000E+0	2.00000E+1	1.40000E+1	2.00005E+1	1.39988E+1
215	02/09/2022	17:05:25.318	0.00000E+0	0.00000E+0	1.00000E+2	0.00000E+0	0.00000E+0	0.00000E+0	2.00000E+1	1.40000E+1	1.99991E+1	1.40025E+1
216	02/09/2022	17:05:26.830	0.00000E+0	0.00000E+0	1.00000E+2	0.00000E+0	0.00000E+0	0.00000E+0	2.00000E+1	1.40000E+1	2.00005E+1	1.39989E+1
217	02/09/2022	17:05:28.218	0.00000E+0	0.00000E+0	1.00000E+2	0.00000E+0	0.00000E+0	0.00000E+0	2.00000E+1	1.40000E+1	2.00006E+1	1.39997E+1
218	02/09/2022	17:05:29.666	0.00000E+0	0.00000E+0	1.00000E+2	0.00000E+0	0.00000E+0	0.00000E+0	2.00000E+1	1.40000E+1	1.99997E+1	1.39992E+1
219	02/09/2022	17:05:31.171	0.00000E+0	0.00000E+0	1.00000E+2	0.00000E+0	0.00000E+0	0.00000E+0	2.00000E+1	1.40000E+1	2.00028E+1	1.39985E+1
220	02/09/2022	17:05:32.564	0.00000E+0	0.00000E+0	1.00000E+2	0.00000E+0	0.00000E+0	0.00000E+0	2.00000E+1	1.40000E+1	1.99994E+1	1.39984E+1
221	02/09/2022	17:05:34.070	0.00000E+0	0.00000E+0	1.00000E+2	0.00000E+0	0.00000E+0	0.00000E+0	2.00000E+1	1.40000E+1	2.00004E+1	1.39988E+1
222	02/09/2022	17:05:35.463	0.00000E+0	0.00000E+0	1.00000E+2	0.00000E+0	0.00000E+0	0.00000E+0	2.00000E+1	1.40000E+1	1.99987E+1	1.39999E+1
223	02/09/2022	17:05:36.845	0.00000E+0	0.00000E+0	1.00000E+2	0.00000E+0	0.00000E+0	0.00000E+0	2.00000E+1	1.40000E+1	1.99989E+1	1.40020E+1
224	02/09/2022	17:05:38.375	0.00000E+0	0.00000E+0	1.00000E+2	0.00000E+0	0.00000E+0	0.00000E+0	2.00000E+1	1.40000E+1	2.00007E+1	1.39991E+1
225	02/09/2022	17:05:39.766	0.00000E+0	0.00000E+0	1.00000E+2	0.00000E+0	0.00000E+0	0.00000E+0	2.00000E+1	1.40000E+1	1.99993E+1	1.40004E+1
226	02/09/2022	17:05:41.208	0.00000E+0	0.00000E+0	1.00000E+2	0.00000E+0	0.00000E+0	0.00000E+0	2.00000E+1	1.40000E+1	1.99983E+1	1.40020E+1
227	02/09/2022	17:05:42.702	0.00000E+0	0.00000E+0	1.00000E+2	0.00000E+0	0.00000E+0	0.00000E+0	2.00000E+1	1.40000E+1	1.99993E+1	1.40012E+1
228	02/09/2022	17:05:44.093	0.00000E+0	0.00000E+0	1.00000E+2	0.00000E+0	0.00000E+0	0.00000E+0	2.00000E+1	1.40000E+1	2.00025E+1	1.40000E+1
229	02/09/2022	17:05:45.611	0.00000E+0	0.00000E+0	1.00000E+2	0.00000E+0	0.00000E+0	0.00000E+0	2.00000E+1	1.40000E+1	2.00014E+1	1.39988E+1
230	02/09/2022	17:05:47.008	0.00000E+0	0.00000E+0	1.00000E+2	0.00000E+0	0.00000E+0	0.00000E+0	2.00000E+1	1.40000E+1	2.00002E+1	1.40002E+1
231	02/09/2022	17:05:48.399	0.00000E+0	0.00000E+0	1.00000E+2	0.00000E+0	0.00000E+0	0.00000E+0	2.00000E+1	1.40000E+1	2.00001E+1	1.40004E+1
232	02/09/2022	17:05:49.857	0.00000E+0	0.00000E+0	1.00000E+2	0.00000E+0	0.00000E+0	0.00000E+0	2.00000E+1	1.40000E+1	2.00019E+1	1.40014E+1
233	02/09/2022	17:05:51.241	0.00000E+0	0.00000E+0	1.00000E+2	0.00000E+0	0.00000E+0	0.00000E+0	2.00000E+1	1.40000E+1	2.00013E+1	1.39975E+1
234	02/09/2022	17:05:52.696	0.00000E+0	0.00000E+0	1.00000E+2	0.00000E+0	0.00000E+0	0.00000E+0	2.00000E+1	1.40000E+1	2.00001E+1	1.40014E+1
235	02/09/2022	17:05:54.173	0.00000E+0	0.00000E+0	1.00000E+2	0.00000E+0	0.00000E+0	0.00000E+0	2.00000E+1	1.40000E+1	1.99984E+1	1.39998E+1
236	02/09/2022	17:05:55.575	0.00000E+0	0.00000E+0	1.00000E+2	0.00000E+0	0.00000E+0	0.00000E+0	2.00000E+1	1.40000E+1	1.99987E+1	1.40010E+1
237	02/09/2022	17:05:57.076	0.00000E+0	0.00000E+0	1.00000E+2	0.00000E+0	0.00000E+0	0.00000E+0	2.00000E+1	1.40000E+1	2.00003E+1	1.39995E+1
238	02/09/2022	17:05:58.461	0.00000E+0	0.00000E+0	1.00000E+2	0.00000E+0	0.00000E+0	0.00000E+0	2.00000E+1	1.40000E+1	1.99999E+1	1.39998E+1
239	02/09/2022	17:05:59.879	0.00000E+0	0.00000E+0	1.00000E+2	0.00000E+0	0.00000E+0	0.00000E+0	2.00000E+1	1.40000E+1	1.99996E+1	1.40001E+1
240	02/09/2022	17:06:01.395	0.00000E+0	0.00000E+0	1.00000E+2	0.00000E+0	0.00000E+0	0.00000E+0	2.00000E+1	1.40000E+1	2.00012E+1	1.39975E+1
241	02/09/2022	17:06:02.767	0.00000E+0	0.00000E+0	1.00000E+2	0.00000E+0	0.00000E+0	0.00000E+0	2.00000E+1	1.40000E+1	2.00028E+1	1.39980E+1
242	02/09/2022	17:06:04.208	0.00000E+0	0.00000E+0	1.00000E+2	0.00000E+0	0.00000E+0	0.00000E+0	2.00000E+1	1.40000E+1	1.99977E+1	1.40009E+1
243	02/09/2022	17:06:05.613	0.00000E+0	0.00000E+0	1.00000E+2	0.00000E+0	0.00000E+0	0.00000E+0	2.00000E+1	1.40000E+1	1.99996E+1	1.40007E+1
244	02/09/2022	17:06:06.984	0.00000E+0	0.00000E+0	1.00000E+2	0.00000E+0	0.00000E+0	0.00000E+0	2.00000E+1	1.40000E+1	1.99998E+1	1.39986E+1
245	02/09/2022	17:06:08.441	0.00000E+0	0.00000E+0	1.00000E+2	0.00000E+0	0.00000E+0	0.00000E+0	2.00000E+1	1.40000E+1	2.00005E+1	1.39976E+1
246	02/09/2022	17:06:09.825	0.00000E+0	0.00000E+0	1.00000E+2	0.00000E+0	0.00000E+0	0.00000E+0	2.00000E+1	1.40000E+1	2.00013E+1	1.39972E+1
247	02/09/2022	17:06:11.228	0.00000E+0	0.00000E+0	1.00000E+2	0.00000E+0	0.00000E+0	0.00000E+0	2.00000E+1	1.40000E+1	2.00008E+1	1.40015E+1
248	02/09/2022	17:06:12.593	0.00000E+0	0.00000E+0	1.00000E+2	0.00000E+0	0.00000E+0	0.00000E+0	2.00000E+1	1.40000E+1	1.99994E+1	1.40001E+1
249	02/09/2022	17:06:13.978	0.00000E+0	0.00000E+0	1.00000E+2	0.00000E+0	0.00000E+0	0.00000E+0	2.00000E+1	1.40000E+1	1.99972E+1	1.40019E+1
250	02/09/2022	17:06:15.506	0.00000E+0	0.00000E+0	1.00000E+2	0.00000E+0	0.00000E+0	0.00000E+0	2.00000E+1	1.40000E+1	1.99979E+1	1.40006E+1
251	02/09/2022	17:06:16.932	0.00000E+0	0.00000E+0	1.00000E+2	0.00000E+0	0.00000E+0	0.00000E+0	2.00000E+1	1.40000E+1	1.99974E+1	1.39993E+1
252	02/09/2022	17:06:18.388	0.00000E+0	0.00000E+0	1.00000E+2	0.00000E+0	0.00000E+0	0.00000E+0	2.00000E+1	1.40000E+1	2.00001E+1	1.40008E+1
253	02/09/2022	17:06:19.895	0.00000E+0	0.00000E+0	1.00000E+2	0.00000E+0	0.00000E+0	0.00000E+0	2.00000E+1	1.40000E+1	1.99999E+1	1.40005E+1
254	02/09/2022	17:06:21.258	0.00000E+0	0.00000E+0	1.00000E+2	0.00000E+0	0.00000E+0	0.00000E+0	2.00000E+1	1.40000E+1	2.00011E+1	1.40014E+1
255	02/09/2022	17:06:22.796	0.00000E+0	0.00000E+0	1.00000E+2	0.00000E+0	0.00000E+0	0.00000E+0	2.00000E+1	1.40000E+1	1.99978E+1	1.39973E+1
256	02/09/2022	17:06:24.190	0.00000E+0	0.00000E+0	1.00000E+2	0.00000E+0	0.00000E+0	0.00000E+0	2.00000E+1	1.40000E+1	2.00015E+1	1.40001E+1
257	02/09/2022	17:06:25.558	0.00000E+0	0.00000E+0	1.00000E+2	0.00000E+0	0.00000E+0	0.00000E+0	2.00000E+1	1.40000E+1	1.99997E+1	1.39993E+1
258	02/09/2022	17:06:27.016	0.00000E+0	0.00000E+0	1.00000E+2	0.00000E+0	0.00000E+0	0.00000E+0	2.00000E+1	1.40000E+1	2.00005E+1	1.40013E+1
259	02/09/2022	17:06:28.406	0.00000E+0	0.00000E+0	1.00000E+2	0.00000E+0	0.00000E+0	0.00000E+0	2.00000E+1	1.40000E+1	1.99998E+1	1.39996E+1
260	02/09/2022	17:06:29.819	0.00000E+0	0.00000E+0	1.00000E+2	0.00000E+0	0.00000E+0	0.00000E+0	2.00000E+1	1.40000E+1	2.00033E+1	1.40024E+1
261	02/09/2022	17:06:31.322	0.00000E+0	0.00000E+0	1.00000E+2	0.00000E+0	0.00000E+0	0.00000E+0	2.00000E+1	1.40000E+1	1.99981E+1	1.39982E+1
262	02/09/2022	17:06:32.691	0.00000E+0	0.00000E+0	1.00000E+2	0.00000E+0	0.00000E+0	0.00000E+0	2.00000E+1	1.40000E+1	1.99990E+1	1.39999E+1
263	02/09/2022	17:06:34.245	0.00000E+0	0.00000E+0	1.00000E+2	0.00000E+0	0.00000E+0	0.00000E+0	2.00000E+1	1.40000E+1	1.99982E+1	1.39972E+1
264	02/09/2022	17:06:35.623	0.00000E+0	0.00000E+0	1.00000E+2	0.00000E+0	0.00000E+0	0.00000E+0	2.00000E+1	1.40000E+1	1.99984E+1	1.39993E+1
265	02/09/2022	17:06:37.017	0.00000E+0	0.00000E+0	1.00000E+2	0.00000E+0	0.00000E+0	0.00000E+0	2.00000E+1	1.40000E+1	2.00011E+1	1.39999E+1
266	02/09/2022	17:06:38.479	0.00000E+0	0.00000E+0	1.00000E+2	0.00000E+0	0.00000E+0	0.00000E+0	2.00000E+1	1.40000E+1	1.99984E+1	1.40013E+1
267	02/09/2022	17:06:39.863	0.00000E+0	0.00000E+0	1.00000E+2	0.00000E+0	0.00000E+0	0.00000E+0	2.00000E+1	1.40000E+1	2.00014E+1	1.39993E+1
268	02/09/2022	17:06:41.304	0.00000E+0	0.00000E+0	1.00000E+2	0.00000E+0	0.00000E+0	0.00000E+0	2.00000E+1	1.40000E+1	2.00011E+1	1.39987E+1
269	02/09/2022	17:06:42.735	0.00000E+0	0.00000E+0	1.00000E+2	0.00000E+0	0.00000E+0	0.00000E+0	2.00000E+1	1.40000E+1	1.99978E+1	1.40008E+1
270	02/09/2022	17:06:44.138	0.00000E+0	0.00000E+0	1.00000E+2	0.00000E+0	0.00000E+0	0.00000E+0	2.00000E+1	1.40000E+1	1.99997E+1	1.39991E+1
271	02/09/2022	17:06:45.657	0.00000E+0	0.00000E+0	1.00000E+2	0.00000E+0	0.00000E+0	0.00000E+0	2.00000E+1	1.40000E+1	1.99987E+1	1.40004E+1
272	02/09/2022	17:06:47.033	0.00000E+0	0.00000E+0	1.00000E+2	0.00000E+0	0.00000E+0	0.00000E+0	2.00000E+1	1.40000E+1	1.99973E+1	1.40002E+1
273	02/09/2022	17:06:48.485	0.00000E+0	0.00000E+0	1.00000E+2	0.00000E+0	0.00000E+0	0.00000E+0	2.00000E+1	1.40000E+1	2.00018E+1	1.39992E+1
274	02/09/2022	17:06:49.989	0.00000E+0	0.00000E+0	1.00000E+2	0.00000E+0	0.00000E+0	0.00000E+0	2.00000E+1	1.40000E+1	2.00011E+1	1.40006E+1
275	02/09/2022	17:06:51.401	0.00000E+0	0.00000E+0	1.00000E+2	0.00000E+0	0.00000E+0	0.00000E+0	2.00000E+1	1.40000E+1	2.00001E+1	1.40015E+1
276	02/09/2022	17:06:52.884	0.00000E+0	0.00000E+0	1.00000E+2	0.00000E+0	0.00000E+0	0.00000E+0	2.00000E+1	1.40000E+1	1.99995E+1	1.39986E+1
277	02/09/2022	17:06:54.276	0.00000E+0	0.00000E+0	1.00000E+2	0.00000E+0	0.00000E+0	0.00000E+0	2.00000E+1	1.40000E+1	1.99997E+1	1.40003E+1
278	02/09/2022	17:06:55.658	0.00000E+0	0.00000E+0	1.00000E+2	0.00000E+0	0.00000E+0	0.00000E+0	2.00000E+1	1.40000E+1	2.00004E+1	1.40014E+1
279	02/09/2022	17:06:57.121	0.00000E+0	0.00000E+0	1.00000E+2	0.00000E+0	0.00000E+0	0.00000E+0	2.00000E+1	1.40000E+1	1.99990E+1	1.40003E+1
280	02/09/2022	17:06:58.512	0.00000E+0	0.00000E+0	1.00000E+2	0.00000E+0	0.00000E+0	0.00000E+0	2.00000E+1	1.40000E+1	1.99997E+1	1.40016E+1
281	02/09/2022	17:06:59.977	0.00000E+0	0.00000E+0	1.00000E+2	0.00000E+0	0.00000E+0	0.00000E+0	2.00000E+1	1.40000E+1	2.00020E+1	1.40023E+1
282	02/09/2022	17:07:01.502	0.00000E+0	0.00000E+0	1.00000E+2	0.00000E+0	0.00000E+0	0.00000E+0	2.00000E+1	1.40000E+1	2.00010E+1	1.40007E+1
283	02/09/2022	17:07:02.897	0.00000E+0	0.00000E+0	1.00000E+2	0.00000E+0	0.00000E+0	0.00000E+0	2.00000E+1	1.40000E+1	1.99998E+1	1.40005E+1
284	02/09/2022	17:07:04.373	0.00000E+0	0.00000E+0	1.00000E+2	0.00000E+0	0.00000E+0	0.00000E+0	2.00000E+1	1.40000E+1	1.99988E+1	1.40002E+1
285	02/09/2022	17:07:05.767	0.00000E+0	0.00000E+0	1.00000E+2	0.00000E+0	0.00000E+0	0.00000E+0	2.00000E+1	1.40000E+1	1.99985E+1	1.40005E+1
286	02/09/2022	17:07:07.150	0.00000E+0	0.00000E+0	1.00000E+2	0.00000E+0	0.00000E+0	0.00000E+0	2.00000E+1	1.40000E+1	1.99988E+1	1.39994E+1
287	02/09/2022	17:07:08.667	0.00000E+0	0.00000E+0	1.00000E+2	0.00000E+0	0.00000E+0	0.00000E+0	2.00000E+1	1.40000E+1	2.00005E+1	1.40001E+1
288	02/09/2022	17:07:10.066	0.00000E+0	0.00000E+0	1.00000E+2	0.00000E+0	0.00000E+0	0.00000E+0	2.00000E+1	1.40000E+1	1.99985E+1	1.40004E+1
289	02/09/2022	17:07:11.535	0.00000E+0	0.00000E+0	1.00000E+2	0.00000E+0	0.00000E+0	0.00000E+0	2.00000E+1	1.40000E+1	2.00023E+1	1.39989E+1
290	02/09/2022	17:07:12.955	0.00000E+0	0.00000E+0	1.00000E+2	0.00000E+0	0.00000E+0	0.00000E+0	2.00000E+1	1.40000E+1	1.99998E+1	1.39999E+1
291	02/09/2022	17:07:14.352	0.00000E+0	0.00000E+0	1.00000E+2	0.00000E+0	0.00000E+0	0.00000E+0	2.00000E+1	1.40000E+1	2.00018E+1	1.40003E+1
292	02/09/2022	17:07:15.872	0.00000E+0	0.00000E+0	1.00000E+2	0.00000E+0	0.00000E+0	0.00000E+0	2.00000E+1	1.40000E+1	1.99985E+1	1.40008E+1
293	02/09/2022	17:07:17.265	0.00000E+0	0.00000E+0	1.00000E+2	0.00000E+0	0.00000E+0	0.00000E+0	2.00000E+1	1.40000E+1	1.99993E+1	1.40011E+1
294	02/09/2022	17:07:18.705	0.00000E+0	0.00000E+0	1.00000E+2	0.00000E+0	0.00000E+0	0.00000E+0	2.00000E+1	1.40000E+1	2.00008E+1	1.40019E+1
295	02/09/2022	17:07:20.206	0.00000E+0	0.00000E+0	1.00000E+2	0.00000E+0	0.00000E+0	0.00000E+0	2.00000E+1	1.40000E+1	2.00012E+1	1.40006E+1
296	02/09/2022	17:07:21.619	0.00000E+0	0.00000E+0	1.00000E+2	0.00000E+0	0.00000E+0	0.00000E+0	2.00000E+1	1.40000E+1	1.99994E+1	1.40005E+1
297	02/09/2022	17:07:23.110	0.00000E+0	0.00000E+0	1.00000E+2	0.00000E+0	0.00000E+0	0.00000E+0	2.00000E+1	1.40000E+1	2.00003E+1	1.40014E+1
298	02/09/2022	17:07:24.495	0.00000E+0	0.00000E+0	1.00000E+2	0.00000E+0	0.00000E+0	0.00000E+0	2.00000E+1	1.40000E+1	2.00006E+1	1.39996E+1
299	02/09/2022	17:07:25.895	0.00000E+0	0.00000E+0	1.00000E+2	0.00000E+0	0.00000E+0	0.00000E+0	2.00000E+1	1.40000E+1	2.00020E+1	1.40007E+1
300	02/09/2022	17:07:27.423	0.00000E+0	0.00000E+0	1.00000E+2	0.00000E+0	0.00000E+0	0.00000E+0	2.00000E+1	1.40000E+1	1.99986E+1	1.40031E+1
301	02/09/2022	17:07:28.806	0.00000E+0	0.00000E+0	1.00000E+2	0.00000E+0	0.00000E+0	0.00000E+0	2.00000E+1	1.40000E+1	2.00007E+1	1.39986E+1
