#Iteration	Date	Time	STSX	STSY	RotationRateX	RotationRateY	FrCntX	FrCntY	TiptiltCmd1	TiptiltCmd2	TiptiltMonitor1	TiptiltMonitor2
1	15/03/2023	17:25:41.654	0.00000E+0	0.00000E+0	1.15021E-1	-3.12880E-2	0.00000E+0	0.00000E+0	2.12479E+1	1.37044E+1	2.12471E+1	1.37027E+1
2	15/03/2023	17:25:43.110	0.00000E+0	0.00000E+0	5.28822E-2	-1.62120E-1	0.00000E+0	0.00000E+0	2.12499E+1	1.37002E+1	2.12497E+1	1.36990E+1
3	15/03/2023	17:25:44.605	0.00000E+0	0.00000E+0	1.09276E+0	6.66535E-1	0.00000E+0	0.00000E+0	2.12832E+1	1.36903E+1	2.12832E+1	1.36921E+1
4	15/03/2023	17:25:46.095	0.00000E+0	0.00000E+0	8.76363E+1	-4.62343E-1	0.00000E+0	0.00000E+0	2.24753E+1	1.24544E+1	2.24761E+1	1.24541E+1
5	15/03/2023	17:25:47.569	0.00000E+0	0.00000E+0	3.50164E+1	-1.15998E-1	0.00000E+0	0.00000E+0	2.17668E+1	1.31919E+1	2.17676E+1	1.31945E+1
6	15/03/2023	17:25:49.056	0.00000E+0	0.00000E+0	-5.83936E+1	3.10677E+0	0.00000E+0	0.00000E+0	2.04113E+1	1.45323E+1	2.04116E+1	1.45332E+1
7	15/03/2023	17:25:50.542	0.00000E+0	0.00000E+0	-6.10933E+1	-2.42482E-1	0.00000E+0	0.00000E+0	2.04184E+1	1.45305E+1	2.04168E+1	1.45300E+1
8	15/03/2023	17:25:52.037	0.00000E+0	0.00000E+0	-4.78873E+1	4.55545E-1	0.00000E+0	0.00000E+0	2.05343E+1	1.44172E+1	2.05371E+1	1.44165E+1
9	15/03/2023	17:25:53.531	0.00000E+0	0.00000E+0	-3.93804E+1	-2.41304E-2	0.00000E+0	0.00000E+0	2.07015E+1	1.42534E+1	2.07007E+1	1.42531E+1
10	15/03/2023	17:25:54.990	0.00000E+0	0.00000E+0	2.82829E+0	-6.64505E-2	0.00000E+0	0.00000E+0	2.11897E+1	1.37530E+1	2.11909E+1	1.37542E+1
11	15/03/2023	17:25:56.559	0.00000E+0	0.00000E+0	5.96661E+1	6.88006E-1	0.00000E+0	0.00000E+0	2.21611E+1	1.28060E+1	2.21610E+1	1.28070E+1
12	15/03/2023	17:25:58.020	0.00000E+0	0.00000E+0	4.34831E+1	-2.05566E-2	0.00000E+0	0.00000E+0	2.18906E+1	1.30914E+1	2.18911E+1	1.30920E+1
13	15/03/2023	17:25:59.497	0.00000E+0	0.00000E+0	6.01539E+1	4.14767E+0	0.00000E+0	0.00000E+0	2.20513E+1	1.28905E+1	2.20524E+1	1.28925E+1
14	15/03/2023	17:26:01.023	0.00000E+0	0.00000E+0	4.32621E+1	5.77595E-1	0.00000E+0	0.00000E+0	2.18384E+1	1.30551E+1	2.18383E+1	1.30550E+1
15	15/03/2023	17:26:02.511	0.00000E+0	0.00000E+0	3.29833E+1	5.72411E-1	0.00000E+0	0.00000E+0	2.17202E+1	1.32276E+1	2.17206E+1	1.32272E+1
16	15/03/2023	17:26:03.945	0.00000E+0	0.00000E+0	-2.62615E+1	-5.55975E-1	0.00000E+0	0.00000E+0	2.08999E+1	1.40576E+1	2.09021E+1	1.40604E+1
17	15/03/2023	17:26:05.455	0.00000E+0	0.00000E+0	-3.48712E+1	-2.23054E+0	0.00000E+0	0.00000E+0	2.07656E+1	1.41602E+1	2.07646E+1	1.41578E+1
18	15/03/2023	17:26:06.941	0.00000E+0	0.00000E+0	-3.98454E+1	-4.20017E-1	0.00000E+0	0.00000E+0	2.07000E+1	1.42559E+1	2.07023E+1	1.42532E+1
19	15/03/2023	17:26:08.475	0.00000E+0	0.00000E+0	-4.66209E+1	2.83853E-2	0.00000E+0	0.00000E+0	2.06051E+1	1.43552E+1	2.06059E+1	1.43573E+1
20	15/03/2023	17:26:09.929	0.00000E+0	0.00000E+0	-4.41769E+1	-2.28193E-1	0.00000E+0	0.00000E+0	2.06186E+1	1.43293E+1	2.06183E+1	1.43289E+1
21	15/03/2023	17:26:11.386	0.00000E+0	0.00000E+0	-4.30974E+1	1.79792E-1	0.00000E+0	0.00000E+0	2.06723E+1	1.42933E+1	2.06712E+1	1.42924E+1
22	15/03/2023	17:26:12.882	0.00000E+0	0.00000E+0	4.12818E+1	-5.44407E-1	0.00000E+0	0.00000E+0	2.17756E+1	1.31476E+1	2.17745E+1	1.31459E+1
23	15/03/2023	17:26:14.357	0.00000E+0	0.00000E+0	5.52813E+1	1.57319E+0	0.00000E+0	0.00000E+0	2.20462E+1	1.29149E+1	2.20449E+1	1.29141E+1
24	15/03/2023	17:26:15.861	0.00000E+0	0.00000E+0	5.32659E+1	1.21005E+0	0.00000E+0	0.00000E+0	2.19962E+1	1.29704E+1	2.19933E+1	1.29704E+1
25	15/03/2023	17:26:17.326	0.00000E+0	0.00000E+0	4.70546E+1	-5.73031E-1	0.00000E+0	0.00000E+0	2.19583E+1	1.30544E+1	2.19580E+1	1.30552E+1
26	15/03/2023	17:26:18.788	0.00000E+0	0.00000E+0	4.48793E+1	1.54054E+0	0.00000E+0	0.00000E+0	2.19010E+1	1.30677E+1	2.19020E+1	1.30690E+1
27	15/03/2023	17:26:20.283	0.00000E+0	0.00000E+0	-4.12792E+1	1.14106E+0	0.00000E+0	0.00000E+0	2.07089E+1	1.42516E+1	2.07089E+1	1.42539E+1
28	15/03/2023	17:26:21.773	0.00000E+0	0.00000E+0	-5.68339E+1	-1.09662E+0	0.00000E+0	0.00000E+0	2.04511E+1	1.45028E+1	2.04529E+1	1.45019E+1
29	15/03/2023	17:26:23.276	0.00000E+0	0.00000E+0	-6.60794E+1	7.71369E-1	0.00000E+0	0.00000E+0	2.03151E+1	1.46290E+1	2.03115E+1	1.46250E+1
30	15/03/2023	17:26:24.762	0.00000E+0	0.00000E+0	-4.24204E+1	3.92182E-2	0.00000E+0	0.00000E+0	2.06665E+1	1.42713E+1	2.06670E+1	1.42707E+1
31	15/03/2023	17:26:26.223	0.00000E+0	0.00000E+0	-3.42998E+1	-7.03974E-1	0.00000E+0	0.00000E+0	2.07865E+1	1.41609E+1	2.07871E+1	1.41594E+1
32	15/03/2023	17:26:27.704	0.00000E+0	0.00000E+0	1.63102E+1	-3.79720E-1	0.00000E+0	0.00000E+0	2.13689E+1	1.35877E+1	2.13707E+1	1.35899E+1
33	15/03/2023	17:26:29.167	0.00000E+0	0.00000E+0	5.14953E+1	9.28649E-1	0.00000E+0	0.00000E+0	2.20144E+1	1.29279E+1	2.20142E+1	1.29279E+1
34	15/03/2023	17:26:30.626	0.00000E+0	0.00000E+0	5.06306E+1	1.57349E+0	0.00000E+0	0.00000E+0	2.19376E+1	1.29674E+1	2.19348E+1	1.29679E+1
35	15/03/2023	17:26:32.141	0.00000E+0	0.00000E+0	5.35340E+1	-7.75766E-2	0.00000E+0	0.00000E+0	2.21002E+1	1.29008E+1	2.21026E+1	1.29008E+1
36	15/03/2023	17:26:33.634	0.00000E+0	0.00000E+0	5.16381E+1	-1.42768E+0	0.00000E+0	0.00000E+0	2.19941E+1	1.30104E+1	2.19931E+1	1.30125E+1
37	15/03/2023	17:26:35.146	0.00000E+0	0.00000E+0	3.89593E+1	-3.47772E-1	0.00000E+0	0.00000E+0	2.18143E+1	1.31534E+1	2.18149E+1	1.31543E+1
38	15/03/2023	17:26:36.629	0.00000E+0	0.00000E+0	-4.42951E+1	-5.94581E-1	0.00000E+0	0.00000E+0	2.06373E+1	1.42992E+1	2.06394E+1	1.42989E+1
39	15/03/2023	17:26:38.154	0.00000E+0	0.00000E+0	-5.01123E+1	1.21171E+0	0.00000E+0	0.00000E+0	2.04706E+1	1.44254E+1	2.04712E+1	1.44260E+1
40	15/03/2023	17:26:39.658	0.00000E+0	0.00000E+0	-6.08037E+1	-7.49819E-1	0.00000E+0	0.00000E+0	2.03788E+1	1.45563E+1	2.03786E+1	1.45565E+1
41	15/03/2023	17:26:41.122	0.00000E+0	0.00000E+0	-3.33728E+1	-1.19078E+0	0.00000E+0	0.00000E+0	2.07633E+1	1.41740E+1	2.07621E+1	1.41733E+1
42	15/03/2023	17:26:42.595	0.00000E+0	0.00000E+0	-3.27048E+1	7.93232E-1	0.00000E+0	0.00000E+0	2.08021E+1	1.41595E+1	2.08030E+1	1.41607E+1
43	15/03/2023	17:26:44.105	0.00000E+0	0.00000E+0	-6.81836E-1	1.19797E+0	0.00000E+0	0.00000E+0	2.11428E+1	1.38087E+1	2.11432E+1	1.38089E+1
44	15/03/2023	17:26:45.580	0.00000E+0	0.00000E+0	4.78254E+1	-3.30890E-1	0.00000E+0	0.00000E+0	2.19528E+1	1.30258E+1	2.19517E+1	1.30264E+1
45	15/03/2023	17:26:47.075	0.00000E+0	0.00000E+0	3.67815E+1	1.04561E+0	0.00000E+0	0.00000E+0	2.17391E+1	1.32092E+1	2.17409E+1	1.32076E+1
46	15/03/2023	17:26:48.516	0.00000E+0	0.00000E+0	3.78929E+1	1.74420E+0	0.00000E+0	0.00000E+0	2.17743E+1	1.31505E+1	2.17725E+1	1.31520E+1
47	15/03/2023	17:26:50.006	0.00000E+0	0.00000E+0	6.46102E+1	5.72982E-1	0.00000E+0	0.00000E+0	2.21460E+1	1.28610E+1	2.21465E+1	1.28611E+1
48	15/03/2023	17:26:51.498	0.00000E+0	0.00000E+0	5.14842E+1	-2.66767E+0	0.00000E+0	0.00000E+0	2.20146E+1	1.30037E+1	2.20178E+1	1.30039E+1
49	15/03/2023	17:26:52.957	0.00000E+0	0.00000E+0	8.96068E+0	-1.10069E-1	0.00000E+0	0.00000E+0	2.14508E+1	1.34969E+1	2.14505E+1	1.34976E+1
50	15/03/2023	17:26:54.413	0.00000E+0	0.00000E+0	-4.38002E+1	1.44301E+0	0.00000E+0	0.00000E+0	2.06281E+1	1.43114E+1	2.06301E+1	1.43124E+1
51	15/03/2023	17:26:55.967	0.00000E+0	0.00000E+0	-3.31417E+1	-1.25862E+0	0.00000E+0	0.00000E+0	2.07670E+1	1.41726E+1	2.07670E+1	1.41709E+1
52	15/03/2023	17:26:57.450	0.00000E+0	0.00000E+0	-4.32549E+1	-9.06313E-1	0.00000E+0	0.00000E+0	2.06552E+1	1.42768E+1	2.06549E+1	1.42765E+1
53	15/03/2023	17:26:58.954	0.00000E+0	0.00000E+0	-4.28980E+1	-1.81436E+0	0.00000E+0	0.00000E+0	2.06191E+1	1.43234E+1	2.06200E+1	1.43244E+1
54	15/03/2023	17:27:00.413	0.00000E+0	0.00000E+0	-3.56082E+1	1.06469E-1	0.00000E+0	0.00000E+0	2.07335E+1	1.42215E+1	2.07323E+1	1.42235E+1
55	15/03/2023	17:27:01.949	0.00000E+0	0.00000E+0	-5.20631E+1	3.41710E-1	0.00000E+0	0.00000E+0	2.05258E+1	1.44321E+1	2.05262E+1	1.44319E+1
56	15/03/2023	17:27:03.433	0.00000E+0	0.00000E+0	7.02727E+1	6.25384E-1	0.00000E+0	0.00000E+0	2.22323E+1	1.27161E+1	2.22329E+1	1.27158E+1
57	15/03/2023	17:27:04.881	0.00000E+0	0.00000E+0	4.93789E+1	1.06773E+0	0.00000E+0	0.00000E+0	2.19987E+1	1.30318E+1	2.19984E+1	1.30312E+1
58	15/03/2023	17:27:06.365	0.00000E+0	0.00000E+0	6.81489E+1	-4.94263E-1	0.00000E+0	0.00000E+0	2.21910E+1	1.27754E+1	2.21922E+1	1.27730E+1
59	15/03/2023	17:27:07.825	0.00000E+0	0.00000E+0	5.23394E+1	2.59027E-1	0.00000E+0	0.00000E+0	2.19665E+1	1.29335E+1	2.19654E+1	1.29363E+1
60	15/03/2023	17:27:09.304	0.00000E+0	0.00000E+0	2.60997E+1	-8.08727E-1	0.00000E+0	0.00000E+0	2.16454E+1	1.32898E+1	2.16454E+1	1.32908E+1
61	15/03/2023	17:27:10.775	0.00000E+0	0.00000E+0	-3.08922E+1	-7.13118E-1	0.00000E+0	0.00000E+0	2.08308E+1	1.41098E+1	2.08321E+1	1.41104E+1
62	15/03/2023	17:27:12.261	0.00000E+0	0.00000E+0	-4.63618E+1	-1.53126E-1	0.00000E+0	0.00000E+0	2.05979E+1	1.43355E+1	2.05982E+1	1.43358E+1
63	15/03/2023	17:27:13.729	0.00000E+0	0.00000E+0	-4.14296E+1	6.35282E-2	0.00000E+0	0.00000E+0	2.06854E+1	1.42550E+1	2.06860E+1	1.42527E+1
64	15/03/2023	17:27:15.229	0.00000E+0	0.00000E+0	-4.58973E+1	1.42974E+0	0.00000E+0	0.00000E+0	2.05819E+1	1.43367E+1	2.05807E+1	1.43379E+1
65	15/03/2023	17:27:16.678	0.00000E+0	0.00000E+0	-4.75327E+1	-2.33216E+0	0.00000E+0	0.00000E+0	2.05662E+1	1.43831E+1	2.05657E+1	1.43850E+1
66	15/03/2023	17:27:18.182	0.00000E+0	0.00000E+0	-3.57395E+1	-1.40713E-1	0.00000E+0	0.00000E+0	2.07574E+1	1.41888E+1	2.07573E+1	1.41899E+1
67	15/03/2023	17:27:19.629	0.00000E+0	0.00000E+0	2.70834E+1	-2.11723E+0	0.00000E+0	0.00000E+0	2.15915E+1	1.33846E+1	2.15934E+1	1.33870E+1
68	15/03/2023	17:27:21.080	0.00000E+0	0.00000E+0	3.84512E+1	4.59211E-1	0.00000E+0	0.00000E+0	2.18260E+1	1.31613E+1	2.18260E+1	1.31594E+1
69	15/03/2023	17:27:22.614	0.00000E+0	0.00000E+0	4.98057E+1	-1.75067E+0	0.00000E+0	0.00000E+0	2.19389E+1	1.30100E+1	2.19414E+1	1.30126E+1
70	15/03/2023	17:27:24.088	0.00000E+0	0.00000E+0	4.91445E+1	1.06870E+0	0.00000E+0	0.00000E+0	2.19339E+1	1.30228E+1	2.19326E+1	1.30244E+1
71	15/03/2023	17:27:25.552	0.00000E+0	0.00000E+0	3.31762E+1	1.62226E+0	0.00000E+0	0.00000E+0	2.17319E+1	1.32508E+1	2.17287E+1	1.32509E+1
72	15/03/2023	17:27:27.054	0.00000E+0	0.00000E+0	3.12016E+1	6.72716E-1	0.00000E+0	0.00000E+0	2.17003E+1	1.32328E+1	2.17007E+1	1.32349E+1
73	15/03/2023	17:27:28.527	0.00000E+0	0.00000E+0	-1.38520E+0	-3.21841E-1	0.00000E+0	0.00000E+0	2.12773E+1	1.36487E+1	2.12792E+1	1.36504E+1
74	15/03/2023	17:27:30.038	0.00000E+0	0.00000E+0	-4.33367E+1	-1.65819E+0	0.00000E+0	0.00000E+0	2.06292E+1	1.42841E+1	2.06309E+1	1.42837E+1
75	15/03/2023	17:27:31.486	0.00000E+0	0.00000E+0	-4.08657E+1	4.99196E-1	0.00000E+0	0.00000E+0	2.06088E+1	1.42935E+1	2.06088E+1	1.42948E+1
76	15/03/2023	17:27:32.955	0.00000E+0	0.00000E+0	-6.03496E+1	-1.87398E+0	0.00000E+0	0.00000E+0	2.04275E+1	1.45304E+1	2.04251E+1	1.45299E+1
77	15/03/2023	17:27:34.413	0.00000E+0	0.00000E+0	-2.47891E+1	-7.83875E-1	0.00000E+0	0.00000E+0	2.08744E+1	1.40692E+1	2.08762E+1	1.40711E+1
78	15/03/2023	17:27:35.902	0.00000E+0	0.00000E+0	-2.57945E+1	-1.10825E-1	0.00000E+0	0.00000E+0	2.08636E+1	1.40716E+1	2.08596E+1	1.40712E+1
79	15/03/2023	17:27:37.415	0.00000E+0	0.00000E+0	-5.11515E+1	-1.97921E-1	0.00000E+0	0.00000E+0	2.05359E+1	1.43975E+1	2.05347E+1	1.43984E+1
80	15/03/2023	17:27:38.892	0.00000E+0	0.00000E+0	4.49864E+1	1.49946E-1	0.00000E+0	0.00000E+0	2.18971E+1	1.30912E+1	2.18983E+1	1.30922E+1
81	15/03/2023	17:27:40.346	0.00000E+0	0.00000E+0	2.27603E+1	2.98202E-1	0.00000E+0	0.00000E+0	2.15594E+1	1.33904E+1	2.15575E+1	1.33898E+1
82	15/03/2023	17:27:41.831	0.00000E+0	0.00000E+0	3.05617E+1	1.67141E-1	0.00000E+0	0.00000E+0	2.17196E+1	1.32258E+1	2.17187E+1	1.32271E+1
83	15/03/2023	17:27:43.315	0.00000E+0	0.00000E+0	4.88239E+1	-1.72480E+0	0.00000E+0	0.00000E+0	2.19562E+1	1.30463E+1	2.19544E+1	1.30485E+1
84	15/03/2023	17:27:44.802	0.00000E+0	0.00000E+0	4.65401E+1	1.44992E+0	0.00000E+0	0.00000E+0	2.19030E+1	1.30115E+1	2.19050E+1	1.30120E+1
85	15/03/2023	17:27:46.275	0.00000E+0	0.00000E+0	4.08469E+1	3.98299E-1	0.00000E+0	0.00000E+0	2.18396E+1	1.31262E+1	2.18424E+1	1.31258E+1
86	15/03/2023	17:27:47.821	0.00000E+0	0.00000E+0	-2.92581E+1	1.48313E-1	0.00000E+0	0.00000E+0	2.08547E+1	1.40854E+1	2.08542E+1	1.40852E+1
87	15/03/2023	17:27:49.315	0.00000E+0	0.00000E+0	-4.60166E+1	1.00723E-1	0.00000E+0	0.00000E+0	2.06220E+1	1.43110E+1	2.06210E+1	1.43115E+1
88	15/03/2023	17:27:50.786	0.00000E+0	0.00000E+0	-4.35967E+1	3.53604E-1	0.00000E+0	0.00000E+0	2.06412E+1	1.42669E+1	2.06419E+1	1.42653E+1
89	15/03/2023	17:27:52.272	0.00000E+0	0.00000E+0	-5.23155E+1	-1.16024E+0	0.00000E+0	0.00000E+0	2.05381E+1	1.44445E+1	2.05373E+1	1.44450E+1
90	15/03/2023	17:27:53.796	0.00000E+0	0.00000E+0	-3.63902E+1	-5.73434E-1	0.00000E+0	0.00000E+0	2.07031E+1	1.42652E+1	2.07020E+1	1.42631E+1
91	15/03/2023	17:27:55.287	0.00000E+0	0.00000E+0	-4.58515E+1	-3.99421E-1	0.00000E+0	0.00000E+0	2.05920E+1	1.43311E+1	2.05932E+1	1.43329E+1
92	15/03/2023	17:27:56.736	0.00000E+0	0.00000E+0	4.72635E+1	1.45613E-1	0.00000E+0	0.00000E+0	2.18886E+1	1.30802E+1	2.18865E+1	1.30811E+1
93	15/03/2023	17:27:58.219	0.00000E+0	0.00000E+0	5.70168E+1	-4.36097E-2	0.00000E+0	0.00000E+0	2.20521E+1	1.29384E+1	2.20529E+1	1.29379E+1
94	15/03/2023	17:27:59.695	0.00000E+0	0.00000E+0	5.12819E+1	-1.11476E+0	0.00000E+0	0.00000E+0	2.19758E+1	1.29684E+1	2.19754E+1	1.29710E+1
95	15/03/2023	17:28:01.239	0.00000E+0	0.00000E+0	4.21423E+1	2.89904E+0	0.00000E+0	0.00000E+0	2.18210E+1	1.30824E+1	2.18219E+1	1.30835E+1
96	15/03/2023	17:28:02.757	0.00000E+0	0.00000E+0	3.22922E+1	5.58262E-1	0.00000E+0	0.00000E+0	2.17141E+1	1.32518E+1	2.17145E+1	1.32536E+1
97	15/03/2023	17:28:04.222	0.00000E+0	0.00000E+0	-9.44996E+0	7.26576E-1	0.00000E+0	0.00000E+0	2.11363E+1	1.38251E+1	2.11345E+1	1.38282E+1
98	15/03/2023	17:28:05.709	0.00000E+0	0.00000E+0	-4.43987E+1	-2.85084E+0	0.00000E+0	0.00000E+0	2.06496E+1	1.43580E+1	2.06506E+1	1.43582E+1
99	15/03/2023	17:28:07.205	0.00000E+0	0.00000E+0	-3.48142E+1	8.81254E-1	0.00000E+0	0.00000E+0	2.07359E+1	1.41905E+1	2.07350E+1	1.41892E+1
100	15/03/2023	17:28:08.689	0.00000E+0	0.00000E+0	-5.91792E+1	1.63641E-1	0.00000E+0	0.00000E+0	2.04141E+1	1.45401E+1	2.04155E+1	1.45398E+1
101	15/03/2023	17:28:10.143	0.00000E+0	0.00000E+0	-3.73602E+1	-1.02887E-2	0.00000E+0	0.00000E+0	2.07308E+1	1.42016E+1	2.07320E+1	1.41991E+1
102	15/03/2023	17:28:11.622	0.00000E+0	0.00000E+0	-3.03141E+1	3.65654E-2	0.00000E+0	0.00000E+0	2.08376E+1	1.41081E+1	2.08400E+1	1.41059E+1
103	15/03/2023	17:28:13.145	0.00000E+0	0.00000E+0	9.23640E+0	2.28707E-1	0.00000E+0	0.00000E+0	2.13079E+1	1.36412E+1	2.13084E+1	1.36434E+1
104	15/03/2023	17:28:14.625	0.00000E+0	0.00000E+0	3.35783E+1	1.24338E+0	0.00000E+0	0.00000E+0	2.17638E+1	1.31789E+1	2.17630E+1	1.31780E+1
105	15/03/2023	17:28:16.093	0.00000E+0	0.00000E+0	6.94804E+1	-1.36418E-1	0.00000E+0	0.00000E+0	2.22565E+1	1.27224E+1	2.22570E+1	1.27214E+1
106	15/03/2023	17:28:17.589	0.00000E+0	0.00000E+0	5.97261E+1	-7.20588E-1	0.00000E+0	0.00000E+0	2.20999E+1	1.28371E+1	2.21004E+1	1.28378E+1
107	15/03/2023	17:28:19.075	0.00000E+0	0.00000E+0	3.63303E+1	-1.35937E+0	0.00000E+0	0.00000E+0	2.17604E+1	1.31908E+1	2.17588E+1	1.31901E+1
108	15/03/2023	17:28:20.569	0.00000E+0	0.00000E+0	-1.33546E+1	-3.53431E-1	0.00000E+0	0.00000E+0	2.10952E+1	1.38434E+1	2.10963E+1	1.38443E+1
109	15/03/2023	17:28:22.034	0.00000E+0	0.00000E+0	-5.74226E+1	-8.52490E-1	0.00000E+0	0.00000E+0	2.04659E+1	1.44987E+1	2.04658E+1	1.45011E+1
110	15/03/2023	17:28:23.524	0.00000E+0	0.00000E+0	-5.91724E+1	-3.03495E-1	0.00000E+0	0.00000E+0	2.04292E+1	1.45253E+1	2.04303E+1	1.45229E+1
111	15/03/2023	17:28:25.033	0.00000E+0	0.00000E+0	-3.27522E+1	-9.02457E-1	0.00000E+0	0.00000E+0	2.07578E+1	1.41756E+1	2.07549E+1	1.41763E+1
112	15/03/2023	17:28:26.517	0.00000E+0	0.00000E+0	-2.04421E+1	-7.59705E-1	0.00000E+0	0.00000E+0	2.09527E+1	1.40003E+1	2.09523E+1	1.40008E+1
113	15/03/2023	17:28:27.972	0.00000E+0	0.00000E+0	-5.08760E+1	-2.97899E-1	0.00000E+0	0.00000E+0	2.05151E+1	1.44144E+1	2.05135E+1	1.44152E+1
114	15/03/2023	17:28:29.445	0.00000E+0	0.00000E+0	3.42288E+1	1.09600E-1	0.00000E+0	0.00000E+0	2.17335E+1	1.32322E+1	2.17343E+1	1.32311E+1
115	15/03/2023	17:28:30.979	0.00000E+0	0.00000E+0	2.33067E+1	1.20572E+0	0.00000E+0	0.00000E+0	2.15761E+1	1.33786E+1	2.15778E+1	1.33787E+1
116	15/03/2023	17:28:32.456	0.00000E+0	0.00000E+0	3.99951E+1	-7.17979E-1	0.00000E+0	0.00000E+0	2.18284E+1	1.31307E+1	2.18273E+1	1.31301E+1
117	15/03/2023	17:28:33.923	0.00000E+0	0.00000E+0	5.24906E+1	1.25678E+0	0.00000E+0	0.00000E+0	2.19429E+1	1.30004E+1	2.19437E+1	1.29997E+1
118	15/03/2023	17:28:35.400	0.00000E+0	0.00000E+0	4.09932E+1	-1.28964E+0	0.00000E+0	0.00000E+0	2.17928E+1	1.31709E+1	2.17898E+1	1.31709E+1
119	15/03/2023	17:28:36.889	0.00000E+0	0.00000E+0	3.22673E+1	-7.10201E-1	0.00000E+0	0.00000E+0	2.16962E+1	1.32503E+1	2.16989E+1	1.32511E+1
120	15/03/2023	17:28:38.375	0.00000E+0	0.00000E+0	-1.95006E+1	4.12231E-1	0.00000E+0	0.00000E+0	2.09947E+1	1.39658E+1	2.09926E+1	1.39668E+1
121	15/03/2023	17:28:39.867	0.00000E+0	0.00000E+0	-4.67898E+1	1.92724E+0	0.00000E+0	0.00000E+0	2.05628E+1	1.43151E+1	2.05639E+1	1.43163E+1
122	15/03/2023	17:28:41.330	0.00000E+0	0.00000E+0	-4.98843E+1	4.45581E-1	0.00000E+0	0.00000E+0	2.05408E+1	1.43683E+1	2.05409E+1	1.43665E+1
123	15/03/2023	17:28:42.783	0.00000E+0	0.00000E+0	-4.61391E+1	4.40114E-1	0.00000E+0	0.00000E+0	2.05640E+1	1.43621E+1	2.05651E+1	1.43623E+1
124	15/03/2023	17:28:44.330	0.00000E+0	0.00000E+0	-2.41659E+1	5.73490E-1	0.00000E+0	0.00000E+0	2.08823E+1	1.40486E+1	2.08838E+1	1.40502E+1
125	15/03/2023	17:28:45.791	0.00000E+0	0.00000E+0	-4.78446E+1	-4.74913E-1	0.00000E+0	0.00000E+0	2.05640E+1	1.43663E+1	2.05639E+1	1.43678E+1
126	15/03/2023	17:28:47.269	0.00000E+0	0.00000E+0	2.94268E+1	1.52152E+0	0.00000E+0	0.00000E+0	2.16242E+1	1.32982E+1	2.16243E+1	1.32975E+1
127	15/03/2023	17:28:48.760	0.00000E+0	0.00000E+0	2.20992E+1	-1.69794E-1	0.00000E+0	0.00000E+0	2.15901E+1	1.33745E+1	2.15922E+1	1.33764E+1
128	15/03/2023	17:28:50.251	0.00000E+0	0.00000E+0	4.35425E+1	-1.78759E+0	0.00000E+0	0.00000E+0	2.19230E+1	1.31083E+1	2.19221E+1	1.31076E+1
129	15/03/2023	17:28:51.712	0.00000E+0	0.00000E+0	7.00314E+1	-2.23904E+0	0.00000E+0	0.00000E+0	2.22110E+1	1.27374E+1	2.22120E+1	1.27360E+1
130	15/03/2023	17:28:53.200	0.00000E+0	0.00000E+0	4.91716E+1	3.52162E+0	0.00000E+0	0.00000E+0	2.19111E+1	1.29618E+1	2.19118E+1	1.29603E+1
131	15/03/2023	17:28:54.676	0.00000E+0	0.00000E+0	3.23574E+1	8.07968E-1	0.00000E+0	0.00000E+0	2.17232E+1	1.32522E+1	2.17234E+1	1.32496E+1
132	15/03/2023	17:28:56.180	0.00000E+0	0.00000E+0	-5.09851E+1	-8.08270E-2	0.00000E+0	0.00000E+0	2.05229E+1	1.43926E+1	2.05220E+1	1.43898E+1
133	15/03/2023	17:28:57.657	0.00000E+0	0.00000E+0	-5.10287E+1	-1.35504E+0	0.00000E+0	0.00000E+0	2.05446E+1	1.44320E+1	2.05443E+1	1.44304E+1
134	15/03/2023	17:28:59.148	0.00000E+0	0.00000E+0	-5.41464E+1	-7.68559E-1	0.00000E+0	0.00000E+0	2.04653E+1	1.44931E+1	2.04652E+1	1.44927E+1
135	15/03/2023	17:29:00.632	0.00000E+0	0.00000E+0	-3.98744E+1	2.31594E-1	0.00000E+0	0.00000E+0	2.06684E+1	1.42654E+1	2.06691E+1	1.42646E+1
136	15/03/2023	17:29:02.109	0.00000E+0	0.00000E+0	-3.55886E+1	-8.91506E-1	0.00000E+0	0.00000E+0	2.07505E+1	1.41847E+1	2.07505E+1	1.41844E+1
137	15/03/2023	17:29:03.593	0.00000E+0	0.00000E+0	5.36251E+0	-4.21753E-2	0.00000E+0	0.00000E+0	2.12431E+1	1.37019E+1	2.12444E+1	1.37017E+1
138	15/03/2023	17:29:05.031	0.00000E+0	0.00000E+0	7.95774E+1	-2.88534E-1	0.00000E+0	0.00000E+0	2.23549E+1	1.25858E+1	2.23530E+1	1.25869E+1
139	15/03/2023	17:29:06.503	0.00000E+0	0.00000E+0	7.52484E+1	1.10288E+0	0.00000E+0	0.00000E+0	2.23339E+1	1.26524E+1	2.23353E+1	1.26527E+1
140	15/03/2023	17:29:07.972	0.00000E+0	0.00000E+0	4.89222E+1	-1.95494E+0	0.00000E+0	0.00000E+0	2.20003E+1	1.29796E+1	2.19977E+1	1.29803E+1
141	15/03/2023	17:29:09.459	0.00000E+0	0.00000E+0	3.43984E+1	-2.06260E+0	0.00000E+0	0.00000E+0	2.17447E+1	1.32274E+1	2.17447E+1	1.32281E+1
142	15/03/2023	17:29:10.903	0.00000E+0	0.00000E+0	-1.51708E+1	3.22056E-1	0.00000E+0	0.00000E+0	2.10585E+1	1.38998E+1	2.10592E+1	1.39019E+1
143	15/03/2023	17:29:12.393	0.00000E+0	0.00000E+0	-3.92554E+1	-2.96973E-1	0.00000E+0	0.00000E+0	2.06706E+1	1.42659E+1	2.06701E+1	1.42646E+1
144	15/03/2023	17:29:13.919	0.00000E+0	0.00000E+0	-3.17529E+1	3.19647E-1	0.00000E+0	0.00000E+0	2.07951E+1	1.41350E+1	2.07920E+1	1.41356E+1
145	15/03/2023	17:29:15.418	0.00000E+0	0.00000E+0	-5.76150E+1	-1.87793E+0	0.00000E+0	0.00000E+0	2.04478E+1	1.44728E+1	2.04486E+1	1.44712E+1
146	15/03/2023	17:29:16.892	0.00000E+0	0.00000E+0	-4.20800E+1	1.35801E+0	0.00000E+0	0.00000E+0	2.06699E+1	1.42686E+1	2.06715E+1	1.42687E+1
147	15/03/2023	17:29:18.346	0.00000E+0	0.00000E+0	-3.20970E+1	-6.38545E-1	0.00000E+0	0.00000E+0	2.08130E+1	1.41410E+1	2.08139E+1	1.41381E+1
148	15/03/2023	17:29:19.809	0.00000E+0	0.00000E+0	-1.42561E+1	-1.27426E-1	0.00000E+0	0.00000E+0	2.09718E+1	1.39654E+1	2.09707E+1	1.39633E+1
149	15/03/2023	17:29:21.332	0.00000E+0	0.00000E+0	5.18975E+1	-9.09084E-1	0.00000E+0	0.00000E+0	2.19485E+1	1.29822E+1	2.19480E+1	1.29819E+1
150	15/03/2023	17:29:22.831	0.00000E+0	0.00000E+0	4.98063E+1	1.80531E+0	0.00000E+0	0.00000E+0	2.19126E+1	1.30028E+1	2.19109E+1	1.30013E+1
151	15/03/2023	17:29:24.299	0.00000E+0	0.00000E+0	4.93992E+1	-6.96809E-1	0.00000E+0	0.00000E+0	2.19525E+1	1.30423E+1	2.19527E+1	1.30402E+1
152	15/03/2023	17:29:25.764	0.00000E+0	0.00000E+0	5.43498E+1	1.15303E+0	0.00000E+0	0.00000E+0	2.19732E+1	1.29400E+1	2.19739E+1	1.29421E+1
153	15/03/2023	17:29:27.256	0.00000E+0	0.00000E+0	4.27475E+1	-2.07760E+0	0.00000E+0	0.00000E+0	2.18555E+1	1.30964E+1	2.18565E+1	1.30969E+1
154	15/03/2023	17:29:28.760	0.00000E+0	0.00000E+0	-3.82125E+1	-8.03239E-1	0.00000E+0	0.00000E+0	2.07256E+1	1.41926E+1	2.07236E+1	1.41906E+1
155	15/03/2023	17:29:30.285	0.00000E+0	0.00000E+0	-4.79004E+1	-1.52355E+0	0.00000E+0	0.00000E+0	2.05715E+1	1.43673E+1	2.05707E+1	1.43660E+1
156	15/03/2023	17:29:31.739	0.00000E+0	0.00000E+0	-5.77391E+1	-5.75342E-1	0.00000E+0	0.00000E+0	2.04550E+1	1.45010E+1	2.04533E+1	1.44997E+1
157	15/03/2023	17:29:33.225	0.00000E+0	0.00000E+0	-3.13401E+1	8.75811E-2	0.00000E+0	0.00000E+0	2.07905E+1	1.41683E+1	2.07904E+1	1.41705E+1
158	15/03/2023	17:29:34.713	0.00000E+0	0.00000E+0	-3.08951E+1	1.44499E-2	0.00000E+0	0.00000E+0	2.08076E+1	1.41459E+1	2.08054E+1	1.41451E+1
159	15/03/2023	17:29:36.198	0.00000E+0	0.00000E+0	-3.72246E+1	-1.41103E+0	0.00000E+0	0.00000E+0	2.06744E+1	1.42672E+1	2.06757E+1	1.42659E+1
160	15/03/2023	17:29:37.646	0.00000E+0	0.00000E+0	3.13888E+1	-1.14938E+0	0.00000E+0	0.00000E+0	2.16768E+1	1.32499E+1	2.16762E+1	1.32501E+1
161	15/03/2023	17:29:39.143	0.00000E+0	0.00000E+0	1.63699E+1	1.13409E-1	0.00000E+0	0.00000E+0	2.14720E+1	1.34771E+1	2.14727E+1	1.34730E+1
162	15/03/2023	17:29:40.618	0.00000E+0	0.00000E+0	4.04668E+1	8.70141E-1	0.00000E+0	0.00000E+0	2.18312E+1	1.31208E+1	2.18286E+1	1.31233E+1
163	15/03/2023	17:29:42.112	0.00000E+0	0.00000E+0	7.67063E+1	1.04478E+0	0.00000E+0	0.00000E+0	2.23539E+1	1.25990E+1	2.23552E+1	1.25995E+1
164	15/03/2023	17:29:43.605	0.00000E+0	0.00000E+0	4.76721E+1	2.74668E-1	0.00000E+0	0.00000E+0	2.19638E+1	1.30360E+1	2.19646E+1	1.30348E+1
165	15/03/2023	17:29:45.115	0.00000E+0	0.00000E+0	3.34707E+1	9.30248E-2	0.00000E+0	0.00000E+0	2.17371E+1	1.32097E+1	2.17364E+1	1.32091E+1
166	15/03/2023	17:29:46.635	0.00000E+0	0.00000E+0	-2.48348E+1	5.59824E-1	0.00000E+0	0.00000E+0	2.09110E+1	1.40363E+1	2.09101E+1	1.40374E+1
167	15/03/2023	17:29:48.149	0.00000E+0	0.00000E+0	-3.97929E+1	1.20919E+0	0.00000E+0	0.00000E+0	2.07059E+1	1.42249E+1	2.07077E+1	1.42253E+1
168	15/03/2023	17:29:49.634	0.00000E+0	0.00000E+0	-4.56075E+1	-1.49117E+0	0.00000E+0	0.00000E+0	2.06191E+1	1.43238E+1	2.06183E+1	1.43240E+1
169	15/03/2023	17:29:51.092	0.00000E+0	0.00000E+0	-4.94026E+1	-1.86930E+0	0.00000E+0	0.00000E+0	2.05912E+1	1.44010E+1	2.05902E+1	1.44017E+1
170	15/03/2023	17:29:52.571	0.00000E+0	0.00000E+0	-4.87786E+1	-4.74129E-1	0.00000E+0	0.00000E+0	2.05369E+1	1.43959E+1	2.05401E+1	1.43959E+1
171	15/03/2023	17:29:54.064	0.00000E+0	0.00000E+0	-5.99109E+1	1.36842E-1	0.00000E+0	0.00000E+0	2.04099E+1	1.45233E+1	2.04088E+1	1.45240E+1
172	15/03/2023	17:29:55.514	0.00000E+0	0.00000E+0	7.12458E+1	1.17298E+0	0.00000E+0	0.00000E+0	2.21886E+1	1.27470E+1	2.21889E+1	1.27486E+1
173	15/03/2023	17:29:57.011	0.00000E+0	0.00000E+0	7.34570E+1	1.20598E+0	0.00000E+0	0.00000E+0	2.23237E+1	1.26593E+1	2.23247E+1	1.26586E+1
174	15/03/2023	17:29:58.504	0.00000E+0	0.00000E+0	6.27695E+1	3.75256E-1	0.00000E+0	0.00000E+0	2.21471E+1	1.27968E+1	2.21476E+1	1.27966E+1
175	15/03/2023	17:29:59.947	0.00000E+0	0.00000E+0	2.59533E+1	2.00863E+0	0.00000E+0	0.00000E+0	2.16485E+1	1.33383E+1	2.16489E+1	1.33366E+1
176	15/03/2023	17:30:01.441	0.00000E+0	0.00000E+0	2.21102E+1	6.46040E-2	0.00000E+0	0.00000E+0	2.15665E+1	1.33865E+1	2.15662E+1	1.33845E+1
177	15/03/2023	17:30:02.941	0.00000E+0	0.00000E+0	3.10929E+1	-1.18578E+0	0.00000E+0	0.00000E+0	2.16646E+1	1.32609E+1	2.16652E+1	1.32605E+1
178	15/03/2023	17:30:04.414	0.00000E+0	0.00000E+0	-3.04769E+1	-4.85911E-1	0.00000E+0	0.00000E+0	2.08272E+1	1.41177E+1	2.08270E+1	1.41174E+1
179	15/03/2023	17:30:05.925	0.00000E+0	0.00000E+0	-2.56093E+1	-1.47486E-1	0.00000E+0	0.00000E+0	2.08678E+1	1.40578E+1	2.08652E+1	1.40598E+1
180	15/03/2023	17:30:07.404	0.00000E+0	0.00000E+0	-3.89014E+1	2.03226E+0	0.00000E+0	0.00000E+0	2.06957E+1	1.42275E+1	2.06981E+1	1.42266E+1
181	15/03/2023	17:30:08.877	0.00000E+0	0.00000E+0	-4.24402E+1	-7.10070E-1	0.00000E+0	0.00000E+0	2.06214E+1	1.43128E+1	2.06235E+1	1.43134E+1
182	15/03/2023	17:30:10.368	0.00000E+0	0.00000E+0	-4.50410E+1	-1.96016E+0	0.00000E+0	0.00000E+0	2.06470E+1	1.43106E+1	2.06465E+1	1.43099E+1
183	15/03/2023	17:30:11.891	0.00000E+0	0.00000E+0	-4.63036E+1	1.94328E-1	0.00000E+0	0.00000E+0	2.06084E+1	1.43358E+1	2.06077E+1	1.43369E+1
184	15/03/2023	17:30:13.378	0.00000E+0	0.00000E+0	3.24278E+1	-2.09095E-1	0.00000E+0	0.00000E+0	2.17238E+1	1.32619E+1	2.17218E+1	1.32605E+1
185	15/03/2023	17:30:14.832	0.00000E+0	0.00000E+0	2.69690E+1	-4.51882E-2	0.00000E+0	0.00000E+0	2.16596E+1	1.32709E+1	2.16594E+1	1.32744E+1
186	15/03/2023	17:30:16.300	0.00000E+0	0.00000E+0	5.83899E+1	7.82924E-1	0.00000E+0	0.00000E+0	2.20795E+1	1.29030E+1	2.20766E+1	1.29001E+1
187	15/03/2023	17:30:17.815	0.00000E+0	0.00000E+0	6.69504E+1	1.67716E+0	0.00000E+0	0.00000E+0	2.21865E+1	1.28133E+1	2.21867E+1	1.28145E+1
188	15/03/2023	17:30:19.274	0.00000E+0	0.00000E+0	5.73787E+1	-9.63253E-1	0.00000E+0	0.00000E+0	2.20281E+1	1.28935E+1	2.20267E+1	1.28946E+1
189	15/03/2023	17:30:20.771	0.00000E+0	0.00000E+0	3.57866E+1	2.28210E-1	0.00000E+0	0.00000E+0	2.17557E+1	1.32059E+1	2.17554E+1	1.32039E+1
190	15/03/2023	17:30:22.305	0.00000E+0	0.00000E+0	-1.83589E+1	-7.37192E-1	0.00000E+0	0.00000E+0	2.10411E+1	1.39161E+1	2.10403E+1	1.39151E+1
191	15/03/2023	17:30:23.766	0.00000E+0	0.00000E+0	-7.05553E+1	-3.34374E-1	0.00000E+0	0.00000E+0	2.02141E+1	1.47110E+1	2.02155E+1	1.47109E+1
192	15/03/2023	17:30:25.241	0.00000E+0	0.00000E+0	-5.61868E+1	-4.55516E-1	0.00000E+0	0.00000E+0	2.04681E+1	1.44949E+1	2.04678E+1	1.44946E+1
193	15/03/2023	17:30:26.704	0.00000E+0	0.00000E+0	-4.16701E+1	-2.69988E-1	0.00000E+0	0.00000E+0	2.06443E+1	1.43065E+1	2.06446E+1	1.43077E+1
194	15/03/2023	17:30:28.157	0.00000E+0	0.00000E+0	-4.85749E+1	-1.04198E+0	0.00000E+0	0.00000E+0	2.05880E+1	1.43697E+1	2.05876E+1	1.43703E+1
195	15/03/2023	17:30:29.689	0.00000E+0	0.00000E+0	-4.07362E+1	-1.98722E-1	0.00000E+0	0.00000E+0	2.06655E+1	1.42555E+1	2.06677E+1	1.42547E+1
196	15/03/2023	17:30:31.153	0.00000E+0	0.00000E+0	2.34350E+1	-2.88862E-1	0.00000E+0	0.00000E+0	2.15965E+1	1.33262E+1	2.15989E+1	1.33270E+1
197	15/03/2023	17:30:32.619	0.00000E+0	0.00000E+0	5.09864E+1	2.13166E+0	0.00000E+0	0.00000E+0	2.20042E+1	1.29885E+1	2.20042E+1	1.29879E+1
198	15/03/2023	17:30:34.099	0.00000E+0	0.00000E+0	4.16958E+1	1.78606E+0	0.00000E+0	0.00000E+0	2.18309E+1	1.31255E+1	2.18323E+1	1.31280E+1
199	15/03/2023	17:30:35.575	0.00000E+0	0.00000E+0	3.85662E+1	1.57784E-1	0.00000E+0	0.00000E+0	2.18022E+1	1.31637E+1	2.18029E+1	1.31624E+1
200	15/03/2023	17:30:37.029	0.00000E+0	0.00000E+0	5.74000E+1	2.19397E-1	0.00000E+0	0.00000E+0	2.21136E+1	1.28447E+1	2.21126E+1	1.28432E+1
201	15/03/2023	17:30:38.518	0.00000E+0	0.00000E+0	4.30085E+1	1.71084E+0	0.00000E+0	0.00000E+0	2.18570E+1	1.30838E+1	2.18544E+1	1.30861E+1
202	15/03/2023	17:30:39.968	0.00000E+0	0.00000E+0	2.97940E+1	6.24487E-1	0.00000E+0	0.00000E+0	2.16663E+1	1.32662E+1	2.16636E+1	1.32650E+1
203	15/03/2023	17:30:41.491	0.00000E+0	0.00000E+0	-3.38698E+1	-1.27243E+0	0.00000E+0	0.00000E+0	2.07693E+1	1.41548E+1	2.07690E+1	1.41559E+1
204	15/03/2023	17:30:42.969	0.00000E+0	0.00000E+0	-4.87530E+1	-4.44431E-1	0.00000E+0	0.00000E+0	2.05686E+1	1.43651E+1	2.05678E+1	1.43646E+1
205	15/03/2023	17:30:44.458	0.00000E+0	0.00000E+0	-3.95152E+1	-7.21858E-2	0.00000E+0	0.00000E+0	2.06814E+1	1.42565E+1	2.06819E+1	1.42574E+1
206	15/03/2023	17:30:45.902	0.00000E+0	0.00000E+0	-3.72496E+1	-3.77817E-1	0.00000E+0	0.00000E+0	2.06978E+1	1.42086E+1	2.06984E+1	1.42104E+1
207	15/03/2023	17:30:47.396	0.00000E+0	0.00000E+0	-3.85145E+1	-4.44925E-2	0.00000E+0	0.00000E+0	2.07468E+1	1.42384E+1	2.07491E+1	1.42389E+1
208	15/03/2023	17:30:48.869	0.00000E+0	0.00000E+0	-2.65117E+1	-1.56864E-1	0.00000E+0	0.00000E+0	2.08874E+1	1.40527E+1	2.08886E+1	1.40521E+1
209	15/03/2023	17:30:50.340	0.00000E+0	0.00000E+0	-3.25732E+1	-2.02383E-1	0.00000E+0	0.00000E+0	2.07523E+1	1.41871E+1	2.07520E+1	1.41880E+1
210	15/03/2023	17:30:51.827	0.00000E+0	0.00000E+0	6.68688E+1	-1.31750E-1	0.00000E+0	0.00000E+0	2.21956E+1	1.27987E+1	2.21971E+1	1.28007E+1
211	15/03/2023	17:30:53.324	0.00000E+0	0.00000E+0	4.17445E+1	-1.78080E+0	0.00000E+0	0.00000E+0	2.18879E+1	1.31034E+1	2.18885E+1	1.31044E+1
212	15/03/2023	17:30:54.768	0.00000E+0	0.00000E+0	7.57567E+1	2.44649E-1	0.00000E+0	0.00000E+0	2.23003E+1	1.26653E+1	2.23002E+1	1.26662E+1
213	15/03/2023	17:30:56.291	0.00000E+0	0.00000E+0	4.80085E+1	2.35651E+0	0.00000E+0	0.00000E+0	2.19082E+1	1.29857E+1	2.19068E+1	1.29840E+1
214	15/03/2023	17:30:57.747	0.00000E+0	0.00000E+0	2.94687E+1	-2.77521E-1	0.00000E+0	0.00000E+0	2.16538E+1	1.32905E+1	2.16511E+1	1.32898E+1
215	15/03/2023	17:30:59.249	0.00000E+0	0.00000E+0	-2.36888E+1	1.91801E-2	0.00000E+0	0.00000E+0	2.09233E+1	1.40076E+1	2.09232E+1	1.40081E+1
216	15/03/2023	17:31:00.772	0.00000E+0	0.00000E+0	-6.59959E+1	-1.11667E+0	0.00000E+0	0.00000E+0	2.03095E+1	1.46144E+1	2.03103E+1	1.46137E+1
217	15/03/2023	17:31:02.725	0.00000E+0	0.00000E+0	-5.32213E+1	-1.64431E+0	0.00000E+0	0.00000E+0	2.04820E+1	1.44490E+1	2.04818E+1	1.44486E+1
218	15/03/2023	17:31:04.212	0.00000E+0	0.00000E+0	-2.06834E+1	-2.96283E-2	0.00000E+0	0.00000E+0	2.09752E+1	1.39755E+1	2.09748E+1	1.39746E+1
219	15/03/2023	17:31:05.679	0.00000E+0	0.00000E+0	-2.98937E+1	-1.44987E-1	0.00000E+0	0.00000E+0	2.08276E+1	1.41148E+1	2.08261E+1	1.41153E+1
220	15/03/2023	17:31:07.147	0.00000E+0	0.00000E+0	-3.88720E+1	-1.17415E+0	0.00000E+0	0.00000E+0	2.06250E+1	1.43309E+1	2.06280E+1	1.43321E+1
221	15/03/2023	17:31:08.631	0.00000E+0	0.00000E+0	3.49481E+1	-1.84681E+0	0.00000E+0	0.00000E+0	2.16900E+1	1.32197E+1	2.16868E+1	1.32193E+1
222	15/03/2023	17:31:10.117	0.00000E+0	0.00000E+0	9.46402E+1	7.87804E-1	0.00000E+0	0.00000E+0	2.25592E+1	1.24112E+1	2.25596E+1	1.24082E+1
223	15/03/2023	17:31:11.633	0.00000E+0	0.00000E+0	7.22222E+1	-6.63457E-1	0.00000E+0	0.00000E+0	2.23256E+1	1.26499E+1	2.23254E+1	1.26491E+1
224	15/03/2023	17:31:13.111	0.00000E+0	0.00000E+0	4.66873E+1	3.90434E-1	0.00000E+0	0.00000E+0	2.19118E+1	1.30715E+1	2.19122E+1	1.30725E+1
225	15/03/2023	17:31:14.559	0.00000E+0	0.00000E+0	-2.36979E+1	1.43993E-1	0.00000E+0	0.00000E+0	2.09127E+1	1.39623E+1	2.09121E+1	1.39640E+1
226	15/03/2023	17:31:16.048	0.00000E+0	0.00000E+0	-6.03001E+1	1.11148E-1	0.00000E+0	0.00000E+0	2.04368E+1	1.45366E+1	2.04382E+1	1.45367E+1
227	15/03/2023	17:31:17.516	0.00000E+0	0.00000E+0	-8.58776E+1	-1.26943E+0	0.00000E+0	0.00000E+0	2.00451E+1	1.49087E+1	2.00454E+1	1.49094E+1
228	15/03/2023	17:31:18.987	0.00000E+0	0.00000E+0	-5.05582E+1	-7.56536E-1	0.00000E+0	0.00000E+0	2.04993E+1	1.44005E+1	2.04997E+1	1.43999E+1
229	15/03/2023	17:31:20.482	0.00000E+0	0.00000E+0	-5.91550E+1	-9.98847E-1	0.00000E+0	0.00000E+0	2.04251E+1	1.45173E+1	2.04256E+1	1.45177E+1
230	15/03/2023	17:31:21.956	0.00000E+0	0.00000E+0	3.83525E+1	-1.04660E+0	0.00000E+0	0.00000E+0	2.17937E+1	1.31781E+1	2.17964E+1	1.31769E+1
231	15/03/2023	17:31:23.414	0.00000E+0	0.00000E+0	5.86439E+1	1.26010E+0	0.00000E+0	0.00000E+0	2.21329E+1	1.28283E+1	2.21312E+1	1.28283E+1
232	15/03/2023	17:31:24.893	0.00000E+0	0.00000E+0	4.24758E+1	2.98711E+0	0.00000E+0	0.00000E+0	2.18356E+1	1.31044E+1	2.18362E+1	1.31034E+1
233	15/03/2023	17:31:26.385	0.00000E+0	0.00000E+0	4.73982E+1	-1.45641E+0	0.00000E+0	0.00000E+0	2.19474E+1	1.30048E+1	2.19450E+1	1.30045E+1
234	15/03/2023	17:31:27.870	0.00000E+0	0.00000E+0	2.87869E+1	1.29880E+0	0.00000E+0	0.00000E+0	2.16590E+1	1.33019E+1	2.16593E+1	1.32987E+1
235	15/03/2023	17:31:29.347	0.00000E+0	0.00000E+0	2.68270E+1	-1.73423E+0	0.00000E+0	0.00000E+0	2.16617E+1	1.33180E+1	2.16599E+1	1.33160E+1
236	15/03/2023	17:31:30.819	0.00000E+0	0.00000E+0	-3.52366E+1	6.33676E-2	0.00000E+0	0.00000E+0	2.07676E+1	1.41481E+1	2.07688E+1	1.41495E+1
237	15/03/2023	17:31:32.352	0.00000E+0	0.00000E+0	-5.49656E+1	-9.73933E-2	0.00000E+0	0.00000E+0	2.04225E+1	1.45050E+1	2.04232E+1	1.45047E+1
238	15/03/2023	17:31:33.842	0.00000E+0	0.00000E+0	-5.24731E+1	-1.43596E+0	0.00000E+0	0.00000E+0	2.05097E+1	1.44514E+1	2.05107E+1	1.44522E+1
239	15/03/2023	17:31:35.303	0.00000E+0	0.00000E+0	-1.20394E+1	-5.00134E-1	0.00000E+0	0.00000E+0	2.10834E+1	1.38813E+1	2.10855E+1	1.38845E+1
240	15/03/2023	17:31:36.781	0.00000E+0	0.00000E+0	-1.45809E+1	-2.06465E-1	0.00000E+0	0.00000E+0	2.10760E+1	1.38692E+1	2.10763E+1	1.38700E+1
241	15/03/2023	17:31:38.288	0.00000E+0	0.00000E+0	5.56043E+0	-2.49687E-1	0.00000E+0	0.00000E+0	2.12179E+1	1.37142E+1	2.12194E+1	1.37148E+1
242	15/03/2023	17:31:39.780	0.00000E+0	0.00000E+0	3.97488E+1	4.09937E-2	0.00000E+0	0.00000E+0	2.18027E+1	1.31310E+1	2.18037E+1	1.31292E+1
