#Iteration	Date	Time	Chirp	Phase	RamanAxis	RatioMean	RatioStdDev
1	12/06/2023	16:37:21.337	0.00000000E+0	-1.56922630E+3	5.00000000E+0	4.65764777E-1	0.00000000E+0
2	12/06/2023	16:37:23.211	0.00000000E+0	-1.56294311E+3	5.00000000E+0	5.03928627E-1	0.00000000E+0
3	12/06/2023	16:37:25.018	0.00000000E+0	-1.55665993E+3	5.00000000E+0	4.91499723E-1	0.00000000E+0
4	12/06/2023	16:37:27.020	0.00000000E+0	-1.55037674E+3	5.00000000E+0	4.79170115E-1	0.00000000E+0
5	12/06/2023	16:37:28.940	0.00000000E+0	-1.54409356E+3	5.00000000E+0	4.95941380E-1	0.00000000E+0
6	12/06/2023	16:37:30.719	0.00000000E+0	-1.53781037E+3	5.00000000E+0	5.36513012E-1	0.00000000E+0
7	12/06/2023	16:37:32.548	0.00000000E+0	-1.53152719E+3	5.00000000E+0	4.87355002E-1	0.00000000E+0
8	12/06/2023	16:37:34.303	0.00000000E+0	-1.52524400E+3	5.00000000E+0	6.43445723E-1	0.00000000E+0
9	12/06/2023	16:37:36.069	0.00000000E+0	-1.51896082E+3	5.00000000E+0	3.22842562E-1	0.00000000E+0
10	12/06/2023	16:37:37.853	0.00000000E+0	-1.51267763E+3	5.00000000E+0	5.29990467E-1	0.00000000E+0
11	12/06/2023	16:37:39.710	0.00000000E+0	-1.50639444E+3	5.00000000E+0	3.51058238E-1	0.00000000E+0
12	12/06/2023	16:37:41.714	0.00000000E+0	-1.50011126E+3	5.00000000E+0	6.53078149E-1	0.00000000E+0
13	12/06/2023	16:37:43.596	0.00000000E+0	-1.49382807E+3	5.00000000E+0	3.36000981E-1	0.00000000E+0
14	12/06/2023	16:37:45.466	0.00000000E+0	-1.48754489E+3	5.00000000E+0	3.27950226E-1	0.00000000E+0
15	12/06/2023	16:37:47.384	0.00000000E+0	-1.48126170E+3	5.00000000E+0	3.74441782E-1	0.00000000E+0
16	12/06/2023	16:37:49.233	0.00000000E+0	-1.47497852E+3	5.00000000E+0	6.66400958E-1	0.00000000E+0
17	12/06/2023	16:37:51.184	0.00000000E+0	-1.46869533E+3	5.00000000E+0	4.23343761E-1	0.00000000E+0
18	12/06/2023	16:37:52.954	0.00000000E+0	-1.46241215E+3	5.00000000E+0	4.65523991E-1	0.00000000E+0
19	12/06/2023	16:37:54.705	0.00000000E+0	-1.45612896E+3	5.00000000E+0	5.82596583E-1	0.00000000E+0
20	12/06/2023	16:37:56.642	0.00000000E+0	-1.44984578E+3	5.00000000E+0	5.91373626E-1	0.00000000E+0
21	12/06/2023	16:37:58.361	0.00000000E+0	-1.44356259E+3	5.00000000E+0	5.29398706E-1	0.00000000E+0
22	12/06/2023	16:38:00.059	0.00000000E+0	-1.43727941E+3	5.00000000E+0	3.20346750E-1	0.00000000E+0
23	12/06/2023	16:38:01.856	0.00000000E+0	-1.43099622E+3	5.00000000E+0	3.54948264E-1	0.00000000E+0
24	12/06/2023	16:38:03.691	0.00000000E+0	-1.42471304E+3	5.00000000E+0	3.26566860E-1	0.00000000E+0
25	12/06/2023	16:38:05.779	0.00000000E+0	-1.41842985E+3	5.00000000E+0	4.13877857E-1	0.00000000E+0
26	12/06/2023	16:38:07.666	0.00000000E+0	-1.41214666E+3	5.00000000E+0	3.12151542E-1	0.00000000E+0
27	12/06/2023	16:38:09.561	0.00000000E+0	-1.40586348E+3	5.00000000E+0	3.96477205E-1	0.00000000E+0
28	12/06/2023	16:38:11.564	0.00000000E+0	-1.39958029E+3	5.00000000E+0	4.97863716E-1	0.00000000E+0
29	12/06/2023	16:38:13.470	0.00000000E+0	-1.39329711E+3	5.00000000E+0	6.14442570E-1	0.00000000E+0
30	12/06/2023	16:38:15.404	0.00000000E+0	-1.38701392E+3	5.00000000E+0	5.02903335E-1	0.00000000E+0
31	12/06/2023	16:38:17.395	0.00000000E+0	-1.38073074E+3	5.00000000E+0	3.26946510E-1	0.00000000E+0
32	12/06/2023	16:38:19.147	0.00000000E+0	-1.37444755E+3	5.00000000E+0	3.23700979E-1	0.00000000E+0
33	12/06/2023	16:38:21.043	0.00000000E+0	-1.36816437E+3	5.00000000E+0	5.06442853E-1	0.00000000E+0
34	12/06/2023	16:38:22.783	0.00000000E+0	-1.36188118E+3	5.00000000E+0	6.16649825E-1	0.00000000E+0
35	12/06/2023	16:38:24.721	0.00000000E+0	-1.35559800E+3	5.00000000E+0	3.96930718E-1	0.00000000E+0
36	12/06/2023	16:38:26.726	0.00000000E+0	-1.34931481E+3	5.00000000E+0	4.55793452E-1	0.00000000E+0
37	12/06/2023	16:38:28.736	0.00000000E+0	-1.34303163E+3	5.00000000E+0	4.98871292E-1	0.00000000E+0
38	12/06/2023	16:38:30.693	0.00000000E+0	-1.33674844E+3	5.00000000E+0	3.83529655E-1	0.00000000E+0
39	12/06/2023	16:38:32.577	0.00000000E+0	-1.33046526E+3	5.00000000E+0	3.35969256E-1	0.00000000E+0
40	12/06/2023	16:38:34.487	0.00000000E+0	-1.32418207E+3	5.00000000E+0	3.05547662E-1	0.00000000E+0
41	12/06/2023	16:38:36.593	0.00000000E+0	-1.31789889E+3	5.00000000E+0	3.60381864E-1	0.00000000E+0
42	12/06/2023	16:38:38.448	0.00000000E+0	-1.31161570E+3	5.00000000E+0	3.69960717E-1	0.00000000E+0
43	12/06/2023	16:38:40.232	0.00000000E+0	-1.30533251E+3	5.00000000E+0	3.32373832E-1	0.00000000E+0
44	12/06/2023	16:38:42.364	0.00000000E+0	-1.29904933E+3	5.00000000E+0	4.61158603E-1	0.00000000E+0
45	12/06/2023	16:38:44.119	0.00000000E+0	-1.29276614E+3	5.00000000E+0	6.53708168E-1	0.00000000E+0
46	12/06/2023	16:38:45.951	0.00000000E+0	-1.28648296E+3	5.00000000E+0	5.17731690E-1	0.00000000E+0
47	12/06/2023	16:38:47.873	0.00000000E+0	-1.28019977E+3	5.00000000E+0	5.86533081E-1	0.00000000E+0
48	12/06/2023	16:38:49.805	0.00000000E+0	-1.27391659E+3	5.00000000E+0	5.63645992E-1	0.00000000E+0
49	12/06/2023	16:38:51.894	0.00000000E+0	-1.26763340E+3	5.00000000E+0	6.71427352E-1	0.00000000E+0
50	12/06/2023	16:38:53.774	0.00000000E+0	-1.26135022E+3	5.00000000E+0	4.48046787E-1	0.00000000E+0
51	12/06/2023	16:38:55.752	0.00000000E+0	-1.25506703E+3	5.00000000E+0	6.35072721E-1	0.00000000E+0
52	12/06/2023	16:38:57.651	0.00000000E+0	-1.24878385E+3	5.00000000E+0	5.16388257E-1	0.00000000E+0
53	12/06/2023	16:38:59.585	0.00000000E+0	-1.24250066E+3	5.00000000E+0	3.96595668E-1	0.00000000E+0
54	12/06/2023	16:39:01.592	0.00000000E+0	-1.23621748E+3	5.00000000E+0	3.66072014E-1	0.00000000E+0
55	12/06/2023	16:39:03.355	0.00000000E+0	-1.22993429E+3	5.00000000E+0	6.52147879E-1	0.00000000E+0
56	12/06/2023	16:39:05.345	0.00000000E+0	-1.22365111E+3	5.00000000E+0	3.32251945E-1	0.00000000E+0
57	12/06/2023	16:39:07.208	0.00000000E+0	-1.21736792E+3	5.00000000E+0	3.50823349E-1	0.00000000E+0
58	12/06/2023	16:39:09.104	0.00000000E+0	-1.21108473E+3	5.00000000E+0	3.76081894E-1	0.00000000E+0
59	12/06/2023	16:39:11.091	0.00000000E+0	-1.20480155E+3	5.00000000E+0	4.14307661E-1	0.00000000E+0
60	12/06/2023	16:39:12.958	0.00000000E+0	-1.19851836E+3	5.00000000E+0	4.86062232E-1	0.00000000E+0
61	12/06/2023	16:39:14.891	0.00000000E+0	-1.19223518E+3	5.00000000E+0	4.77371632E-1	0.00000000E+0
62	12/06/2023	16:39:16.888	0.00000000E+0	-1.18595199E+3	5.00000000E+0	6.39530957E-1	0.00000000E+0
63	12/06/2023	16:39:18.780	0.00000000E+0	-1.17966881E+3	5.00000000E+0	3.18309293E-1	0.00000000E+0
64	12/06/2023	16:39:20.665	0.00000000E+0	-1.17338562E+3	5.00000000E+0	3.20610800E-1	0.00000000E+0
65	12/06/2023	16:39:22.569	0.00000000E+0	-1.16710244E+3	5.00000000E+0	3.16541222E-1	0.00000000E+0
66	12/06/2023	16:39:24.436	0.00000000E+0	-1.16081925E+3	5.00000000E+0	6.36174154E-1	0.00000000E+0
67	12/06/2023	16:39:26.310	0.00000000E+0	-1.15453607E+3	5.00000000E+0	3.60747529E-1	0.00000000E+0
68	12/06/2023	16:39:28.093	0.00000000E+0	-1.14825288E+3	5.00000000E+0	2.96362288E-1	0.00000000E+0
69	12/06/2023	16:39:29.800	0.00000000E+0	-1.14196970E+3	5.00000000E+0	3.31136214E-1	0.00000000E+0
70	12/06/2023	16:39:31.670	0.00000000E+0	-1.13568651E+3	5.00000000E+0	5.37533281E-1	0.00000000E+0
71	12/06/2023	16:39:33.493	0.00000000E+0	-1.12940333E+3	5.00000000E+0	6.39895631E-1	0.00000000E+0
72	12/06/2023	16:39:35.424	0.00000000E+0	-1.12312014E+3	5.00000000E+0	3.98896194E-1	0.00000000E+0
73	12/06/2023	16:39:37.289	0.00000000E+0	-1.11683696E+3	5.00000000E+0	3.50413449E-1	0.00000000E+0
74	12/06/2023	16:39:39.205	0.00000000E+0	-1.11055377E+3	5.00000000E+0	3.96985857E-1	0.00000000E+0
75	12/06/2023	16:39:41.191	0.00000000E+0	-1.10427058E+3	5.00000000E+0	4.21258573E-1	0.00000000E+0
76	12/06/2023	16:39:43.002	0.00000000E+0	-1.09798740E+3	5.00000000E+0	5.59182448E-1	0.00000000E+0
77	12/06/2023	16:39:44.835	0.00000000E+0	-1.09170421E+3	5.00000000E+0	4.84117491E-1	0.00000000E+0
78	12/06/2023	16:39:46.729	0.00000000E+0	-1.08542103E+3	5.00000000E+0	5.68498710E-1	0.00000000E+0
79	12/06/2023	16:39:48.466	0.00000000E+0	-1.07913784E+3	5.00000000E+0	6.34840879E-1	0.00000000E+0
80	12/06/2023	16:39:50.410	0.00000000E+0	-1.07285466E+3	5.00000000E+0	6.44530413E-1	0.00000000E+0
81	12/06/2023	16:39:52.247	0.00000000E+0	-1.06657147E+3	5.00000000E+0	6.52763185E-1	0.00000000E+0
82	12/06/2023	16:39:53.895	0.00000000E+0	-1.06028829E+3	5.00000000E+0	3.22365373E-1	0.00000000E+0
83	12/06/2023	16:39:55.821	0.00000000E+0	-1.05400510E+3	5.00000000E+0	3.49187561E-1	0.00000000E+0
84	12/06/2023	16:39:57.679	0.00000000E+0	-1.04772192E+3	5.00000000E+0	5.25161088E-1	0.00000000E+0
85	12/06/2023	16:39:59.619	0.00000000E+0	-1.04143873E+3	5.00000000E+0	3.98145032E-1	0.00000000E+0
86	12/06/2023	16:40:01.460	0.00000000E+0	-1.03515555E+3	5.00000000E+0	3.77927713E-1	0.00000000E+0
87	12/06/2023	16:40:03.253	0.00000000E+0	-1.02887236E+3	5.00000000E+0	4.17560677E-1	0.00000000E+0
88	12/06/2023	16:40:05.123	0.00000000E+0	-1.02258918E+3	5.00000000E+0	4.32421745E-1	0.00000000E+0
89	12/06/2023	16:40:07.030	0.00000000E+0	-1.01630599E+3	5.00000000E+0	4.23708263E-1	0.00000000E+0
90	12/06/2023	16:40:08.930	0.00000000E+0	-1.01002281E+3	5.00000000E+0	4.07942728E-1	0.00000000E+0
91	12/06/2023	16:40:10.837	0.00000000E+0	-1.00373962E+3	5.00000000E+0	4.80316602E-1	0.00000000E+0
92	12/06/2023	16:40:12.676	0.00000000E+0	-9.97456435E+2	5.00000000E+0	5.36400397E-1	0.00000000E+0
93	12/06/2023	16:40:14.665	0.00000000E+0	-9.91173249E+2	5.00000000E+0	4.87575252E-1	0.00000000E+0
94	12/06/2023	16:40:16.349	0.00000000E+0	-9.84890064E+2	5.00000000E+0	4.82144092E-1	0.00000000E+0
95	12/06/2023	16:40:18.158	0.00000000E+0	-9.78606879E+2	5.00000000E+0	4.51986446E-1	0.00000000E+0
96	12/06/2023	16:40:20.116	0.00000000E+0	-9.72323693E+2	5.00000000E+0	5.18397978E-1	0.00000000E+0
97	12/06/2023	16:40:21.951	0.00000000E+0	-9.66040508E+2	5.00000000E+0	5.08019423E-1	0.00000000E+0
98	12/06/2023	16:40:23.786	0.00000000E+0	-9.59757323E+2	5.00000000E+0	5.74889310E-1	0.00000000E+0
99	12/06/2023	16:40:25.755	0.00000000E+0	-9.53474137E+2	5.00000000E+0	4.95403617E-1	0.00000000E+0
100	12/06/2023	16:40:27.619	0.00000000E+0	-9.47190952E+2	5.00000000E+0	5.66536807E-1	0.00000000E+0
101	12/06/2023	16:40:29.564	0.00000000E+0	-9.40907767E+2	5.00000000E+0	5.92297605E-1	0.00000000E+0
102	12/06/2023	16:40:31.389	0.00000000E+0	-9.34624581E+2	5.00000000E+0	5.43728330E-1	0.00000000E+0
103	12/06/2023	16:40:33.234	0.00000000E+0	-9.28341396E+2	5.00000000E+0	5.76076323E-1	0.00000000E+0
104	12/06/2023	16:40:35.078	0.00000000E+0	-9.22058211E+2	5.00000000E+0	6.75332898E-1	0.00000000E+0
105	12/06/2023	16:40:36.862	0.00000000E+0	-9.15775026E+2	5.00000000E+0	6.37277452E-1	0.00000000E+0
106	12/06/2023	16:40:38.666	0.00000000E+0	-9.09491840E+2	5.00000000E+0	6.13330040E-1	0.00000000E+0
107	12/06/2023	16:40:40.546	0.00000000E+0	-9.03208655E+2	5.00000000E+0	6.58884410E-1	0.00000000E+0
108	12/06/2023	16:40:42.394	0.00000000E+0	-8.96925470E+2	5.00000000E+0	6.95071857E-1	0.00000000E+0
109	12/06/2023	16:40:44.339	0.00000000E+0	-8.90642284E+2	5.00000000E+0	6.72060014E-1	0.00000000E+0
110	12/06/2023	16:40:46.213	0.00000000E+0	-8.84359099E+2	5.00000000E+0	3.72501354E-1	0.00000000E+0
111	12/06/2023	16:40:48.003	0.00000000E+0	-8.78075914E+2	5.00000000E+0	3.95535533E-1	0.00000000E+0
112	12/06/2023	16:40:49.831	0.00000000E+0	-8.71792728E+2	5.00000000E+0	3.11964830E-1	0.00000000E+0
113	12/06/2023	16:40:51.663	0.00000000E+0	-8.65509543E+2	5.00000000E+0	3.15727982E-1	0.00000000E+0
114	12/06/2023	16:40:53.630	0.00000000E+0	-8.59226358E+2	5.00000000E+0	4.50074680E-1	0.00000000E+0
115	12/06/2023	16:40:55.485	0.00000000E+0	-8.52943172E+2	5.00000000E+0	3.37600550E-1	0.00000000E+0
116	12/06/2023	16:40:57.232	0.00000000E+0	-8.46659987E+2	5.00000000E+0	3.60534570E-1	0.00000000E+0
117	12/06/2023	16:40:59.202	0.00000000E+0	-8.40376802E+2	5.00000000E+0	3.31503844E-1	0.00000000E+0
118	12/06/2023	16:41:01.005	0.00000000E+0	-8.34093617E+2	5.00000000E+0	4.26906020E-1	0.00000000E+0
119	12/06/2023	16:41:02.912	0.00000000E+0	-8.27810431E+2	5.00000000E+0	2.97677570E-1	0.00000000E+0
120	12/06/2023	16:41:04.781	0.00000000E+0	-8.21527246E+2	5.00000000E+0	4.52553360E-1	0.00000000E+0
121	12/06/2023	16:41:06.674	0.00000000E+0	-8.15244061E+2	5.00000000E+0	4.25479416E-1	0.00000000E+0
122	12/06/2023	16:41:08.509	0.00000000E+0	-8.08960875E+2	5.00000000E+0	4.75492381E-1	0.00000000E+0
123	12/06/2023	16:41:10.384	0.00000000E+0	-8.02677690E+2	5.00000000E+0	5.03727321E-1	0.00000000E+0
124	12/06/2023	16:41:12.175	0.00000000E+0	-7.96394505E+2	5.00000000E+0	4.23651421E-1	0.00000000E+0
125	12/06/2023	16:41:14.093	0.00000000E+0	-7.90111319E+2	5.00000000E+0	3.88948910E-1	0.00000000E+0
126	12/06/2023	16:41:15.963	0.00000000E+0	-7.83828134E+2	5.00000000E+0	4.66685292E-1	0.00000000E+0
127	12/06/2023	16:41:17.937	0.00000000E+0	-7.77544949E+2	5.00000000E+0	6.47079446E-1	0.00000000E+0
128	12/06/2023	16:41:19.686	0.00000000E+0	-7.71261763E+2	5.00000000E+0	5.01751487E-1	0.00000000E+0
129	12/06/2023	16:41:21.474	0.00000000E+0	-7.64978578E+2	5.00000000E+0	6.88665945E-1	0.00000000E+0
130	12/06/2023	16:41:23.282	0.00000000E+0	-7.58695393E+2	5.00000000E+0	3.45195967E-1	0.00000000E+0
131	12/06/2023	16:41:25.128	0.00000000E+0	-7.52412208E+2	5.00000000E+0	3.26278888E-1	0.00000000E+0
132	12/06/2023	16:41:26.950	0.00000000E+0	-7.46129022E+2	5.00000000E+0	6.28769786E-1	0.00000000E+0
133	12/06/2023	16:41:28.754	0.00000000E+0	-7.39845837E+2	5.00000000E+0	5.58669485E-1	0.00000000E+0
134	12/06/2023	16:41:30.591	0.00000000E+0	-7.33562652E+2	5.00000000E+0	6.09223172E-1	0.00000000E+0
135	12/06/2023	16:41:32.489	0.00000000E+0	-7.27279466E+2	5.00000000E+0	3.16274425E-1	0.00000000E+0
136	12/06/2023	16:41:34.306	0.00000000E+0	-7.20996281E+2	5.00000000E+0	3.24427173E-1	0.00000000E+0
137	12/06/2023	16:41:36.108	0.00000000E+0	-7.14713096E+2	5.00000000E+0	5.82477417E-1	0.00000000E+0
138	12/06/2023	16:41:38.184	0.00000000E+0	-7.08429910E+2	5.00000000E+0	5.68694926E-1	0.00000000E+0
139	12/06/2023	16:41:40.004	0.00000000E+0	-7.02146725E+2	5.00000000E+0	6.46091354E-1	0.00000000E+0
140	12/06/2023	16:41:41.763	0.00000000E+0	-6.95863540E+2	5.00000000E+0	4.37800851E-1	0.00000000E+0
141	12/06/2023	16:41:43.505	0.00000000E+0	-6.89580354E+2	5.00000000E+0	3.65842162E-1	0.00000000E+0
142	12/06/2023	16:41:45.241	0.00000000E+0	-6.83297169E+2	5.00000000E+0	5.39476572E-1	0.00000000E+0
143	12/06/2023	16:41:47.057	0.00000000E+0	-6.77013984E+2	5.00000000E+0	3.09221650E-1	0.00000000E+0
144	12/06/2023	16:41:48.892	0.00000000E+0	-6.70730799E+2	5.00000000E+0	5.53937597E-1	0.00000000E+0
145	12/06/2023	16:41:50.723	0.00000000E+0	-6.64447613E+2	5.00000000E+0	6.42923581E-1	0.00000000E+0
146	12/06/2023	16:41:52.617	0.00000000E+0	-6.58164428E+2	5.00000000E+0	3.36563197E-1	0.00000000E+0
147	12/06/2023	16:41:54.419	0.00000000E+0	-6.51881243E+2	5.00000000E+0	4.31872202E-1	0.00000000E+0
148	12/06/2023	16:41:56.312	0.00000000E+0	-6.45598057E+2	5.00000000E+0	5.38747645E-1	0.00000000E+0
149	12/06/2023	16:41:58.166	0.00000000E+0	-6.39314872E+2	5.00000000E+0	4.78712346E-1	0.00000000E+0
150	12/06/2023	16:42:00.019	0.00000000E+0	-6.33031687E+2	5.00000000E+0	4.11154442E-1	0.00000000E+0
151	12/06/2023	16:42:01.858	0.00000000E+0	-6.26748501E+2	5.00000000E+0	6.40765333E-1	0.00000000E+0
152	12/06/2023	16:42:03.600	0.00000000E+0	-6.20465316E+2	5.00000000E+0	6.59184171E-1	0.00000000E+0
153	12/06/2023	16:42:05.347	0.00000000E+0	-6.14182131E+2	5.00000000E+0	3.14388084E-1	0.00000000E+0
154	12/06/2023	16:42:07.130	0.00000000E+0	-6.07898945E+2	5.00000000E+0	4.90974877E-1	0.00000000E+0
155	12/06/2023	16:42:08.846	0.00000000E+0	-6.01615760E+2	5.00000000E+0	3.48450828E-1	0.00000000E+0
156	12/06/2023	16:42:10.779	0.00000000E+0	-5.95332575E+2	5.00000000E+0	3.15509169E-1	0.00000000E+0
157	12/06/2023	16:42:12.544	0.00000000E+0	-5.89049390E+2	5.00000000E+0	3.94381870E-1	0.00000000E+0
158	12/06/2023	16:42:14.392	0.00000000E+0	-5.82766204E+2	5.00000000E+0	6.25424428E-1	0.00000000E+0
159	12/06/2023	16:42:16.294	0.00000000E+0	-5.76483019E+2	5.00000000E+0	3.90260495E-1	0.00000000E+0
160	12/06/2023	16:42:18.115	0.00000000E+0	-5.70199834E+2	5.00000000E+0	5.78081807E-1	0.00000000E+0
161	12/06/2023	16:42:20.016	0.00000000E+0	-5.63916648E+2	5.00000000E+0	3.10305384E-1	0.00000000E+0
162	12/06/2023	16:42:21.859	0.00000000E+0	-5.57633463E+2	5.00000000E+0	6.53058131E-1	0.00000000E+0
163	12/06/2023	16:42:23.729	0.00000000E+0	-5.51350278E+2	5.00000000E+0	6.50999382E-1	0.00000000E+0
164	12/06/2023	16:42:25.563	0.00000000E+0	-5.45067092E+2	5.00000000E+0	4.02253666E-1	0.00000000E+0
165	12/06/2023	16:42:27.326	0.00000000E+0	-5.38783907E+2	5.00000000E+0	6.53217406E-1	0.00000000E+0
166	12/06/2023	16:42:28.999	0.00000000E+0	-5.32500722E+2	5.00000000E+0	6.38742148E-1	0.00000000E+0
167	12/06/2023	16:42:30.840	0.00000000E+0	-5.26217536E+2	5.00000000E+0	4.35895554E-1	0.00000000E+0
168	12/06/2023	16:42:32.669	0.00000000E+0	-5.19934351E+2	5.00000000E+0	6.05119199E-1	0.00000000E+0
169	12/06/2023	16:42:34.616	0.00000000E+0	-5.13651166E+2	5.00000000E+0	4.05858658E-1	0.00000000E+0
170	12/06/2023	16:42:36.408	0.00000000E+0	-5.07367981E+2	5.00000000E+0	4.35678968E-1	0.00000000E+0
171	12/06/2023	16:42:38.220	0.00000000E+0	-5.01084795E+2	5.00000000E+0	3.25015375E-1	0.00000000E+0
172	12/06/2023	16:42:40.167	0.00000000E+0	-4.94801610E+2	5.00000000E+0	3.83222893E-1	0.00000000E+0
173	12/06/2023	16:42:41.997	0.00000000E+0	-4.88518425E+2	5.00000000E+0	6.04859168E-1	0.00000000E+0
174	12/06/2023	16:42:43.832	0.00000000E+0	-4.82235239E+2	5.00000000E+0	3.00751937E-1	0.00000000E+0
175	12/06/2023	16:42:45.652	0.00000000E+0	-4.75952054E+2	5.00000000E+0	4.09232276E-1	0.00000000E+0
176	12/06/2023	16:42:47.407	0.00000000E+0	-4.69668869E+2	5.00000000E+0	6.00954467E-1	0.00000000E+0
177	12/06/2023	16:42:49.345	0.00000000E+0	-4.63385683E+2	5.00000000E+0	2.83740206E-1	0.00000000E+0
178	12/06/2023	16:42:51.096	0.00000000E+0	-4.57102498E+2	5.00000000E+0	5.95014723E-1	0.00000000E+0
179	12/06/2023	16:42:52.832	0.00000000E+0	-4.50819313E+2	5.00000000E+0	4.52503914E-1	0.00000000E+0
180	12/06/2023	16:42:54.865	0.00000000E+0	-4.44536127E+2	5.00000000E+0	5.47766364E-1	0.00000000E+0
181	12/06/2023	16:42:56.691	0.00000000E+0	-4.38252942E+2	5.00000000E+0	6.26520744E-1	0.00000000E+0
182	12/06/2023	16:42:58.589	0.00000000E+0	-4.31969757E+2	5.00000000E+0	5.45239115E-1	0.00000000E+0
183	12/06/2023	16:43:00.423	0.00000000E+0	-4.25686572E+2	5.00000000E+0	3.27442010E-1	0.00000000E+0
184	12/06/2023	16:43:02.233	0.00000000E+0	-4.19403386E+2	5.00000000E+0	4.59510376E-1	0.00000000E+0
185	12/06/2023	16:43:04.146	0.00000000E+0	-4.13120201E+2	5.00000000E+0	6.30972163E-1	0.00000000E+0
186	12/06/2023	16:43:06.042	0.00000000E+0	-4.06837016E+2	5.00000000E+0	5.04275765E-1	0.00000000E+0
187	12/06/2023	16:43:07.915	0.00000000E+0	-4.00553830E+2	5.00000000E+0	6.20059667E-1	0.00000000E+0
188	12/06/2023	16:43:09.824	0.00000000E+0	-3.94270645E+2	5.00000000E+0	3.27006869E-1	0.00000000E+0
189	12/06/2023	16:43:11.591	0.00000000E+0	-3.87987460E+2	5.00000000E+0	6.19331702E-1	0.00000000E+0
190	12/06/2023	16:43:13.402	0.00000000E+0	-3.81704274E+2	5.00000000E+0	3.06476403E-1	0.00000000E+0
191	12/06/2023	16:43:15.086	0.00000000E+0	-3.75421089E+2	5.00000000E+0	4.17702646E-1	0.00000000E+0
192	12/06/2023	16:43:16.895	0.00000000E+0	-3.69137904E+2	5.00000000E+0	4.36270676E-1	0.00000000E+0
193	12/06/2023	16:43:18.835	0.00000000E+0	-3.62854718E+2	5.00000000E+0	5.79663046E-1	0.00000000E+0
194	12/06/2023	16:43:20.721	0.00000000E+0	-3.56571533E+2	5.00000000E+0	6.38820184E-1	0.00000000E+0
195	12/06/2023	16:43:22.616	0.00000000E+0	-3.50288348E+2	5.00000000E+0	6.28999788E-1	0.00000000E+0
196	12/06/2023	16:43:24.440	0.00000000E+0	-3.44005163E+2	5.00000000E+0	6.69233117E-1	0.00000000E+0
197	12/06/2023	16:43:26.307	0.00000000E+0	-3.37721977E+2	5.00000000E+0	3.04795126E-1	0.00000000E+0
198	12/06/2023	16:43:28.154	0.00000000E+0	-3.31438792E+2	5.00000000E+0	5.07478462E-1	0.00000000E+0
199	12/06/2023	16:43:29.903	0.00000000E+0	-3.25155607E+2	5.00000000E+0	6.37949941E-1	0.00000000E+0
200	12/06/2023	16:43:31.714	0.00000000E+0	-3.18872421E+2	5.00000000E+0	6.29312324E-1	0.00000000E+0
201	12/06/2023	16:43:33.550	0.00000000E+0	-3.12589236E+2	5.00000000E+0	6.30833565E-1	0.00000000E+0
202	12/06/2023	16:43:35.237	0.00000000E+0	-3.06306051E+2	5.00000000E+0	3.06205401E-1	0.00000000E+0
203	12/06/2023	16:43:37.008	0.00000000E+0	-3.00022865E+2	5.00000000E+0	3.61909907E-1	0.00000000E+0
204	12/06/2023	16:43:38.804	0.00000000E+0	-2.93739680E+2	5.00000000E+0	6.65906921E-1	0.00000000E+0
205	12/06/2023	16:43:40.695	0.00000000E+0	-2.87456495E+2	5.00000000E+0	5.55423362E-1	0.00000000E+0
206	12/06/2023	16:43:42.601	0.00000000E+0	-2.81173309E+2	5.00000000E+0	5.95930952E-1	0.00000000E+0
207	12/06/2023	16:43:44.566	0.00000000E+0	-2.74890124E+2	5.00000000E+0	6.80770330E-1	0.00000000E+0
208	12/06/2023	16:43:46.723	0.00000000E+0	-2.68606939E+2	5.00000000E+0	3.56217363E-1	0.00000000E+0
209	12/06/2023	16:43:48.637	0.00000000E+0	-2.62323754E+2	5.00000000E+0	3.17636691E-1	0.00000000E+0
210	12/06/2023	16:43:50.442	0.00000000E+0	-2.56040568E+2	5.00000000E+0	3.83820894E-1	0.00000000E+0
211	12/06/2023	16:43:52.301	0.00000000E+0	-2.49757383E+2	5.00000000E+0	3.07258924E-1	0.00000000E+0
212	12/06/2023	16:43:54.048	0.00000000E+0	-2.43474198E+2	5.00000000E+0	2.99352307E-1	0.00000000E+0
213	12/06/2023	16:43:55.852	0.00000000E+0	-2.37191012E+2	5.00000000E+0	3.35692381E-1	0.00000000E+0
214	12/06/2023	16:43:57.705	0.00000000E+0	-2.30907827E+2	5.00000000E+0	6.36699849E-1	0.00000000E+0
215	12/06/2023	16:43:59.438	0.00000000E+0	-2.24624642E+2	5.00000000E+0	4.80950018E-1	0.00000000E+0
216	12/06/2023	16:44:01.398	0.00000000E+0	-2.18341456E+2	5.00000000E+0	2.99677351E-1	0.00000000E+0
217	12/06/2023	16:44:03.324	0.00000000E+0	-2.12058271E+2	5.00000000E+0	4.37491914E-1	0.00000000E+0
218	12/06/2023	16:44:05.331	0.00000000E+0	-2.05775086E+2	5.00000000E+0	5.04082243E-1	0.00000000E+0
219	12/06/2023	16:44:07.381	0.00000000E+0	-1.99491900E+2	5.00000000E+0	5.42685726E-1	0.00000000E+0
220	12/06/2023	16:44:09.280	0.00000000E+0	-1.93208715E+2	5.00000000E+0	6.07087258E-1	0.00000000E+0
221	12/06/2023	16:44:11.185	0.00000000E+0	-1.86925530E+2	5.00000000E+0	6.49389408E-1	0.00000000E+0
222	12/06/2023	16:44:13.089	0.00000000E+0	-1.80642345E+2	5.00000000E+0	3.12573901E-1	0.00000000E+0
223	12/06/2023	16:44:15.022	0.00000000E+0	-1.74359159E+2	5.00000000E+0	5.75188588E-1	0.00000000E+0
224	12/06/2023	16:44:16.982	0.00000000E+0	-1.68075974E+2	5.00000000E+0	6.30840546E-1	0.00000000E+0
225	12/06/2023	16:44:18.800	0.00000000E+0	-1.61792789E+2	5.00000000E+0	3.01099689E-1	0.00000000E+0
226	12/06/2023	16:44:20.549	0.00000000E+0	-1.55509603E+2	5.00000000E+0	5.78461605E-1	0.00000000E+0
227	12/06/2023	16:44:22.436	0.00000000E+0	-1.49226418E+2	5.00000000E+0	4.35590473E-1	0.00000000E+0
228	12/06/2023	16:44:24.383	0.00000000E+0	-1.42943233E+2	5.00000000E+0	3.22597785E-1	0.00000000E+0
229	12/06/2023	16:44:26.297	0.00000000E+0	-1.36660047E+2	5.00000000E+0	6.33814649E-1	0.00000000E+0
230	12/06/2023	16:44:28.265	0.00000000E+0	-1.30376862E+2	5.00000000E+0	4.38789280E-1	0.00000000E+0
231	12/06/2023	16:44:30.192	0.00000000E+0	-1.24093677E+2	5.00000000E+0	6.68786692E-1	0.00000000E+0
232	12/06/2023	16:44:32.276	0.00000000E+0	-1.17810492E+2	5.00000000E+0	6.20249442E-1	0.00000000E+0
233	12/06/2023	16:44:34.153	0.00000000E+0	-1.11527306E+2	5.00000000E+0	6.39563009E-1	0.00000000E+0
234	12/06/2023	16:44:36.051	0.00000000E+0	-1.05244121E+2	5.00000000E+0	5.06668410E-1	0.00000000E+0
235	12/06/2023	16:44:37.983	0.00000000E+0	-9.89609356E+1	5.00000000E+0	5.81131966E-1	0.00000000E+0
236	12/06/2023	16:44:39.970	0.00000000E+0	-9.26777503E+1	5.00000000E+0	2.79798883E-1	0.00000000E+0
237	12/06/2023	16:44:41.822	0.00000000E+0	-8.63945650E+1	5.00000000E+0	4.60400326E-1	0.00000000E+0
238	12/06/2023	16:44:43.633	0.00000000E+0	-8.01113797E+1	5.00000000E+0	3.23969440E-1	0.00000000E+0
239	12/06/2023	16:44:45.474	0.00000000E+0	-7.38281943E+1	5.00000000E+0	5.61264344E-1	0.00000000E+0
240	12/06/2023	16:44:47.441	0.00000000E+0	-6.75450090E+1	5.00000000E+0	5.34449217E-1	0.00000000E+0
241	12/06/2023	16:44:49.359	0.00000000E+0	-6.12618237E+1	5.00000000E+0	3.86433978E-1	0.00000000E+0
242	12/06/2023	16:44:51.363	0.00000000E+0	-5.49786384E+1	5.00000000E+0	4.52420079E-1	0.00000000E+0
243	12/06/2023	16:44:53.290	0.00000000E+0	-4.86954531E+1	5.00000000E+0	4.69470761E-1	0.00000000E+0
244	12/06/2023	16:44:55.209	0.00000000E+0	-4.24122678E+1	5.00000000E+0	4.34076823E-1	0.00000000E+0
245	12/06/2023	16:44:57.161	0.00000000E+0	-3.61290825E+1	5.00000000E+0	3.52643024E-1	0.00000000E+0
246	12/06/2023	16:44:59.062	0.00000000E+0	-2.98458972E+1	5.00000000E+0	2.92262194E-1	0.00000000E+0
247	12/06/2023	16:45:01.044	0.00000000E+0	-2.35627119E+1	5.00000000E+0	6.05218368E-1	0.00000000E+0
248	12/06/2023	16:45:03.021	0.00000000E+0	-1.72795266E+1	5.00000000E+0	5.71024256E-1	0.00000000E+0
249	12/06/2023	16:45:04.908	0.00000000E+0	-1.09963413E+1	5.00000000E+0	6.36335362E-1	0.00000000E+0
250	12/06/2023	16:45:06.811	0.00000000E+0	-4.71315597E+0	5.00000000E+0	5.12153171E-1	0.00000000E+0
251	12/06/2023	16:45:08.577	0.00000000E+0	1.57002934E+0	5.00000000E+0	4.25249048E-1	0.00000000E+0
252	12/06/2023	16:45:10.508	0.00000000E+0	7.85321464E+0	5.00000000E+0	5.61884020E-1	0.00000000E+0
253	12/06/2023	16:45:12.490	0.00000000E+0	1.41364000E+1	5.00000000E+0	3.16390864E-1	0.00000000E+0
254	12/06/2023	16:45:14.452	0.00000000E+0	2.04195853E+1	5.00000000E+0	3.48806127E-1	0.00000000E+0
255	12/06/2023	16:45:16.366	0.00000000E+0	2.67027706E+1	5.00000000E+0	3.65243191E-1	0.00000000E+0
256	12/06/2023	16:45:18.369	0.00000000E+0	3.29859559E+1	5.00000000E+0	6.73096320E-1	0.00000000E+0
257	12/06/2023	16:45:20.290	0.00000000E+0	3.92691412E+1	5.00000000E+0	6.09140209E-1	0.00000000E+0
258	12/06/2023	16:45:22.231	0.00000000E+0	4.55523265E+1	5.00000000E+0	3.34383359E-1	0.00000000E+0
259	12/06/2023	16:45:24.207	0.00000000E+0	5.18355118E+1	5.00000000E+0	3.40470017E-1	0.00000000E+0
260	12/06/2023	16:45:25.988	0.00000000E+0	5.81186971E+1	5.00000000E+0	3.71112434E-1	0.00000000E+0
261	12/06/2023	16:45:27.899	0.00000000E+0	6.44018824E+1	5.00000000E+0	3.18998269E-1	0.00000000E+0
262	12/06/2023	16:45:29.647	0.00000000E+0	7.06850677E+1	5.00000000E+0	6.57253064E-1	0.00000000E+0
263	12/06/2023	16:45:31.496	0.00000000E+0	7.69682530E+1	5.00000000E+0	3.63377420E-1	0.00000000E+0
264	12/06/2023	16:45:33.573	0.00000000E+0	8.32514383E+1	5.00000000E+0	3.12453375E-1	0.00000000E+0
265	12/06/2023	16:45:35.478	0.00000000E+0	8.95346236E+1	5.00000000E+0	6.00478857E-1	0.00000000E+0
266	12/06/2023	16:45:37.508	0.00000000E+0	9.58178089E+1	5.00000000E+0	4.21528760E-1	0.00000000E+0
267	12/06/2023	16:45:39.416	0.00000000E+0	1.02100994E+2	5.00000000E+0	5.06229688E-1	0.00000000E+0
268	12/06/2023	16:45:41.363	0.00000000E+0	1.08384180E+2	5.00000000E+0	6.01933311E-1	0.00000000E+0
269	12/06/2023	16:45:43.350	0.00000000E+0	1.14667365E+2	5.00000000E+0	5.82823552E-1	0.00000000E+0
270	12/06/2023	16:45:45.251	0.00000000E+0	1.20950550E+2	5.00000000E+0	4.75337414E-1	0.00000000E+0
271	12/06/2023	16:45:47.270	0.00000000E+0	1.27233735E+2	5.00000000E+0	4.68551716E-1	0.00000000E+0
272	12/06/2023	16:45:49.116	0.00000000E+0	1.33516921E+2	5.00000000E+0	6.62805955E-1	0.00000000E+0
273	12/06/2023	16:45:50.886	0.00000000E+0	1.39800106E+2	5.00000000E+0	6.41708665E-1	0.00000000E+0
274	12/06/2023	16:45:52.790	0.00000000E+0	1.46083291E+2	5.00000000E+0	5.32926388E-1	0.00000000E+0
275	12/06/2023	16:45:54.492	0.00000000E+0	1.52366477E+2	5.00000000E+0	4.59022338E-1	0.00000000E+0
276	12/06/2023	16:45:56.303	0.00000000E+0	1.58649662E+2	5.00000000E+0	6.25987473E-1	0.00000000E+0
277	12/06/2023	16:45:58.238	0.00000000E+0	1.64932847E+2	5.00000000E+0	3.16831946E-1	0.00000000E+0
278	12/06/2023	16:46:00.158	0.00000000E+0	1.71216033E+2	5.00000000E+0	6.52490226E-1	0.00000000E+0
279	12/06/2023	16:46:02.197	0.00000000E+0	1.77499218E+2	5.00000000E+0	3.16779494E-1	0.00000000E+0
280	12/06/2023	16:46:04.098	0.00000000E+0	1.83782403E+2	5.00000000E+0	5.05266981E-1	0.00000000E+0
281	12/06/2023	16:46:06.100	0.00000000E+0	1.90065589E+2	5.00000000E+0	2.89608274E-1	0.00000000E+0
282	12/06/2023	16:46:08.113	0.00000000E+0	1.96348774E+2	5.00000000E+0	3.31254899E-1	0.00000000E+0
283	12/06/2023	16:46:09.960	0.00000000E+0	2.02631959E+2	5.00000000E+0	3.60570656E-1	0.00000000E+0
284	12/06/2023	16:46:11.926	0.00000000E+0	2.08915144E+2	5.00000000E+0	3.28384716E-1	0.00000000E+0
285	12/06/2023	16:46:13.823	0.00000000E+0	2.15198330E+2	5.00000000E+0	3.99800096E-1	0.00000000E+0
286	12/06/2023	16:46:15.630	0.00000000E+0	2.21481515E+2	5.00000000E+0	4.52761855E-1	0.00000000E+0
287	12/06/2023	16:46:17.476	0.00000000E+0	2.27764700E+2	5.00000000E+0	5.41183891E-1	0.00000000E+0
288	12/06/2023	16:46:19.416	0.00000000E+0	2.34047886E+2	5.00000000E+0	4.65135581E-1	0.00000000E+0
289	12/06/2023	16:46:21.311	0.00000000E+0	2.40331071E+2	5.00000000E+0	5.27894873E-1	0.00000000E+0
290	12/06/2023	16:46:23.316	0.00000000E+0	2.46614256E+2	5.00000000E+0	5.55996775E-1	0.00000000E+0
291	12/06/2023	16:46:25.242	0.00000000E+0	2.52897442E+2	5.00000000E+0	4.50522600E-1	0.00000000E+0
292	12/06/2023	16:46:27.250	0.00000000E+0	2.59180627E+2	5.00000000E+0	6.37871052E-1	0.00000000E+0
293	12/06/2023	16:46:29.164	0.00000000E+0	2.65463812E+2	5.00000000E+0	6.53206020E-1	0.00000000E+0
294	12/06/2023	16:46:31.070	0.00000000E+0	2.71746998E+2	5.00000000E+0	5.94621987E-1	0.00000000E+0
295	12/06/2023	16:46:33.114	0.00000000E+0	2.78030183E+2	5.00000000E+0	6.49047618E-1	0.00000000E+0
296	12/06/2023	16:46:34.867	0.00000000E+0	2.84313368E+2	5.00000000E+0	5.92494198E-1	0.00000000E+0
297	12/06/2023	16:46:36.731	0.00000000E+0	2.90596553E+2	5.00000000E+0	6.12650303E-1	0.00000000E+0
298	12/06/2023	16:46:38.619	0.00000000E+0	2.96879739E+2	5.00000000E+0	3.84507247E-1	0.00000000E+0
299	12/06/2023	16:46:40.358	0.00000000E+0	3.03162924E+2	5.00000000E+0	3.78959069E-1	0.00000000E+0
300	12/06/2023	16:46:42.289	0.00000000E+0	3.09446109E+2	5.00000000E+0	3.11371096E-1	0.00000000E+0
301	12/06/2023	16:46:44.213	0.00000000E+0	3.15729295E+2	5.00000000E+0	3.06063679E-1	0.00000000E+0
302	12/06/2023	16:46:46.178	0.00000000E+0	3.22012480E+2	5.00000000E+0	3.91143313E-1	0.00000000E+0
303	12/06/2023	16:46:48.219	0.00000000E+0	3.28295665E+2	5.00000000E+0	4.86618387E-1	0.00000000E+0
304	12/06/2023	16:46:50.144	0.00000000E+0	3.34578851E+2	5.00000000E+0	4.88133337E-1	0.00000000E+0
305	12/06/2023	16:46:52.147	0.00000000E+0	3.40862036E+2	5.00000000E+0	5.29487925E-1	0.00000000E+0
306	12/06/2023	16:46:54.067	0.00000000E+0	3.47145221E+2	5.00000000E+0	4.65939245E-1	0.00000000E+0
307	12/06/2023	16:46:55.995	0.00000000E+0	3.53428407E+2	5.00000000E+0	6.25420430E-1	0.00000000E+0
308	12/06/2023	16:46:57.918	0.00000000E+0	3.59711592E+2	5.00000000E+0	5.86078360E-1	0.00000000E+0
309	12/06/2023	16:46:59.684	0.00000000E+0	3.65994777E+2	5.00000000E+0	4.12414093E-1	0.00000000E+0
310	12/06/2023	16:47:01.492	0.00000000E+0	3.72277962E+2	5.00000000E+0	2.94985363E-1	0.00000000E+0
311	12/06/2023	16:47:03.419	0.00000000E+0	3.78561148E+2	5.00000000E+0	6.62685355E-1	0.00000000E+0
312	12/06/2023	16:47:05.342	0.00000000E+0	3.84844333E+2	5.00000000E+0	4.97908802E-1	0.00000000E+0
313	12/06/2023	16:47:07.358	0.00000000E+0	3.91127518E+2	5.00000000E+0	3.00098032E-1	0.00000000E+0
314	12/06/2023	16:47:09.205	0.00000000E+0	3.97410704E+2	5.00000000E+0	2.84760242E-1	0.00000000E+0
315	12/06/2023	16:47:11.169	0.00000000E+0	4.03693889E+2	5.00000000E+0	3.02678633E-1	0.00000000E+0
316	12/06/2023	16:47:13.257	0.00000000E+0	4.09977074E+2	5.00000000E+0	4.57341994E-1	0.00000000E+0
317	12/06/2023	16:47:15.205	0.00000000E+0	4.16260260E+2	5.00000000E+0	5.20607658E-1	0.00000000E+0
318	12/06/2023	16:47:17.143	0.00000000E+0	4.22543445E+2	5.00000000E+0	3.78974883E-1	0.00000000E+0
319	12/06/2023	16:47:19.130	0.00000000E+0	4.28826630E+2	5.00000000E+0	6.44815568E-1	0.00000000E+0
320	12/06/2023	16:47:21.005	0.00000000E+0	4.35109816E+2	5.00000000E+0	6.66008763E-1	0.00000000E+0
321	12/06/2023	16:47:22.993	0.00000000E+0	4.41393001E+2	5.00000000E+0	4.06828210E-1	0.00000000E+0
322	12/06/2023	16:47:24.800	0.00000000E+0	4.47676186E+2	5.00000000E+0	2.98870723E-1	0.00000000E+0
323	12/06/2023	16:47:26.592	0.00000000E+0	4.53959371E+2	5.00000000E+0	4.06884110E-1	0.00000000E+0
324	12/06/2023	16:47:28.598	0.00000000E+0	4.60242557E+2	5.00000000E+0	5.04626897E-1	0.00000000E+0
325	12/06/2023	16:47:30.514	0.00000000E+0	4.66525742E+2	5.00000000E+0	5.59193349E-1	0.00000000E+0
326	12/06/2023	16:47:32.525	0.00000000E+0	4.72808927E+2	5.00000000E+0	3.47127154E-1	0.00000000E+0
327	12/06/2023	16:47:34.445	0.00000000E+0	4.79092113E+2	5.00000000E+0	3.00164986E-1	0.00000000E+0
328	12/06/2023	16:47:36.369	0.00000000E+0	4.85375298E+2	5.00000000E+0	4.65378490E-1	0.00000000E+0
329	12/06/2023	16:47:38.374	0.00000000E+0	4.91658483E+2	5.00000000E+0	3.50528450E-1	0.00000000E+0
330	12/06/2023	16:47:40.297	0.00000000E+0	4.97941669E+2	5.00000000E+0	6.29450344E-1	0.00000000E+0
331	12/06/2023	16:47:42.060	0.00000000E+0	5.04224854E+2	5.00000000E+0	2.84856004E-1	0.00000000E+0
332	12/06/2023	16:47:44.061	0.00000000E+0	5.10508039E+2	5.00000000E+0	4.88345164E-1	0.00000000E+0
333	12/06/2023	16:47:45.917	0.00000000E+0	5.16791225E+2	5.00000000E+0	3.19075325E-1	0.00000000E+0
334	12/06/2023	16:47:47.834	0.00000000E+0	5.23074410E+2	5.00000000E+0	5.78123988E-1	0.00000000E+0
335	12/06/2023	16:47:49.567	0.00000000E+0	5.29357595E+2	5.00000000E+0	6.00249276E-1	0.00000000E+0
336	12/06/2023	16:47:51.486	0.00000000E+0	5.35640780E+2	5.00000000E+0	3.18050361E-1	0.00000000E+0
337	12/06/2023	16:47:53.492	0.00000000E+0	5.41923966E+2	5.00000000E+0	5.37333138E-1	0.00000000E+0
338	12/06/2023	16:47:55.415	0.00000000E+0	5.48207151E+2	5.00000000E+0	6.54843166E-1	0.00000000E+0
339	12/06/2023	16:47:57.418	0.00000000E+0	5.54490336E+2	5.00000000E+0	5.94843454E-1	0.00000000E+0
340	12/06/2023	16:47:59.339	0.00000000E+0	5.60773522E+2	5.00000000E+0	6.17804438E-1	0.00000000E+0
341	12/06/2023	16:48:01.262	0.00000000E+0	5.67056707E+2	5.00000000E+0	6.62046282E-1	0.00000000E+0
342	12/06/2023	16:48:03.205	0.00000000E+0	5.73339892E+2	5.00000000E+0	5.76333354E-1	0.00000000E+0
343	12/06/2023	16:48:04.969	0.00000000E+0	5.79623078E+2	5.00000000E+0	6.78802091E-1	0.00000000E+0
344	12/06/2023	16:48:06.978	0.00000000E+0	5.85906263E+2	5.00000000E+0	6.28448724E-1	0.00000000E+0
345	12/06/2023	16:48:08.965	0.00000000E+0	5.92189448E+2	5.00000000E+0	6.45557300E-1	0.00000000E+0
346	12/06/2023	16:48:10.799	0.00000000E+0	5.98472634E+2	5.00000000E+0	3.05595764E-1	0.00000000E+0
347	12/06/2023	16:48:12.566	0.00000000E+0	6.04755819E+2	5.00000000E+0	2.94259653E-1	0.00000000E+0
348	12/06/2023	16:48:14.447	0.00000000E+0	6.11039004E+2	5.00000000E+0	3.14459293E-1	0.00000000E+0
349	12/06/2023	16:48:16.308	0.00000000E+0	6.17322189E+2	5.00000000E+0	4.65270774E-1	0.00000000E+0
350	12/06/2023	16:48:18.281	0.00000000E+0	6.23605375E+2	5.00000000E+0	3.11886406E-1	0.00000000E+0
351	12/06/2023	16:48:20.169	0.00000000E+0	6.29888560E+2	5.00000000E+0	4.37370315E-1	0.00000000E+0
352	12/06/2023	16:48:22.075	0.00000000E+0	6.36171745E+2	5.00000000E+0	3.75708905E-1	0.00000000E+0
353	12/06/2023	16:48:23.982	0.00000000E+0	6.42454931E+2	5.00000000E+0	3.02125259E-1	0.00000000E+0
354	12/06/2023	16:48:25.885	0.00000000E+0	6.48738116E+2	5.00000000E+0	3.79795763E-1	0.00000000E+0
355	12/06/2023	16:48:27.926	0.00000000E+0	6.55021301E+2	5.00000000E+0	4.44323382E-1	0.00000000E+0
356	12/06/2023	16:48:29.840	0.00000000E+0	6.61304487E+2	5.00000000E+0	3.57664456E-1	0.00000000E+0
357	12/06/2023	16:48:31.610	0.00000000E+0	6.67587672E+2	5.00000000E+0	4.67623130E-1	0.00000000E+0
358	12/06/2023	16:48:33.560	0.00000000E+0	6.73870857E+2	5.00000000E+0	4.69052779E-1	0.00000000E+0
359	12/06/2023	16:48:35.357	0.00000000E+0	6.80154043E+2	5.00000000E+0	4.73813425E-1	0.00000000E+0
360	12/06/2023	16:48:37.364	0.00000000E+0	6.86437228E+2	5.00000000E+0	4.62827610E-1	0.00000000E+0
361	12/06/2023	16:48:39.200	0.00000000E+0	6.92720413E+2	5.00000000E+0	4.59017082E-1	0.00000000E+0
362	12/06/2023	16:48:41.120	0.00000000E+0	6.99003598E+2	5.00000000E+0	5.11823697E-1	0.00000000E+0
363	12/06/2023	16:48:43.136	0.00000000E+0	7.05286784E+2	5.00000000E+0	4.67951846E-1	0.00000000E+0
364	12/06/2023	16:48:45.128	0.00000000E+0	7.11569969E+2	5.00000000E+0	4.54071972E-1	0.00000000E+0
365	12/06/2023	16:48:47.032	0.00000000E+0	7.17853154E+2	5.00000000E+0	4.81890241E-1	0.00000000E+0
366	12/06/2023	16:48:49.043	0.00000000E+0	7.24136340E+2	5.00000000E+0	4.60231814E-1	0.00000000E+0
367	12/06/2023	16:48:50.825	0.00000000E+0	7.30419525E+2	5.00000000E+0	3.99880903E-1	0.00000000E+0
368	12/06/2023	16:48:52.824	0.00000000E+0	7.36702710E+2	5.00000000E+0	4.87796130E-1	0.00000000E+0
369	12/06/2023	16:48:54.657	0.00000000E+0	7.42985896E+2	5.00000000E+0	5.06148388E-1	0.00000000E+0
370	12/06/2023	16:48:56.506	0.00000000E+0	7.49269081E+2	5.00000000E+0	4.67367937E-1	0.00000000E+0
371	12/06/2023	16:48:58.329	0.00000000E+0	7.55552266E+2	5.00000000E+0	5.18993919E-1	0.00000000E+0
372	12/06/2023	16:49:00.249	0.00000000E+0	7.61835452E+2	5.00000000E+0	4.55674466E-1	0.00000000E+0
373	12/06/2023	16:49:02.174	0.00000000E+0	7.68118637E+2	5.00000000E+0	5.26751580E-1	0.00000000E+0
374	12/06/2023	16:49:04.184	0.00000000E+0	7.74401822E+2	5.00000000E+0	5.39666442E-1	0.00000000E+0
375	12/06/2023	16:49:06.042	0.00000000E+0	7.80685007E+2	5.00000000E+0	4.31402240E-1	0.00000000E+0
376	12/06/2023	16:49:08.017	0.00000000E+0	7.86968193E+2	5.00000000E+0	6.55483998E-1	0.00000000E+0
377	12/06/2023	16:49:09.942	0.00000000E+0	7.93251378E+2	5.00000000E+0	5.80392285E-1	0.00000000E+0
378	12/06/2023	16:49:11.941	0.00000000E+0	7.99534563E+2	5.00000000E+0	5.56651651E-1	0.00000000E+0
379	12/06/2023	16:49:13.927	0.00000000E+0	8.05817749E+2	5.00000000E+0	5.50570305E-1	0.00000000E+0
380	12/06/2023	16:49:15.801	0.00000000E+0	8.12100934E+2	5.00000000E+0	6.30818996E-1	0.00000000E+0
381	12/06/2023	16:49:17.718	0.00000000E+0	8.18384119E+2	5.00000000E+0	6.17576043E-1	0.00000000E+0
382	12/06/2023	16:49:19.482	0.00000000E+0	8.24667305E+2	5.00000000E+0	3.39313060E-1	0.00000000E+0
383	12/06/2023	16:49:21.294	0.00000000E+0	8.30950490E+2	5.00000000E+0	6.74338193E-1	0.00000000E+0
384	12/06/2023	16:49:23.308	0.00000000E+0	8.37233675E+2	5.00000000E+0	6.18873743E-1	0.00000000E+0
385	12/06/2023	16:49:25.203	0.00000000E+0	8.43516860E+2	5.00000000E+0	3.35435623E-1	0.00000000E+0
386	12/06/2023	16:49:27.152	0.00000000E+0	8.49800046E+2	5.00000000E+0	3.88126614E-1	0.00000000E+0
387	12/06/2023	16:49:29.071	0.00000000E+0	8.56083231E+2	5.00000000E+0	3.75905396E-1	0.00000000E+0
388	12/06/2023	16:49:31.011	0.00000000E+0	8.62366416E+2	5.00000000E+0	4.15302084E-1	0.00000000E+0
389	12/06/2023	16:49:33.004	0.00000000E+0	8.68649602E+2	5.00000000E+0	3.30199708E-1	0.00000000E+0
390	12/06/2023	16:49:34.916	0.00000000E+0	8.74932787E+2	5.00000000E+0	3.60002682E-1	0.00000000E+0
391	12/06/2023	16:49:36.861	0.00000000E+0	8.81215972E+2	5.00000000E+0	2.92911031E-1	0.00000000E+0
392	12/06/2023	16:49:38.846	0.00000000E+0	8.87499158E+2	5.00000000E+0	4.19365297E-1	0.00000000E+0
393	12/06/2023	16:49:40.725	0.00000000E+0	8.93782343E+2	5.00000000E+0	4.09840092E-1	0.00000000E+0
394	12/06/2023	16:49:42.690	0.00000000E+0	9.00065528E+2	5.00000000E+0	4.12690028E-1	0.00000000E+0
395	12/06/2023	16:49:44.520	0.00000000E+0	9.06348714E+2	5.00000000E+0	3.95358079E-1	0.00000000E+0
396	12/06/2023	16:49:46.364	0.00000000E+0	9.12631899E+2	5.00000000E+0	4.86449134E-1	0.00000000E+0
397	12/06/2023	16:49:48.385	0.00000000E+0	9.18915084E+2	5.00000000E+0	4.15825616E-1	0.00000000E+0
398	12/06/2023	16:49:50.291	0.00000000E+0	9.25198269E+2	5.00000000E+0	4.63102184E-1	0.00000000E+0
399	12/06/2023	16:49:52.225	0.00000000E+0	9.31481455E+2	5.00000000E+0	4.99100750E-1	0.00000000E+0
400	12/06/2023	16:49:54.207	0.00000000E+0	9.37764640E+2	5.00000000E+0	4.52452654E-1	0.00000000E+0
401	12/06/2023	16:49:56.140	0.00000000E+0	9.44047825E+2	5.00000000E+0	5.28512914E-1	0.00000000E+0
402	12/06/2023	16:49:58.073	0.00000000E+0	9.50331011E+2	5.00000000E+0	6.43704406E-1	0.00000000E+0
403	12/06/2023	16:50:00.011	0.00000000E+0	9.56614196E+2	5.00000000E+0	4.46438560E-1	0.00000000E+0
404	12/06/2023	16:50:01.978	0.00000000E+0	9.62897381E+2	5.00000000E+0	3.83108374E-1	0.00000000E+0
405	12/06/2023	16:50:04.042	0.00000000E+0	9.69180567E+2	5.00000000E+0	4.50690474E-1	0.00000000E+0
406	12/06/2023	16:50:05.842	0.00000000E+0	9.75463752E+2	5.00000000E+0	2.87335833E-1	0.00000000E+0
407	12/06/2023	16:50:07.543	0.00000000E+0	9.81746937E+2	5.00000000E+0	6.38508619E-1	0.00000000E+0
408	12/06/2023	16:50:09.459	0.00000000E+0	9.88030123E+2	5.00000000E+0	6.76571902E-1	0.00000000E+0
409	12/06/2023	16:50:11.342	0.00000000E+0	9.94313308E+2	5.00000000E+0	5.43615087E-1	0.00000000E+0
410	12/06/2023	16:50:13.349	0.00000000E+0	1.00059649E+3	5.00000000E+0	6.02359749E-1	0.00000000E+0
411	12/06/2023	16:50:15.169	0.00000000E+0	1.00687968E+3	5.00000000E+0	3.99158238E-1	0.00000000E+0
412	12/06/2023	16:50:17.109	0.00000000E+0	1.01316286E+3	5.00000000E+0	5.40285691E-1	0.00000000E+0
413	12/06/2023	16:50:19.103	0.00000000E+0	1.01944605E+3	5.00000000E+0	5.79054898E-1	0.00000000E+0
414	12/06/2023	16:50:20.975	0.00000000E+0	1.02572923E+3	5.00000000E+0	4.20053175E-1	0.00000000E+0
415	12/06/2023	16:50:22.891	0.00000000E+0	1.03201242E+3	5.00000000E+0	3.30831601E-1	0.00000000E+0
416	12/06/2023	16:50:24.790	0.00000000E+0	1.03829561E+3	5.00000000E+0	4.16811834E-1	0.00000000E+0
417	12/06/2023	16:50:26.702	0.00000000E+0	1.04457879E+3	5.00000000E+0	2.98802757E-1	0.00000000E+0
418	12/06/2023	16:50:28.611	0.00000000E+0	1.05086198E+3	5.00000000E+0	6.71190419E-1	0.00000000E+0
419	12/06/2023	16:50:30.363	0.00000000E+0	1.05714516E+3	5.00000000E+0	3.03194863E-1	0.00000000E+0
420	12/06/2023	16:50:32.133	0.00000000E+0	1.06342835E+3	5.00000000E+0	4.17738606E-1	0.00000000E+0
421	12/06/2023	16:50:34.161	0.00000000E+0	1.06971153E+3	5.00000000E+0	6.47248033E-1	0.00000000E+0
422	12/06/2023	16:50:36.095	0.00000000E+0	1.07599472E+3	5.00000000E+0	4.27563181E-1	0.00000000E+0
423	12/06/2023	16:50:38.149	0.00000000E+0	1.08227790E+3	5.00000000E+0	6.64799835E-1	0.00000000E+0
424	12/06/2023	16:50:40.023	0.00000000E+0	1.08856109E+3	5.00000000E+0	4.08233192E-1	0.00000000E+0
425	12/06/2023	16:50:41.956	0.00000000E+0	1.09484427E+3	5.00000000E+0	5.49867590E-1	0.00000000E+0
426	12/06/2023	16:50:43.952	0.00000000E+0	1.10112746E+3	5.00000000E+0	5.29397076E-1	0.00000000E+0
427	12/06/2023	16:50:45.888	0.00000000E+0	1.10741064E+3	5.00000000E+0	6.41312651E-1	0.00000000E+0
428	12/06/2023	16:50:47.818	0.00000000E+0	1.11369383E+3	5.00000000E+0	2.95558622E-1	0.00000000E+0
429	12/06/2023	16:50:49.661	0.00000000E+0	1.11997701E+3	5.00000000E+0	6.49136052E-1	0.00000000E+0
430	12/06/2023	16:50:51.583	0.00000000E+0	1.12626020E+3	5.00000000E+0	4.70409734E-1	0.00000000E+0
431	12/06/2023	16:50:53.409	0.00000000E+0	1.13254338E+3	5.00000000E+0	5.89888035E-1	0.00000000E+0
432	12/06/2023	16:50:55.162	0.00000000E+0	1.13882657E+3	5.00000000E+0	2.99266908E-1	0.00000000E+0
433	12/06/2023	16:50:57.036	0.00000000E+0	1.14510976E+3	5.00000000E+0	5.38234530E-1	0.00000000E+0
434	12/06/2023	16:50:59.027	0.00000000E+0	1.15139294E+3	5.00000000E+0	5.57729136E-1	0.00000000E+0
435	12/06/2023	16:51:00.924	0.00000000E+0	1.15767613E+3	5.00000000E+0	6.43221001E-1	0.00000000E+0
436	12/06/2023	16:51:02.953	0.00000000E+0	1.16395931E+3	5.00000000E+0	3.37011795E-1	0.00000000E+0
437	12/06/2023	16:51:04.851	0.00000000E+0	1.17024250E+3	5.00000000E+0	5.57286077E-1	0.00000000E+0
438	12/06/2023	16:51:06.838	0.00000000E+0	1.17652568E+3	5.00000000E+0	3.08730988E-1	0.00000000E+0
439	12/06/2023	16:51:08.859	0.00000000E+0	1.18280887E+3	5.00000000E+0	6.20828997E-1	0.00000000E+0
440	12/06/2023	16:51:10.866	0.00000000E+0	1.18909205E+3	5.00000000E+0	5.91057942E-1	0.00000000E+0
441	12/06/2023	16:51:12.645	0.00000000E+0	1.19537524E+3	5.00000000E+0	3.06070616E-1	0.00000000E+0
442	12/06/2023	16:51:14.490	0.00000000E+0	1.20165842E+3	5.00000000E+0	6.62658508E-1	0.00000000E+0
443	12/06/2023	16:51:16.191	0.00000000E+0	1.20794161E+3	5.00000000E+0	5.10344300E-1	0.00000000E+0
444	12/06/2023	16:51:17.980	0.00000000E+0	1.21422479E+3	5.00000000E+0	5.89351667E-1	0.00000000E+0
445	12/06/2023	16:51:19.889	0.00000000E+0	1.22050798E+3	5.00000000E+0	3.75641403E-1	0.00000000E+0
446	12/06/2023	16:51:21.809	0.00000000E+0	1.22679116E+3	5.00000000E+0	3.87883865E-1	0.00000000E+0
447	12/06/2023	16:51:23.841	0.00000000E+0	1.23307435E+3	5.00000000E+0	5.23825032E-1	0.00000000E+0
448	12/06/2023	16:51:25.749	0.00000000E+0	1.23935753E+3	5.00000000E+0	2.86214496E-1	0.00000000E+0
449	12/06/2023	16:51:27.741	0.00000000E+0	1.24564072E+3	5.00000000E+0	5.58440441E-1	0.00000000E+0
450	12/06/2023	16:51:29.661	0.00000000E+0	1.25192391E+3	5.00000000E+0	3.69430944E-1	0.00000000E+0
451	12/06/2023	16:51:31.582	0.00000000E+0	1.25820709E+3	5.00000000E+0	4.16934346E-1	0.00000000E+0
452	12/06/2023	16:51:33.655	0.00000000E+0	1.26449028E+3	5.00000000E+0	2.96704391E-1	0.00000000E+0
453	12/06/2023	16:51:35.457	0.00000000E+0	1.27077346E+3	5.00000000E+0	5.25418308E-1	0.00000000E+0
454	12/06/2023	16:51:37.358	0.00000000E+0	1.27705665E+3	5.00000000E+0	6.56236911E-1	0.00000000E+0
455	12/06/2023	16:51:39.183	0.00000000E+0	1.28333983E+3	5.00000000E+0	5.39517773E-1	0.00000000E+0
456	12/06/2023	16:51:40.940	0.00000000E+0	1.28962302E+3	5.00000000E+0	6.68234193E-1	0.00000000E+0
457	12/06/2023	16:51:42.950	0.00000000E+0	1.29590620E+3	5.00000000E+0	6.71096023E-1	0.00000000E+0
458	12/06/2023	16:51:44.870	0.00000000E+0	1.30218939E+3	5.00000000E+0	5.75478579E-1	0.00000000E+0
459	12/06/2023	16:51:46.789	0.00000000E+0	1.30847257E+3	5.00000000E+0	4.22109471E-1	0.00000000E+0
460	12/06/2023	16:51:48.791	0.00000000E+0	1.31475576E+3	5.00000000E+0	5.25261285E-1	0.00000000E+0
461	12/06/2023	16:51:50.718	0.00000000E+0	1.32103894E+3	5.00000000E+0	4.58046024E-1	0.00000000E+0
462	12/06/2023	16:51:52.660	0.00000000E+0	1.32732213E+3	5.00000000E+0	5.60645805E-1	0.00000000E+0
463	12/06/2023	16:51:54.640	0.00000000E+0	1.33360531E+3	5.00000000E+0	5.86405268E-1	0.00000000E+0
464	12/06/2023	16:51:56.563	0.00000000E+0	1.33988850E+3	5.00000000E+0	3.28220631E-1	0.00000000E+0
465	12/06/2023	16:51:58.674	0.00000000E+0	1.34617169E+3	5.00000000E+0	5.80125672E-1	0.00000000E+0
466	12/06/2023	16:52:00.503	0.00000000E+0	1.35245487E+3	5.00000000E+0	4.50486614E-1	0.00000000E+0
467	12/06/2023	16:52:02.184	0.00000000E+0	1.35873806E+3	5.00000000E+0	6.48487219E-1	0.00000000E+0
468	12/06/2023	16:52:04.082	0.00000000E+0	1.36502124E+3	5.00000000E+0	6.56075552E-1	0.00000000E+0
469	12/06/2023	16:52:06.002	0.00000000E+0	1.37130443E+3	5.00000000E+0	2.81187602E-1	0.00000000E+0
470	12/06/2023	16:52:08.006	0.00000000E+0	1.37758761E+3	5.00000000E+0	3.26442528E-1	0.00000000E+0
471	12/06/2023	16:52:09.895	0.00000000E+0	1.38387080E+3	5.00000000E+0	3.25677422E-1	0.00000000E+0
472	12/06/2023	16:52:11.849	0.00000000E+0	1.39015398E+3	5.00000000E+0	6.53968826E-1	0.00000000E+0
473	12/06/2023	16:52:13.853	0.00000000E+0	1.39643717E+3	5.00000000E+0	5.44470614E-1	0.00000000E+0
474	12/06/2023	16:52:15.772	0.00000000E+0	1.40272035E+3	5.00000000E+0	5.46507665E-1	0.00000000E+0
475	12/06/2023	16:52:17.639	0.00000000E+0	1.40900354E+3	5.00000000E+0	4.63025282E-1	0.00000000E+0
476	12/06/2023	16:52:19.667	0.00000000E+0	1.41528672E+3	5.00000000E+0	5.50757309E-1	0.00000000E+0
477	12/06/2023	16:52:21.501	0.00000000E+0	1.42156991E+3	5.00000000E+0	6.74435246E-1	0.00000000E+0
478	12/06/2023	16:52:23.470	0.00000000E+0	1.42785309E+3	5.00000000E+0	6.47484071E-1	0.00000000E+0
479	12/06/2023	16:52:25.214	0.00000000E+0	1.43413628E+3	5.00000000E+0	4.67104825E-1	0.00000000E+0
480	12/06/2023	16:52:26.971	0.00000000E+0	1.44041946E+3	5.00000000E+0	6.22147120E-1	0.00000000E+0
481	12/06/2023	16:52:28.974	0.00000000E+0	1.44670265E+3	5.00000000E+0	3.21317430E-1	0.00000000E+0
482	12/06/2023	16:52:30.827	0.00000000E+0	1.45298584E+3	5.00000000E+0	3.95167717E-1	0.00000000E+0
483	12/06/2023	16:52:32.830	0.00000000E+0	1.45926902E+3	5.00000000E+0	5.26594763E-1	0.00000000E+0
484	12/06/2023	16:52:34.822	0.00000000E+0	1.46555221E+3	5.00000000E+0	6.27020926E-1	0.00000000E+0
485	12/06/2023	16:52:36.705	0.00000000E+0	1.47183539E+3	5.00000000E+0	5.91816627E-1	0.00000000E+0
486	12/06/2023	16:52:38.737	0.00000000E+0	1.47811858E+3	5.00000000E+0	5.83153215E-1	0.00000000E+0
487	12/06/2023	16:52:40.684	0.00000000E+0	1.48440176E+3	5.00000000E+0	6.57692102E-1	0.00000000E+0
488	12/06/2023	16:52:42.601	0.00000000E+0	1.49068495E+3	5.00000000E+0	3.63025307E-1	0.00000000E+0
489	12/06/2023	16:52:44.601	0.00000000E+0	1.49696813E+3	5.00000000E+0	5.58381314E-1	0.00000000E+0
490	12/06/2023	16:52:46.462	0.00000000E+0	1.50325132E+3	5.00000000E+0	3.92644271E-1	0.00000000E+0
491	12/06/2023	16:52:48.311	0.00000000E+0	1.50953450E+3	5.00000000E+0	3.64322607E-1	0.00000000E+0
492	12/06/2023	16:52:50.151	0.00000000E+0	1.51581769E+3	5.00000000E+0	3.37486654E-1	0.00000000E+0
493	12/06/2023	16:52:52.064	0.00000000E+0	1.52210087E+3	5.00000000E+0	6.54133608E-1	0.00000000E+0
494	12/06/2023	16:52:54.070	0.00000000E+0	1.52838406E+3	5.00000000E+0	6.16105622E-1	0.00000000E+0
495	12/06/2023	16:52:55.982	0.00000000E+0	1.53466724E+3	5.00000000E+0	2.84414665E-1	0.00000000E+0
496	12/06/2023	16:52:57.918	0.00000000E+0	1.54095043E+3	5.00000000E+0	4.50618587E-1	0.00000000E+0
497	12/06/2023	16:52:59.830	0.00000000E+0	1.54723361E+3	5.00000000E+0	3.01713294E-1	0.00000000E+0
498	12/06/2023	16:53:01.749	0.00000000E+0	1.55351680E+3	5.00000000E+0	5.58090907E-1	0.00000000E+0
499	12/06/2023	16:53:03.712	0.00000000E+0	1.55979999E+3	5.00000000E+0	4.25926465E-1	0.00000000E+0
500	12/06/2023	16:53:05.602	0.00000000E+0	1.56608317E+3	5.00000000E+0	6.27603400E-1	0.00000000E+0
