#Iteration	Date	Time	STSX	STSY	RotationRateX	RotationRateY	FrCntX	FrCntY	TiptiltCmd1	TiptiltCmd2	TiptiltMonitor1	TiptiltMonitor2
1	12/06/2023	16:37:21.337	0.00000E+0	0.00000E+0	-8.50942E-2	1.06299E-1	0.00000E+0	0.00000E+0	1.95512E+1	1.36190E+1	1.95518E+1	1.36191E+1
2	12/06/2023	16:37:23.211	0.00000E+0	0.00000E+0	-1.09016E-1	-2.08874E-1	0.00000E+0	0.00000E+0	1.95515E+1	1.36198E+1	1.95520E+1	1.36191E+1
3	12/06/2023	16:37:25.018	0.00000E+0	0.00000E+0	-1.59776E-1	-3.40120E-2	0.00000E+0	0.00000E+0	1.95526E+1	1.36226E+1	1.95521E+1	1.36241E+1
4	12/06/2023	16:37:27.020	0.00000E+0	0.00000E+0	-5.84265E-2	-2.02083E-1	0.00000E+0	0.00000E+0	1.95509E+1	1.36179E+1	1.95511E+1	1.36206E+1
5	12/06/2023	16:37:28.940	0.00000E+0	0.00000E+0	1.83994E+2	2.39757E+0	0.00000E+0	0.00000E+0	2.21744E+1	1.10016E+1	2.21749E+1	1.10017E+1
6	12/06/2023	16:37:30.719	0.00000E+0	0.00000E+0	1.57443E+2	1.35596E+0	0.00000E+0	0.00000E+0	2.18646E+1	1.13531E+1	2.18650E+1	1.13543E+1
7	12/06/2023	16:37:32.548	0.00000E+0	0.00000E+0	-8.19667E+1	-8.76073E-1	0.00000E+0	0.00000E+0	1.84330E+1	1.47424E+1	1.84319E+1	1.47459E+1
8	12/06/2023	16:37:34.303	0.00000E+0	0.00000E+0	-1.27839E+2	-1.33536E+0	0.00000E+0	0.00000E+0	1.77246E+1	1.54234E+1	1.77263E+1	1.54248E+1
9	12/06/2023	16:37:36.069	0.00000E+0	0.00000E+0	-1.06257E+2	-1.98930E-1	0.00000E+0	0.00000E+0	1.79935E+1	1.51772E+1	1.79940E+1	1.51761E+1
10	12/06/2023	16:37:37.853	0.00000E+0	0.00000E+0	-6.24026E+1	-3.24194E-1	0.00000E+0	0.00000E+0	1.86825E+1	1.44814E+1	1.86817E+1	1.44809E+1
11	12/06/2023	16:37:39.710	0.00000E+0	0.00000E+0	5.67849E+1	2.70586E+0	0.00000E+0	0.00000E+0	2.03473E+1	1.28676E+1	2.03503E+1	1.28688E+1
12	12/06/2023	16:37:41.714	0.00000E+0	0.00000E+0	9.18104E+1	8.91812E-1	0.00000E+0	0.00000E+0	2.08722E+1	1.23304E+1	2.08732E+1	1.23307E+1
13	12/06/2023	16:37:43.596	0.00000E+0	0.00000E+0	8.88884E+1	1.49657E+0	0.00000E+0	0.00000E+0	2.08129E+1	1.23722E+1	2.08126E+1	1.23730E+1
14	12/06/2023	16:37:45.466	0.00000E+0	0.00000E+0	7.97501E+1	7.96301E-1	0.00000E+0	0.00000E+0	2.06986E+1	1.25015E+1	2.07012E+1	1.24994E+1
15	12/06/2023	16:37:47.384	0.00000E+0	0.00000E+0	3.98464E+1	-1.41431E-1	0.00000E+0	0.00000E+0	2.02087E+1	1.29959E+1	2.02088E+1	1.29935E+1
16	12/06/2023	16:37:49.233	0.00000E+0	0.00000E+0	-1.07676E+2	-1.27389E+0	0.00000E+0	0.00000E+0	1.80414E+1	1.51113E+1	1.80432E+1	1.51113E+1
17	12/06/2023	16:37:51.184	0.00000E+0	0.00000E+0	-1.04409E+2	-6.76843E-1	0.00000E+0	0.00000E+0	1.80719E+1	1.50737E+1	1.80714E+1	1.50745E+1
18	12/06/2023	16:37:52.954	0.00000E+0	0.00000E+0	-9.24770E+1	-7.80320E-1	0.00000E+0	0.00000E+0	1.82492E+1	1.49081E+1	1.82496E+1	1.49088E+1
19	12/06/2023	16:37:54.705	0.00000E+0	0.00000E+0	-3.96576E+1	1.09024E-1	0.00000E+0	0.00000E+0	1.89732E+1	1.41741E+1	1.89750E+1	1.41734E+1
20	12/06/2023	16:37:56.642	0.00000E+0	0.00000E+0	7.21307E+1	1.26557E+0	0.00000E+0	0.00000E+0	2.06129E+1	1.25745E+1	2.06128E+1	1.25752E+1
21	12/06/2023	16:37:58.361	0.00000E+0	0.00000E+0	6.87128E+1	-8.72467E-1	0.00000E+0	0.00000E+0	2.05427E+1	1.26775E+1	2.05457E+1	1.26772E+1
22	12/06/2023	16:38:00.059	0.00000E+0	0.00000E+0	1.04090E+2	1.09064E+0	0.00000E+0	0.00000E+0	2.10516E+1	1.21452E+1	2.10500E+1	1.21447E+1
23	12/06/2023	16:38:01.856	0.00000E+0	0.00000E+0	6.62267E+1	4.14569E-1	0.00000E+0	0.00000E+0	2.05080E+1	1.26837E+1	2.05081E+1	1.26837E+1
24	12/06/2023	16:38:03.691	0.00000E+0	0.00000E+0	-3.77898E+1	-6.40291E-1	0.00000E+0	0.00000E+0	1.90642E+1	1.41009E+1	1.90621E+1	1.41000E+1
25	12/06/2023	16:38:05.779	0.00000E+0	0.00000E+0	-6.61472E+1	-5.79282E-1	0.00000E+0	0.00000E+0	1.85954E+1	1.45665E+1	1.85970E+1	1.45677E+1
26	12/06/2023	16:38:07.666	0.00000E+0	0.00000E+0	-8.79249E+1	-5.72498E-1	0.00000E+0	0.00000E+0	1.83076E+1	1.48460E+1	1.83078E+1	1.48462E+1
27	12/06/2023	16:38:09.561	0.00000E+0	0.00000E+0	-8.11834E+1	-9.66722E-1	0.00000E+0	0.00000E+0	1.83654E+1	1.48018E+1	1.83644E+1	1.48010E+1
28	12/06/2023	16:38:11.564	0.00000E+0	0.00000E+0	1.77673E+1	5.86241E-1	0.00000E+0	0.00000E+0	1.97866E+1	1.33820E+1	1.97848E+1	1.33818E+1
29	12/06/2023	16:38:13.470	0.00000E+0	0.00000E+0	6.94127E+1	1.47590E+0	0.00000E+0	0.00000E+0	2.04922E+1	1.26733E+1	2.04928E+1	1.26734E+1
30	12/06/2023	16:38:15.404	0.00000E+0	0.00000E+0	6.47015E+1	4.57198E-1	0.00000E+0	0.00000E+0	2.04964E+1	1.26811E+1	2.04944E+1	1.26840E+1
31	12/06/2023	16:38:17.395	0.00000E+0	0.00000E+0	9.15460E+1	3.90369E-1	0.00000E+0	0.00000E+0	2.08507E+1	1.23532E+1	2.08504E+1	1.23500E+1
32	12/06/2023	16:38:19.147	0.00000E+0	0.00000E+0	1.31330E+2	2.05955E+0	0.00000E+0	0.00000E+0	2.14133E+1	1.17901E+1	2.14142E+1	1.17895E+1
33	12/06/2023	16:38:21.043	0.00000E+0	0.00000E+0	-1.93038E+2	-8.67887E-1	0.00000E+0	0.00000E+0	1.66740E+1	1.64390E+1	1.66715E+1	1.64392E+1
34	12/06/2023	16:38:22.783	0.00000E+0	0.00000E+0	3.48159E+1	6.49824E-1	0.00000E+0	0.00000E+0	1.99184E+1	1.32797E+1	1.99186E+1	1.32782E+1
35	12/06/2023	16:38:24.721	0.00000E+0	0.00000E+0	5.02774E+1	2.83473E-1	0.00000E+0	0.00000E+0	2.02310E+1	1.29367E+1	2.02303E+1	1.29378E+1
36	12/06/2023	16:38:26.726	0.00000E+0	0.00000E+0	7.77100E+1	7.18437E-2	0.00000E+0	0.00000E+0	2.06758E+1	1.25677E+1	2.06767E+1	1.25655E+1
37	12/06/2023	16:38:28.736	0.00000E+0	0.00000E+0	-4.23644E+1	-1.36207E-2	0.00000E+0	0.00000E+0	1.89591E+1	1.42001E+1	1.89580E+1	1.41998E+1
38	12/06/2023	16:38:30.693	0.00000E+0	0.00000E+0	-4.96081E+1	-4.69167E-1	0.00000E+0	0.00000E+0	1.88358E+1	1.43296E+1	1.88349E+1	1.43296E+1
39	12/06/2023	16:38:32.577	0.00000E+0	0.00000E+0	-4.29236E+1	-9.90929E-1	0.00000E+0	0.00000E+0	1.89362E+1	1.42408E+1	1.89351E+1	1.42410E+1
40	12/06/2023	16:38:34.487	0.00000E+0	0.00000E+0	-3.89516E+1	6.82341E-2	0.00000E+0	0.00000E+0	1.89953E+1	1.41688E+1	1.89964E+1	1.41692E+1
41	12/06/2023	16:38:36.593	0.00000E+0	0.00000E+0	-3.59574E+1	-4.47524E-1	0.00000E+0	0.00000E+0	1.90547E+1	1.41043E+1	1.90543E+1	1.41058E+1
42	12/06/2023	16:38:38.448	0.00000E+0	0.00000E+0	-1.87631E+1	2.65530E-1	0.00000E+0	0.00000E+0	1.92740E+1	1.38829E+1	1.92764E+1	1.38835E+1
43	12/06/2023	16:38:40.232	0.00000E+0	0.00000E+0	-2.73589E+1	-5.95382E-1	0.00000E+0	0.00000E+0	1.91896E+1	1.40107E+1	1.91893E+1	1.40090E+1
44	12/06/2023	16:38:42.364	0.00000E+0	0.00000E+0	-7.32439E+1	-3.85765E-1	0.00000E+0	0.00000E+0	1.85280E+1	1.46418E+1	1.85280E+1	1.46414E+1
45	12/06/2023	16:38:44.119	0.00000E+0	0.00000E+0	4.62736E+1	-5.89802E-1	0.00000E+0	0.00000E+0	2.01920E+1	1.29690E+1	2.01913E+1	1.29693E+1
46	12/06/2023	16:38:45.951	0.00000E+0	0.00000E+0	3.48155E+1	6.82875E-1	0.00000E+0	0.00000E+0	2.00615E+1	1.31528E+1	2.00597E+1	1.31549E+1
47	12/06/2023	16:38:47.873	0.00000E+0	0.00000E+0	2.65750E+1	1.73078E+0	0.00000E+0	0.00000E+0	1.99515E+1	1.32614E+1	1.99522E+1	1.32599E+1
48	12/06/2023	16:38:49.805	0.00000E+0	0.00000E+0	5.72611E+1	1.34685E+0	0.00000E+0	0.00000E+0	2.04046E+1	1.27721E+1	2.04044E+1	1.27740E+1
49	12/06/2023	16:38:51.894	0.00000E+0	0.00000E+0	2.86676E+1	-3.69211E-1	0.00000E+0	0.00000E+0	1.99672E+1	1.32175E+1	1.99650E+1	1.32150E+1
50	12/06/2023	16:38:53.774	0.00000E+0	0.00000E+0	5.48043E+1	6.38274E-1	0.00000E+0	0.00000E+0	2.03637E+1	1.28407E+1	2.03624E+1	1.28424E+1
51	12/06/2023	16:38:55.752	0.00000E+0	0.00000E+0	2.56763E+1	5.08400E-1	0.00000E+0	0.00000E+0	1.99399E+1	1.32481E+1	1.99377E+1	1.32487E+1
52	12/06/2023	16:38:57.651	0.00000E+0	0.00000E+0	3.00881E+1	4.41809E-1	0.00000E+0	0.00000E+0	2.00148E+1	1.31873E+1	2.00138E+1	1.31870E+1
53	12/06/2023	16:38:59.585	0.00000E+0	0.00000E+0	-3.85584E+1	-1.01299E-1	0.00000E+0	0.00000E+0	1.90075E+1	1.41344E+1	1.90064E+1	1.41369E+1
54	12/06/2023	16:39:01.592	0.00000E+0	0.00000E+0	-4.58201E+1	-4.58662E-1	0.00000E+0	0.00000E+0	1.89137E+1	1.42248E+1	1.89154E+1	1.42266E+1
55	12/06/2023	16:39:03.355	0.00000E+0	0.00000E+0	-8.84629E+1	-2.80451E-2	0.00000E+0	0.00000E+0	1.82731E+1	1.48528E+1	1.82727E+1	1.48550E+1
56	12/06/2023	16:39:05.345	0.00000E+0	0.00000E+0	-2.81901E+1	-3.20187E-1	0.00000E+0	0.00000E+0	1.91108E+1	1.40484E+1	1.91121E+1	1.40489E+1
57	12/06/2023	16:39:07.208	0.00000E+0	0.00000E+0	-2.62027E+1	-5.88334E-1	0.00000E+0	0.00000E+0	1.91740E+1	1.39839E+1	1.91751E+1	1.39876E+1
58	12/06/2023	16:39:09.104	0.00000E+0	0.00000E+0	-1.77069E+1	4.58163E-1	0.00000E+0	0.00000E+0	1.93003E+1	1.38631E+1	1.92984E+1	1.38630E+1
59	12/06/2023	16:39:11.091	0.00000E+0	0.00000E+0	-2.01260E+1	1.08055E+0	0.00000E+0	0.00000E+0	1.92697E+1	1.38984E+1	1.92708E+1	1.38985E+1
60	12/06/2023	16:39:12.958	0.00000E+0	0.00000E+0	-4.54349E+1	-8.98655E-1	0.00000E+0	0.00000E+0	1.89008E+1	1.42634E+1	1.88998E+1	1.42623E+1
61	12/06/2023	16:39:14.891	0.00000E+0	0.00000E+0	3.78735E+1	-3.87221E+0	0.00000E+0	0.00000E+0	2.01007E+1	1.30724E+1	2.01005E+1	1.30726E+1
62	12/06/2023	16:39:16.888	0.00000E+0	0.00000E+0	9.15312E+1	8.56159E-1	0.00000E+0	0.00000E+0	2.08824E+1	1.23297E+1	2.08798E+1	1.23304E+1
63	12/06/2023	16:39:18.780	0.00000E+0	0.00000E+0	8.59991E+1	1.20051E+0	0.00000E+0	0.00000E+0	2.07866E+1	1.24026E+1	2.07854E+1	1.24039E+1
64	12/06/2023	16:39:20.665	0.00000E+0	0.00000E+0	6.23267E+1	2.68834E-1	0.00000E+0	0.00000E+0	2.04442E+1	1.27602E+1	2.04439E+1	1.27626E+1
65	12/06/2023	16:39:22.569	0.00000E+0	0.00000E+0	-2.59916E+1	-3.53480E-1	0.00000E+0	0.00000E+0	1.92324E+1	1.39546E+1	1.92356E+1	1.39551E+1
66	12/06/2023	16:39:24.436	0.00000E+0	0.00000E+0	-6.45708E+1	-5.60602E-1	0.00000E+0	0.00000E+0	1.86279E+1	1.45397E+1	1.86269E+1	1.45420E+1
67	12/06/2023	16:39:26.310	0.00000E+0	0.00000E+0	-6.61529E+1	-1.42486E-1	0.00000E+0	0.00000E+0	1.86024E+1	1.45537E+1	1.86025E+1	1.45542E+1
68	12/06/2023	16:39:28.093	0.00000E+0	0.00000E+0	-4.10286E+1	-1.28932E+0	0.00000E+0	0.00000E+0	1.89803E+1	1.41925E+1	1.89804E+1	1.41929E+1
69	12/06/2023	16:39:29.800	0.00000E+0	0.00000E+0	-5.12988E+1	-3.68430E-1	0.00000E+0	0.00000E+0	1.88274E+1	1.43603E+1	1.88277E+1	1.43618E+1
70	12/06/2023	16:39:31.670	0.00000E+0	0.00000E+0	1.95113E+1	5.58701E-1	0.00000E+0	0.00000E+0	1.97896E+1	1.33672E+1	1.97890E+1	1.33657E+1
71	12/06/2023	16:39:33.493	0.00000E+0	0.00000E+0	6.24873E+1	9.51421E-1	0.00000E+0	0.00000E+0	2.04742E+1	1.27135E+1	2.04762E+1	1.27137E+1
72	12/06/2023	16:39:35.424	0.00000E+0	0.00000E+0	7.08257E+1	7.51487E-1	0.00000E+0	0.00000E+0	2.05781E+1	1.26109E+1	2.05784E+1	1.26091E+1
73	12/06/2023	16:39:37.289	0.00000E+0	0.00000E+0	5.98190E+1	1.11547E+0	0.00000E+0	0.00000E+0	2.04173E+1	1.27742E+1	2.04185E+1	1.27731E+1
74	12/06/2023	16:39:39.205	0.00000E+0	0.00000E+0	-1.16761E+1	-2.62758E-1	0.00000E+0	0.00000E+0	1.94094E+1	1.37710E+1	1.94087E+1	1.37701E+1
75	12/06/2023	16:39:41.191	0.00000E+0	0.00000E+0	-5.12187E+1	-5.38282E-1	0.00000E+0	0.00000E+0	1.88511E+1	1.43182E+1	1.88504E+1	1.43211E+1
76	12/06/2023	16:39:43.002	0.00000E+0	0.00000E+0	-8.61753E+1	-6.41900E-1	0.00000E+0	0.00000E+0	1.83081E+1	1.48430E+1	1.83095E+1	1.48415E+1
77	12/06/2023	16:39:44.835	0.00000E+0	0.00000E+0	-2.67107E+0	-4.06184E-1	0.00000E+0	0.00000E+0	1.94762E+1	1.36980E+1	1.94773E+1	1.36977E+1
78	12/06/2023	16:39:46.729	0.00000E+0	0.00000E+0	9.24625E+0	2.63777E-1	0.00000E+0	0.00000E+0	1.96693E+1	1.35019E+1	1.96699E+1	1.35019E+1
79	12/06/2023	16:39:48.466	0.00000E+0	0.00000E+0	4.74412E+1	1.08766E-1	0.00000E+0	0.00000E+0	2.02508E+1	1.29458E+1	2.02519E+1	1.29473E+1
80	12/06/2023	16:39:50.410	0.00000E+0	0.00000E+0	4.37055E+1	5.43578E-1	0.00000E+0	0.00000E+0	2.01751E+1	1.30117E+1	2.01752E+1	1.30113E+1
81	12/06/2023	16:39:52.247	0.00000E+0	0.00000E+0	2.17938E+1	-9.52800E-2	0.00000E+0	0.00000E+0	1.98621E+1	1.33054E+1	1.98614E+1	1.33073E+1
82	12/06/2023	16:39:53.895	0.00000E+0	0.00000E+0	-5.09279E+1	-4.71334E-2	0.00000E+0	0.00000E+0	1.88739E+1	1.42843E+1	1.88748E+1	1.42850E+1
83	12/06/2023	16:39:55.821	0.00000E+0	0.00000E+0	-2.37812E+1	-5.63640E-1	0.00000E+0	0.00000E+0	1.92011E+1	1.39813E+1	1.92026E+1	1.39819E+1
84	12/06/2023	16:39:57.679	0.00000E+0	0.00000E+0	3.72553E-1	-3.76171E-1	0.00000E+0	0.00000E+0	1.95464E+1	1.36287E+1	1.95484E+1	1.36276E+1
85	12/06/2023	16:39:59.619	0.00000E+0	0.00000E+0	-1.38304E+1	-1.21597E-1	0.00000E+0	0.00000E+0	1.93535E+1	1.38195E+1	1.93522E+1	1.38181E+1
86	12/06/2023	16:40:01.460	0.00000E+0	0.00000E+0	-2.37922E+1	-8.06878E-2	0.00000E+0	0.00000E+0	1.92443E+1	1.39441E+1	1.92431E+1	1.39435E+1
87	12/06/2023	16:40:03.253	0.00000E+0	0.00000E+0	-1.51725E+1	-3.55536E-1	0.00000E+0	0.00000E+0	1.93695E+1	1.38333E+1	1.93687E+1	1.38309E+1
88	12/06/2023	16:40:05.123	0.00000E+0	0.00000E+0	-1.25912E+1	1.59520E-1	0.00000E+0	0.00000E+0	1.93918E+1	1.37740E+1	1.93936E+1	1.37724E+1
89	12/06/2023	16:40:07.030	0.00000E+0	0.00000E+0	-1.44637E+1	-2.14333E-1	0.00000E+0	0.00000E+0	1.93763E+1	1.38104E+1	1.93756E+1	1.38112E+1
90	12/06/2023	16:40:08.930	0.00000E+0	0.00000E+0	-1.28656E+1	4.30425E-1	0.00000E+0	0.00000E+0	1.93759E+1	1.38219E+1	1.93759E+1	1.38205E+1
91	12/06/2023	16:40:10.837	0.00000E+0	0.00000E+0	-4.81465E+1	7.39874E-1	0.00000E+0	0.00000E+0	1.88940E+1	1.42636E+1	1.88931E+1	1.42649E+1
92	12/06/2023	16:40:12.676	0.00000E+0	0.00000E+0	-1.68878E+1	-3.72012E-1	0.00000E+0	0.00000E+0	1.93154E+1	1.38477E+1	1.93179E+1	1.38474E+1
93	12/06/2023	16:40:14.665	0.00000E+0	0.00000E+0	-2.49829E+1	-7.24118E-2	0.00000E+0	0.00000E+0	1.92019E+1	1.39637E+1	1.92023E+1	1.39668E+1
94	12/06/2023	16:40:16.349	0.00000E+0	0.00000E+0	6.18493E+0	1.38413E-1	0.00000E+0	0.00000E+0	1.95962E+1	1.35696E+1	1.95939E+1	1.35701E+1
95	12/06/2023	16:40:18.158	0.00000E+0	0.00000E+0	1.08358E+1	5.87658E-1	0.00000E+0	0.00000E+0	1.97347E+1	1.34612E+1	1.97345E+1	1.34621E+1
96	12/06/2023	16:40:20.116	0.00000E+0	0.00000E+0	2.37866E+1	-3.17294E-1	0.00000E+0	0.00000E+0	1.98795E+1	1.32914E+1	1.98796E+1	1.32906E+1
97	12/06/2023	16:40:21.951	0.00000E+0	0.00000E+0	2.71849E+1	-9.35340E-2	0.00000E+0	0.00000E+0	1.99364E+1	1.32693E+1	1.99358E+1	1.32699E+1
98	12/06/2023	16:40:23.786	0.00000E+0	0.00000E+0	2.05124E+1	1.55315E+0	0.00000E+0	0.00000E+0	1.98455E+1	1.33094E+1	1.98442E+1	1.33092E+1
99	12/06/2023	16:40:25.755	0.00000E+0	0.00000E+0	1.81979E+1	9.78201E-1	0.00000E+0	0.00000E+0	1.98058E+1	1.33731E+1	1.98040E+1	1.33714E+1
100	12/06/2023	16:40:27.619	0.00000E+0	0.00000E+0	1.94574E+1	-5.44476E-1	0.00000E+0	0.00000E+0	1.98431E+1	1.33463E+1	1.98427E+1	1.33489E+1
101	12/06/2023	16:40:29.564	0.00000E+0	0.00000E+0	2.09373E+1	1.19543E+0	0.00000E+0	0.00000E+0	1.98511E+1	1.33186E+1	1.98501E+1	1.33184E+1
102	12/06/2023	16:40:31.389	0.00000E+0	0.00000E+0	2.84279E+1	2.70269E-1	0.00000E+0	0.00000E+0	1.99581E+1	1.32084E+1	1.99624E+1	1.32084E+1
103	12/06/2023	16:40:33.234	0.00000E+0	0.00000E+0	1.83420E+1	6.80808E-1	0.00000E+0	0.00000E+0	1.98031E+1	1.33831E+1	1.98010E+1	1.33849E+1
104	12/06/2023	16:40:35.078	0.00000E+0	0.00000E+0	2.69905E+1	6.11859E-1	0.00000E+0	0.00000E+0	1.99365E+1	1.32414E+1	1.99353E+1	1.32427E+1
105	12/06/2023	16:40:36.862	0.00000E+0	0.00000E+0	2.35963E+1	-4.97446E-1	0.00000E+0	0.00000E+0	1.98967E+1	1.32866E+1	1.98959E+1	1.32882E+1
106	12/06/2023	16:40:38.666	0.00000E+0	0.00000E+0	3.49865E+1	7.84847E-1	0.00000E+0	0.00000E+0	2.00368E+1	1.31286E+1	2.00362E+1	1.31288E+1
107	12/06/2023	16:40:40.546	0.00000E+0	0.00000E+0	2.92394E+1	6.67854E-1	0.00000E+0	0.00000E+0	1.99553E+1	1.32200E+1	1.99543E+1	1.32231E+1
108	12/06/2023	16:40:42.394	0.00000E+0	0.00000E+0	2.00752E+1	-3.68613E-1	0.00000E+0	0.00000E+0	1.98209E+1	1.33424E+1	1.98210E+1	1.33443E+1
109	12/06/2023	16:40:44.339	0.00000E+0	0.00000E+0	2.15662E+1	3.01241E-2	0.00000E+0	0.00000E+0	1.98801E+1	1.33024E+1	1.98827E+1	1.33012E+1
110	12/06/2023	16:40:46.213	0.00000E+0	0.00000E+0	-3.37003E+1	-5.80052E-2	0.00000E+0	0.00000E+0	1.90861E+1	1.40843E+1	1.90865E+1	1.40860E+1
111	12/06/2023	16:40:48.003	0.00000E+0	0.00000E+0	-4.97685E+1	-3.47765E-1	0.00000E+0	0.00000E+0	1.88345E+1	1.43141E+1	1.88360E+1	1.43126E+1
112	12/06/2023	16:40:49.831	0.00000E+0	0.00000E+0	-2.45034E+1	-5.25439E-1	0.00000E+0	0.00000E+0	1.91765E+1	1.39901E+1	1.91752E+1	1.39912E+1
113	12/06/2023	16:40:51.663	0.00000E+0	0.00000E+0	-2.63990E+1	-1.18559E+0	0.00000E+0	0.00000E+0	1.91807E+1	1.39903E+1	1.91797E+1	1.39902E+1
114	12/06/2023	16:40:53.630	0.00000E+0	0.00000E+0	-8.31512E+0	-1.83802E-1	0.00000E+0	0.00000E+0	1.94346E+1	1.37524E+1	1.94352E+1	1.37510E+1
115	12/06/2023	16:40:55.485	0.00000E+0	0.00000E+0	-3.14014E+1	-9.80202E-1	0.00000E+0	0.00000E+0	1.91083E+1	1.40694E+1	1.91083E+1	1.40693E+1
116	12/06/2023	16:40:57.232	0.00000E+0	0.00000E+0	-1.45646E+0	8.56676E-1	0.00000E+0	0.00000E+0	1.95493E+1	1.36460E+1	1.95484E+1	1.36456E+1
117	12/06/2023	16:40:59.202	0.00000E+0	0.00000E+0	-2.73115E+1	7.94106E-1	0.00000E+0	0.00000E+0	1.91809E+1	1.39962E+1	1.91812E+1	1.39939E+1
118	12/06/2023	16:41:01.005	0.00000E+0	0.00000E+0	-2.00044E+1	2.99868E-1	0.00000E+0	0.00000E+0	1.92514E+1	1.39099E+1	1.92478E+1	1.39074E+1
119	12/06/2023	16:41:02.912	0.00000E+0	0.00000E+0	-1.26933E+1	6.03242E-1	0.00000E+0	0.00000E+0	1.93957E+1	1.37864E+1	1.93946E+1	1.37850E+1
120	12/06/2023	16:41:04.781	0.00000E+0	0.00000E+0	-2.44850E+1	-7.59406E-1	0.00000E+0	0.00000E+0	1.92406E+1	1.39226E+1	1.92387E+1	1.39229E+1
121	12/06/2023	16:41:06.674	0.00000E+0	0.00000E+0	-5.24259E+1	1.53175E-1	0.00000E+0	0.00000E+0	1.88203E+1	1.43631E+1	1.88204E+1	1.43618E+1
122	12/06/2023	16:41:08.509	0.00000E+0	0.00000E+0	-2.20650E+1	-5.94475E-1	0.00000E+0	0.00000E+0	1.92288E+1	1.39367E+1	1.92314E+1	1.39350E+1
123	12/06/2023	16:41:10.384	0.00000E+0	0.00000E+0	-3.11243E+1	3.85606E-1	0.00000E+0	0.00000E+0	1.91259E+1	1.40566E+1	1.91284E+1	1.40578E+1
124	12/06/2023	16:41:12.175	0.00000E+0	0.00000E+0	2.40292E+1	-3.23464E-1	0.00000E+0	0.00000E+0	1.98845E+1	1.32943E+1	1.98820E+1	1.32942E+1
125	12/06/2023	16:41:14.093	0.00000E+0	0.00000E+0	3.31028E+1	5.68314E-1	0.00000E+0	0.00000E+0	2.00169E+1	1.31469E+1	2.00178E+1	1.31473E+1
126	12/06/2023	16:41:15.963	0.00000E+0	0.00000E+0	5.29000E+1	4.31852E-1	0.00000E+0	0.00000E+0	2.02940E+1	1.29364E+1	2.02929E+1	1.29349E+1
127	12/06/2023	16:41:17.937	0.00000E+0	0.00000E+0	7.42288E+1	2.33402E+0	0.00000E+0	0.00000E+0	2.05239E+1	1.26132E+1	2.05249E+1	1.26135E+1
128	12/06/2023	16:41:19.686	0.00000E+0	0.00000E+0	1.18793E+2	-2.24264E-1	0.00000E+0	0.00000E+0	2.12543E+1	1.19631E+1	2.12538E+1	1.19628E+1
129	12/06/2023	16:41:21.474	0.00000E+0	0.00000E+0	8.96960E+1	1.05620E+0	0.00000E+0	0.00000E+0	2.08952E+1	1.23122E+1	2.08948E+1	1.23143E+1
130	12/06/2023	16:41:23.282	0.00000E+0	0.00000E+0	-1.43110E+2	3.80228E+0	0.00000E+0	0.00000E+0	1.75851E+1	1.55417E+1	1.75885E+1	1.55443E+1
131	12/06/2023	16:41:25.128	0.00000E+0	0.00000E+0	-1.75289E+2	-1.55854E+0	0.00000E+0	0.00000E+0	1.70369E+1	1.60776E+1	1.70351E+1	1.60785E+1
132	12/06/2023	16:41:26.950	0.00000E+0	0.00000E+0	-9.44646E+1	-2.23956E+0	0.00000E+0	0.00000E+0	1.82009E+1	1.49815E+1	1.82004E+1	1.49809E+1
133	12/06/2023	16:41:28.754	0.00000E+0	0.00000E+0	1.10026E+2	-6.48130E-1	0.00000E+0	0.00000E+0	2.11176E+1	1.20725E+1	2.11216E+1	1.20740E+1
134	12/06/2023	16:41:30.591	0.00000E+0	0.00000E+0	1.66248E+2	1.68291E+0	0.00000E+0	0.00000E+0	2.19339E+1	1.13013E+1	2.19356E+1	1.13009E+1
135	12/06/2023	16:41:32.489	0.00000E+0	0.00000E+0	1.27104E+2	7.96041E-1	0.00000E+0	0.00000E+0	2.13791E+1	1.18258E+1	2.13792E+1	1.18245E+1
136	12/06/2023	16:41:34.306	0.00000E+0	0.00000E+0	-1.18442E+2	-1.38258E+0	0.00000E+0	0.00000E+0	1.79048E+1	1.52378E+1	1.79086E+1	1.52354E+1
137	12/06/2023	16:41:36.108	0.00000E+0	0.00000E+0	-1.93761E+2	-5.47986E-1	0.00000E+0	0.00000E+0	1.68285E+1	1.63088E+1	1.68292E+1	1.63103E+1
138	12/06/2023	16:41:38.184	0.00000E+0	0.00000E+0	-8.45986E+1	-1.04280E+0	0.00000E+0	0.00000E+0	1.82957E+1	1.48634E+1	1.82948E+1	1.48647E+1
139	12/06/2023	16:41:40.004	0.00000E+0	0.00000E+0	1.24099E+2	1.52309E+0	0.00000E+0	0.00000E+0	2.12679E+1	1.19276E+1	2.12678E+1	1.19265E+1
140	12/06/2023	16:41:41.763	0.00000E+0	0.00000E+0	1.81400E+2	1.25693E+0	0.00000E+0	0.00000E+0	2.21513E+1	1.10877E+1	2.21523E+1	1.10875E+1
141	12/06/2023	16:41:43.505	0.00000E+0	0.00000E+0	1.12564E+2	1.74570E+0	0.00000E+0	0.00000E+0	2.12180E+1	1.19893E+1	2.12172E+1	1.19896E+1
142	12/06/2023	16:41:45.241	0.00000E+0	0.00000E+0	-1.69662E+2	-1.24502E+0	0.00000E+0	0.00000E+0	1.71457E+1	1.59654E+1	1.71453E+1	1.59657E+1
143	12/06/2023	16:41:47.057	0.00000E+0	0.00000E+0	-1.55784E+2	-1.23908E+0	0.00000E+0	0.00000E+0	1.73010E+1	1.58119E+1	1.73006E+1	1.58106E+1
144	12/06/2023	16:41:48.892	0.00000E+0	0.00000E+0	1.45073E+2	9.30349E-1	0.00000E+0	0.00000E+0	2.15234E+1	1.16764E+1	2.15266E+1	1.16783E+1
145	12/06/2023	16:41:50.723	0.00000E+0	0.00000E+0	1.97546E+2	2.81683E+0	0.00000E+0	0.00000E+0	2.23420E+1	1.08528E+1	2.23416E+1	1.08537E+1
146	12/06/2023	16:41:52.617	0.00000E+0	0.00000E+0	-5.30552E+1	3.25734E-1	0.00000E+0	0.00000E+0	1.89831E+1	1.41724E+1	1.89827E+1	1.41739E+1
147	12/06/2023	16:41:54.419	0.00000E+0	0.00000E+0	-1.98316E+2	-1.27667E+0	0.00000E+0	0.00000E+0	1.67420E+1	1.63897E+1	1.67426E+1	1.63896E+1
148	12/06/2023	16:41:56.312	0.00000E+0	0.00000E+0	-1.57016E+2	-1.59920E+0	0.00000E+0	0.00000E+0	1.72874E+1	1.58430E+1	1.72892E+1	1.58422E+1
149	12/06/2023	16:41:58.166	0.00000E+0	0.00000E+0	5.27078E+1	3.34598E+0	0.00000E+0	0.00000E+0	2.02248E+1	1.29077E+1	2.02223E+1	1.29065E+1
150	12/06/2023	16:42:00.019	0.00000E+0	0.00000E+0	1.34388E+2	1.79203E+0	0.00000E+0	0.00000E+0	2.14914E+1	1.17214E+1	2.14905E+1	1.17214E+1
151	12/06/2023	16:42:01.858	0.00000E+0	0.00000E+0	1.42801E+2	2.33658E+0	0.00000E+0	0.00000E+0	2.15786E+1	1.16077E+1	2.15806E+1	1.16049E+1
152	12/06/2023	16:42:03.600	0.00000E+0	0.00000E+0	-1.02147E+2	-1.63659E-2	0.00000E+0	0.00000E+0	1.81566E+1	1.49995E+1	1.81578E+1	1.50013E+1
153	12/06/2023	16:42:05.347	0.00000E+0	0.00000E+0	-1.78436E+2	-8.42847E-1	0.00000E+0	0.00000E+0	1.69979E+1	1.61122E+1	1.69986E+1	1.61111E+1
154	12/06/2023	16:42:07.130	0.00000E+0	0.00000E+0	-1.10842E+2	-1.21726E+0	0.00000E+0	0.00000E+0	1.79363E+1	1.51879E+1	1.79357E+1	1.51899E+1
155	12/06/2023	16:42:08.846	0.00000E+0	0.00000E+0	1.07956E+2	7.32569E-1	0.00000E+0	0.00000E+0	2.10335E+1	1.21263E+1	2.10332E+1	1.21271E+1
156	12/06/2023	16:42:10.779	0.00000E+0	0.00000E+0	1.55329E+2	1.24181E+0	0.00000E+0	0.00000E+0	2.17860E+1	1.14392E+1	2.17867E+1	1.14393E+1
157	12/06/2023	16:42:12.544	0.00000E+0	0.00000E+0	1.68376E+2	1.44292E+0	0.00000E+0	0.00000E+0	2.19480E+1	1.12688E+1	2.19501E+1	1.12698E+1
158	12/06/2023	16:42:14.392	0.00000E+0	0.00000E+0	-6.19241E+1	-1.75216E+0	0.00000E+0	0.00000E+0	1.87431E+1	1.44129E+1	1.87430E+1	1.44128E+1
159	12/06/2023	16:42:16.294	0.00000E+0	0.00000E+0	-1.75486E+2	-7.42225E-2	0.00000E+0	0.00000E+0	1.70711E+1	1.60261E+1	1.70704E+1	1.60251E+1
160	12/06/2023	16:42:18.115	0.00000E+0	0.00000E+0	-1.68372E+2	-1.85226E+0	0.00000E+0	0.00000E+0	1.71206E+1	1.60275E+1	1.71192E+1	1.60274E+1
161	12/06/2023	16:42:20.016	0.00000E+0	0.00000E+0	8.28034E+1	7.91214E-1	0.00000E+0	0.00000E+0	2.06676E+1	1.24927E+1	2.06679E+1	1.24936E+1
162	12/06/2023	16:42:21.859	0.00000E+0	0.00000E+0	2.08236E+2	1.98572E+0	0.00000E+0	0.00000E+0	2.25387E+1	1.06352E+1	2.25387E+1	1.06324E+1
163	12/06/2023	16:42:23.729	0.00000E+0	0.00000E+0	1.75238E+2	2.30252E+0	0.00000E+0	0.00000E+0	2.20772E+1	1.11595E+1	2.20775E+1	1.11593E+1
164	12/06/2023	16:42:25.563	0.00000E+0	0.00000E+0	-1.33528E+2	-1.19022E+0	0.00000E+0	0.00000E+0	1.77164E+1	1.54444E+1	1.77180E+1	1.54431E+1
165	12/06/2023	16:42:27.326	0.00000E+0	0.00000E+0	-1.75726E+2	-2.18054E+0	0.00000E+0	0.00000E+0	1.70387E+1	1.60805E+1	1.70396E+1	1.60816E+1
166	12/06/2023	16:42:28.999	0.00000E+0	0.00000E+0	-1.54594E+2	-5.99570E-1	0.00000E+0	0.00000E+0	1.73146E+1	1.58020E+1	1.73156E+1	1.58028E+1
167	12/06/2023	16:42:30.840	0.00000E+0	0.00000E+0	-5.84677E+1	-7.89708E-2	0.00000E+0	0.00000E+0	1.85728E+1	1.45970E+1	1.85729E+1	1.45944E+1
168	12/06/2023	16:42:32.669	0.00000E+0	0.00000E+0	1.74982E+2	1.71619E+0	0.00000E+0	0.00000E+0	2.20402E+1	1.11670E+1	2.20405E+1	1.11671E+1
169	12/06/2023	16:42:34.616	0.00000E+0	0.00000E+0	1.83305E+2	3.00524E-1	0.00000E+0	0.00000E+0	2.21523E+1	1.10514E+1	2.21508E+1	1.10511E+1
170	12/06/2023	16:42:36.408	0.00000E+0	0.00000E+0	1.05610E+2	1.25877E+0	0.00000E+0	0.00000E+0	2.11175E+1	1.20951E+1	2.11173E+1	1.20944E+1
171	12/06/2023	16:42:38.220	0.00000E+0	0.00000E+0	-1.44068E+2	-5.14196E-1	0.00000E+0	0.00000E+0	1.75050E+1	1.56203E+1	1.75058E+1	1.56187E+1
172	12/06/2023	16:42:40.167	0.00000E+0	0.00000E+0	-1.78292E+2	-3.36233E-1	0.00000E+0	0.00000E+0	1.70117E+1	1.61239E+1	1.70089E+1	1.61239E+1
173	12/06/2023	16:42:41.997	0.00000E+0	0.00000E+0	-4.18923E+1	-3.76229E-1	0.00000E+0	0.00000E+0	1.88373E+1	1.43147E+1	1.88355E+1	1.43137E+1
174	12/06/2023	16:42:43.832	0.00000E+0	0.00000E+0	1.82051E+2	1.93987E+0	0.00000E+0	0.00000E+0	2.21422E+1	1.10844E+1	2.21410E+1	1.10843E+1
175	12/06/2023	16:42:45.652	0.00000E+0	0.00000E+0	1.70249E+2	9.34382E-1	0.00000E+0	0.00000E+0	2.20051E+1	1.12063E+1	2.20048E+1	1.12061E+1
176	12/06/2023	16:42:47.407	0.00000E+0	0.00000E+0	-1.75986E+2	-1.77579E+0	0.00000E+0	0.00000E+0	1.71733E+1	1.59454E+1	1.71755E+1	1.59478E+1
177	12/06/2023	16:42:49.345	0.00000E+0	0.00000E+0	-1.61172E+2	-1.90540E+0	0.00000E+0	0.00000E+0	1.72185E+1	1.59315E+1	1.72197E+1	1.59331E+1
178	12/06/2023	16:42:51.096	0.00000E+0	0.00000E+0	-3.30363E+1	-1.08122E+0	0.00000E+0	0.00000E+0	1.89229E+1	1.42450E+1	1.89227E+1	1.42478E+1
179	12/06/2023	16:42:52.832	0.00000E+0	0.00000E+0	1.83229E+2	1.86253E+0	0.00000E+0	0.00000E+0	2.21561E+1	1.10715E+1	2.21554E+1	1.10718E+1
180	12/06/2023	16:42:54.865	0.00000E+0	0.00000E+0	1.49110E+2	1.50404E+0	0.00000E+0	0.00000E+0	2.17095E+1	1.14827E+1	2.17138E+1	1.14807E+1
181	12/06/2023	16:42:56.691	0.00000E+0	0.00000E+0	-2.11146E+2	-2.02146E+0	0.00000E+0	0.00000E+0	1.66005E+1	1.65126E+1	1.66009E+1	1.65125E+1
182	12/06/2023	16:42:58.589	0.00000E+0	0.00000E+0	-1.93083E+2	-9.29267E-1	0.00000E+0	0.00000E+0	1.67341E+1	1.63618E+1	1.67340E+1	1.63624E+1
183	12/06/2023	16:43:00.423	0.00000E+0	0.00000E+0	8.30931E+1	2.42929E+0	0.00000E+0	0.00000E+0	2.07297E+1	1.24507E+1	2.07305E+1	1.24509E+1
184	12/06/2023	16:43:02.233	0.00000E+0	0.00000E+0	1.31983E+2	1.34838E+0	0.00000E+0	0.00000E+0	2.14479E+1	1.17427E+1	2.14484E+1	1.17400E+1
185	12/06/2023	16:43:04.146	0.00000E+0	0.00000E+0	1.16540E+2	1.28255E+0	0.00000E+0	0.00000E+0	2.12790E+1	1.19267E+1	2.12792E+1	1.19262E+1
186	12/06/2023	16:43:06.042	0.00000E+0	0.00000E+0	-1.65830E+2	-1.34697E+0	0.00000E+0	0.00000E+0	1.71601E+1	1.59807E+1	1.71600E+1	1.59818E+1
187	12/06/2023	16:43:07.915	0.00000E+0	0.00000E+0	-9.30204E+1	9.55412E-3	0.00000E+0	0.00000E+0	1.81539E+1	1.49626E+1	1.81529E+1	1.49633E+1
188	12/06/2023	16:43:09.824	0.00000E+0	0.00000E+0	1.31170E+2	8.43403E-1	0.00000E+0	0.00000E+0	2.14076E+1	1.17691E+1	2.14096E+1	1.17698E+1
189	12/06/2023	16:43:11.591	0.00000E+0	0.00000E+0	1.46069E+2	1.92731E+0	0.00000E+0	0.00000E+0	2.16270E+1	1.15597E+1	2.16299E+1	1.15607E+1
190	12/06/2023	16:43:13.402	0.00000E+0	0.00000E+0	3.52533E+1	-9.73250E-1	0.00000E+0	0.00000E+0	2.01687E+1	1.30262E+1	2.01667E+1	1.30273E+1
191	12/06/2023	16:43:15.086	0.00000E+0	0.00000E+0	-1.18263E+2	-6.54824E-1	0.00000E+0	0.00000E+0	1.78654E+1	1.52621E+1	1.78624E+1	1.52640E+1
192	12/06/2023	16:43:16.895	0.00000E+0	0.00000E+0	-1.47518E+2	6.66677E-1	0.00000E+0	0.00000E+0	1.74282E+1	1.57053E+1	1.74305E+1	1.57064E+1
193	12/06/2023	16:43:18.835	0.00000E+0	0.00000E+0	-8.37531E+1	-2.81731E-1	0.00000E+0	0.00000E+0	1.83387E+1	1.48007E+1	1.83386E+1	1.47979E+1
194	12/06/2023	16:43:20.721	0.00000E+0	0.00000E+0	1.16586E+2	7.35400E-1	0.00000E+0	0.00000E+0	2.11675E+1	1.20081E+1	2.11666E+1	1.20070E+1
195	12/06/2023	16:43:22.616	0.00000E+0	0.00000E+0	1.51574E+2	2.02920E+0	0.00000E+0	0.00000E+0	2.17081E+1	1.15046E+1	2.17066E+1	1.15048E+1
196	12/06/2023	16:43:24.440	0.00000E+0	0.00000E+0	1.05780E+2	6.74049E-1	0.00000E+0	0.00000E+0	2.11051E+1	1.21100E+1	2.11042E+1	1.21104E+1
197	12/06/2023	16:43:26.307	0.00000E+0	0.00000E+0	-1.35715E+2	-8.89105E-1	0.00000E+0	0.00000E+0	1.76412E+1	1.54997E+1	1.76400E+1	1.55017E+1
198	12/06/2023	16:43:28.154	0.00000E+0	0.00000E+0	-1.63010E+2	-1.76449E+0	0.00000E+0	0.00000E+0	1.72598E+1	1.58969E+1	1.72615E+1	1.58992E+1
199	12/06/2023	16:43:29.903	0.00000E+0	0.00000E+0	-1.15186E+2	-4.10748E-1	0.00000E+0	0.00000E+0	1.78836E+1	1.52787E+1	1.78834E+1	1.52791E+1
200	12/06/2023	16:43:31.714	0.00000E+0	0.00000E+0	1.22782E+2	7.11953E-2	0.00000E+0	0.00000E+0	2.12649E+1	1.19275E+1	2.12661E+1	1.19274E+1
201	12/06/2023	16:43:33.550	0.00000E+0	0.00000E+0	1.54665E+2	6.39397E-2	0.00000E+0	0.00000E+0	2.17533E+1	1.14587E+1	2.17541E+1	1.14587E+1
202	12/06/2023	16:43:35.237	0.00000E+0	0.00000E+0	1.30584E+2	1.65603E+0	0.00000E+0	0.00000E+0	2.14440E+1	1.17729E+1	2.14447E+1	1.17745E+1
203	12/06/2023	16:43:37.008	0.00000E+0	0.00000E+0	-1.17059E+2	-5.88724E-1	0.00000E+0	0.00000E+0	1.79139E+1	1.52079E+1	1.79133E+1	1.52083E+1
204	12/06/2023	16:43:38.804	0.00000E+0	0.00000E+0	-1.59215E+2	-1.24792E+0	0.00000E+0	0.00000E+0	1.73157E+1	1.58269E+1	1.73142E+1	1.58274E+1
205	12/06/2023	16:43:40.695	0.00000E+0	0.00000E+0	-1.00840E+2	-4.48517E-1	0.00000E+0	0.00000E+0	1.80973E+1	1.50561E+1	1.80993E+1	1.50583E+1
206	12/06/2023	16:43:42.601	0.00000E+0	0.00000E+0	1.26263E+2	9.99628E-1	0.00000E+0	0.00000E+0	2.12898E+1	1.18613E+1	2.12901E+1	1.18622E+1
207	12/06/2023	16:43:44.566	0.00000E+0	0.00000E+0	1.41108E+2	1.50609E+0	0.00000E+0	0.00000E+0	2.15989E+1	1.16115E+1	2.15989E+1	1.16112E+1
208	12/06/2023	16:43:46.723	0.00000E+0	0.00000E+0	5.09427E+1	7.63094E-1	0.00000E+0	0.00000E+0	2.03830E+1	1.27986E+1	2.03825E+1	1.27977E+1
209	12/06/2023	16:43:48.637	0.00000E+0	0.00000E+0	-1.60242E+2	-1.53846E+0	0.00000E+0	0.00000E+0	1.72982E+1	1.58505E+1	1.72963E+1	1.58500E+1
210	12/06/2023	16:43:50.442	0.00000E+0	0.00000E+0	-1.72367E+2	-1.87118E+0	0.00000E+0	0.00000E+0	1.70899E+1	1.60455E+1	1.70892E+1	1.60463E+1
211	12/06/2023	16:43:52.301	0.00000E+0	0.00000E+0	5.99821E+1	-1.87353E+0	0.00000E+0	0.00000E+0	2.03646E+1	1.28822E+1	2.03639E+1	1.28834E+1
212	12/06/2023	16:43:54.048	0.00000E+0	0.00000E+0	1.46216E+2	-8.74754E-1	0.00000E+0	0.00000E+0	2.16098E+1	1.15908E+1	2.16086E+1	1.15907E+1
213	12/06/2023	16:43:55.852	0.00000E+0	0.00000E+0	1.68093E+2	1.06967E+0	0.00000E+0	0.00000E+0	2.19261E+1	1.12717E+1	2.19271E+1	1.12719E+1
214	12/06/2023	16:43:57.705	0.00000E+0	0.00000E+0	-6.15225E+1	-1.12894E+0	0.00000E+0	0.00000E+0	1.87367E+1	1.44440E+1	1.87375E+1	1.44437E+1
215	12/06/2023	16:43:59.438	0.00000E+0	0.00000E+0	-1.30374E+2	-1.06797E+0	0.00000E+0	0.00000E+0	1.77111E+1	1.54336E+1	1.77100E+1	1.54352E+1
216	12/06/2023	16:44:01.398	0.00000E+0	0.00000E+0	-1.61335E+2	-1.53742E+0	0.00000E+0	0.00000E+0	1.72692E+1	1.58671E+1	1.72700E+1	1.58652E+1
217	12/06/2023	16:44:03.324	0.00000E+0	0.00000E+0	1.49200E+2	5.82846E-1	0.00000E+0	0.00000E+0	2.16897E+1	1.16021E+1	2.16876E+1	1.16023E+1
218	12/06/2023	16:44:05.331	0.00000E+0	0.00000E+0	1.36545E+2	1.23593E+0	0.00000E+0	0.00000E+0	2.14896E+1	1.16960E+1	2.14882E+1	1.16975E+1
219	12/06/2023	16:44:07.381	0.00000E+0	0.00000E+0	-8.81783E+1	-9.53776E-1	0.00000E+0	0.00000E+0	1.83481E+1	1.48495E+1	1.83453E+1	1.48493E+1
220	12/06/2023	16:44:09.280	0.00000E+0	0.00000E+0	-1.46118E+2	-2.22279E+0	0.00000E+0	0.00000E+0	1.74906E+1	1.56870E+1	1.74879E+1	1.56871E+1
221	12/06/2023	16:44:11.185	0.00000E+0	0.00000E+0	-1.02661E+2	6.57859E-3	0.00000E+0	0.00000E+0	1.79998E+1	1.51466E+1	1.79994E+1	1.51479E+1
222	12/06/2023	16:44:13.089	0.00000E+0	0.00000E+0	1.70872E+2	3.11788E+0	0.00000E+0	0.00000E+0	2.19554E+1	1.12372E+1	2.19566E+1	1.12376E+1
223	12/06/2023	16:44:15.022	0.00000E+0	0.00000E+0	1.78044E+2	1.15004E+0	0.00000E+0	0.00000E+0	2.21362E+1	1.11069E+1	2.21349E+1	1.11064E+1
224	12/06/2023	16:44:16.982	0.00000E+0	0.00000E+0	-5.86449E+1	1.28013E+0	0.00000E+0	0.00000E+0	1.88050E+1	1.43697E+1	1.88042E+1	1.43691E+1
225	12/06/2023	16:44:18.800	0.00000E+0	0.00000E+0	-1.73992E+2	-2.20579E+0	0.00000E+0	0.00000E+0	1.70822E+1	1.60696E+1	1.70807E+1	1.60703E+1
226	12/06/2023	16:44:20.549	0.00000E+0	0.00000E+0	-1.63524E+2	5.89237E-2	0.00000E+0	0.00000E+0	1.71509E+1	1.59510E+1	1.71514E+1	1.59513E+1
227	12/06/2023	16:44:22.436	0.00000E+0	0.00000E+0	6.40696E+1	-5.03161E-1	0.00000E+0	0.00000E+0	2.04017E+1	1.28290E+1	2.04010E+1	1.28308E+1
228	12/06/2023	16:44:24.383	0.00000E+0	0.00000E+0	1.61136E+2	1.64518E+0	0.00000E+0	0.00000E+0	2.18523E+1	1.13667E+1	2.18523E+1	1.13684E+1
229	12/06/2023	16:44:26.297	0.00000E+0	0.00000E+0	1.57366E+2	5.48964E-1	0.00000E+0	0.00000E+0	2.18247E+1	1.13943E+1	2.18270E+1	1.13936E+1
230	12/06/2023	16:44:28.265	0.00000E+0	0.00000E+0	-1.10172E+2	-3.84636E-1	0.00000E+0	0.00000E+0	1.80177E+1	1.51081E+1	1.80158E+1	1.51066E+1
231	12/06/2023	16:44:30.192	0.00000E+0	0.00000E+0	-1.94311E+2	-2.86546E+0	0.00000E+0	0.00000E+0	1.68168E+1	1.63598E+1	1.68164E+1	1.63592E+1
232	12/06/2023	16:44:32.276	0.00000E+0	0.00000E+0	-1.02178E+2	-5.90038E-1	0.00000E+0	0.00000E+0	1.80350E+1	1.50874E+1	1.80354E+1	1.50874E+1
233	12/06/2023	16:44:34.153	0.00000E+0	0.00000E+0	1.49076E+2	9.77172E-1	0.00000E+0	0.00000E+0	2.16455E+1	1.15715E+1	2.16435E+1	1.15704E+1
234	12/06/2023	16:44:36.051	0.00000E+0	0.00000E+0	1.70896E+2	2.20861E+0	0.00000E+0	0.00000E+0	2.19588E+1	1.12419E+1	2.19587E+1	1.12431E+1
235	12/06/2023	16:44:37.983	0.00000E+0	0.00000E+0	5.35554E+1	1.68205E-1	0.00000E+0	0.00000E+0	2.04543E+1	1.27236E+1	2.04543E+1	1.27254E+1
236	12/06/2023	16:44:39.970	0.00000E+0	0.00000E+0	-1.81713E+2	-1.83561E+0	0.00000E+0	0.00000E+0	1.69895E+1	1.61429E+1	1.69881E+1	1.61410E+1
237	12/06/2023	16:44:41.822	0.00000E+0	0.00000E+0	-1.61427E+2	-8.61106E-1	0.00000E+0	0.00000E+0	1.72504E+1	1.58995E+1	1.72492E+1	1.59002E+1
238	12/06/2023	16:44:43.633	0.00000E+0	0.00000E+0	6.43337E+1	-5.79070E-1	0.00000E+0	0.00000E+0	2.04087E+1	1.27952E+1	2.04083E+1	1.27956E+1
239	12/06/2023	16:44:45.474	0.00000E+0	0.00000E+0	1.85562E+2	3.39179E+0	0.00000E+0	0.00000E+0	2.21893E+1	1.10647E+1	2.21910E+1	1.10647E+1
240	12/06/2023	16:44:47.441	0.00000E+0	0.00000E+0	1.45195E+2	2.09077E+0	0.00000E+0	0.00000E+0	2.16696E+1	1.15301E+1	2.16715E+1	1.15283E+1
241	12/06/2023	16:44:49.359	0.00000E+0	0.00000E+0	-1.39601E+2	-2.56222E+0	0.00000E+0	0.00000E+0	1.76213E+1	1.55169E+1	1.76207E+1	1.55172E+1
242	12/06/2023	16:44:51.363	0.00000E+0	0.00000E+0	-1.79299E+2	-9.80976E-1	0.00000E+0	0.00000E+0	1.70282E+1	1.61235E+1	1.70282E+1	1.61263E+1
243	12/06/2023	16:44:53.290	0.00000E+0	0.00000E+0	-6.40486E+1	3.29239E-1	0.00000E+0	0.00000E+0	1.85837E+1	1.46146E+1	1.85821E+1	1.46146E+1
244	12/06/2023	16:44:55.209	0.00000E+0	0.00000E+0	1.56762E+2	6.88113E-1	0.00000E+0	0.00000E+0	2.17599E+1	1.14483E+1	2.17594E+1	1.14490E+1
245	12/06/2023	16:44:57.161	0.00000E+0	0.00000E+0	2.29762E+2	1.55913E+0	0.00000E+0	0.00000E+0	2.28501E+1	1.04045E+1	2.28516E+1	1.04039E+1
246	12/06/2023	16:44:59.062	0.00000E+0	0.00000E+0	-1.23400E+2	-1.00120E+0	0.00000E+0	0.00000E+0	1.78474E+1	1.52863E+1	1.78485E+1	1.52860E+1
247	12/06/2023	16:45:01.044	0.00000E+0	0.00000E+0	-2.33644E+2	-1.30935E+0	0.00000E+0	0.00000E+0	1.62553E+1	1.68334E+1	1.62561E+1	1.68333E+1
248	12/06/2023	16:45:03.021	0.00000E+0	0.00000E+0	1.49122E+1	1.40435E-1	0.00000E+0	0.00000E+0	1.96140E+1	1.35696E+1	1.96125E+1	1.35711E+1
249	12/06/2023	16:45:04.908	0.00000E+0	0.00000E+0	2.10127E+2	1.01439E+0	0.00000E+0	0.00000E+0	2.25428E+1	1.06904E+1	2.25452E+1	1.06902E+1
250	12/06/2023	16:45:06.811	0.00000E+0	0.00000E+0	1.73010E+2	1.59577E+0	0.00000E+0	0.00000E+0	2.20567E+1	1.11354E+1	2.20583E+1	1.11361E+1
251	12/06/2023	16:45:08.577	0.00000E+0	0.00000E+0	-1.43822E+2	-1.29127E+0	0.00000E+0	0.00000E+0	1.75410E+1	1.55760E+1	1.75418E+1	1.55750E+1
252	12/06/2023	16:45:10.508	0.00000E+0	0.00000E+0	-2.39318E+2	-6.17305E-1	0.00000E+0	0.00000E+0	1.61625E+1	1.69737E+1	1.61619E+1	1.69740E+1
253	12/06/2023	16:45:12.490	0.00000E+0	0.00000E+0	7.13783E+1	2.10807E+0	0.00000E+0	0.00000E+0	2.04785E+1	1.27582E+1	2.04797E+1	1.27592E+1
254	12/06/2023	16:45:14.452	0.00000E+0	0.00000E+0	2.15827E+2	1.96912E+0	0.00000E+0	0.00000E+0	2.26151E+1	1.05878E+1	2.26150E+1	1.05881E+1
255	12/06/2023	16:45:16.366	0.00000E+0	0.00000E+0	1.01762E+2	1.55503E+0	0.00000E+0	0.00000E+0	2.11149E+1	1.20781E+1	2.11142E+1	1.20799E+1
256	12/06/2023	16:45:18.369	0.00000E+0	0.00000E+0	-2.12527E+2	-9.06614E-1	0.00000E+0	0.00000E+0	1.65474E+1	1.65630E+1	1.65487E+1	1.65624E+1
257	12/06/2023	16:45:20.290	0.00000E+0	0.00000E+0	-2.05149E+2	-3.15291E-1	0.00000E+0	0.00000E+0	1.66251E+1	1.64878E+1	1.66238E+1	1.64869E+1
258	12/06/2023	16:45:22.231	0.00000E+0	0.00000E+0	4.81361E+1	5.27228E-1	0.00000E+0	0.00000E+0	2.01388E+1	1.30461E+1	2.01367E+1	1.30464E+1
259	12/06/2023	16:45:24.207	0.00000E+0	0.00000E+0	2.05917E+2	3.02597E+0	0.00000E+0	0.00000E+0	2.24580E+1	1.07567E+1	2.24576E+1	1.07562E+1
260	12/06/2023	16:45:25.988	0.00000E+0	0.00000E+0	2.18339E+2	2.33098E+0	0.00000E+0	0.00000E+0	2.26874E+1	1.05456E+1	2.26857E+1	1.05451E+1
261	12/06/2023	16:45:27.899	0.00000E+0	0.00000E+0	-1.22599E+2	-9.34830E-1	0.00000E+0	0.00000E+0	1.79055E+1	1.52539E+1	1.79050E+1	1.52539E+1
262	12/06/2023	16:45:29.647	0.00000E+0	0.00000E+0	-2.35138E+2	-2.24601E+0	0.00000E+0	0.00000E+0	1.61984E+1	1.69234E+1	1.61964E+1	1.69223E+1
263	12/06/2023	16:45:31.496	0.00000E+0	0.00000E+0	-1.64227E+2	-2.43181E-1	0.00000E+0	0.00000E+0	1.71459E+1	1.60081E+1	1.71464E+1	1.60089E+1
264	12/06/2023	16:45:33.573	0.00000E+0	0.00000E+0	1.83441E+2	1.93105E+0	0.00000E+0	0.00000E+0	2.20832E+1	1.11345E+1	2.20830E+1	1.11340E+1
265	12/06/2023	16:45:35.478	0.00000E+0	0.00000E+0	2.34743E+2	2.15217E+0	0.00000E+0	0.00000E+0	2.29062E+1	1.03310E+1	2.29047E+1	1.03306E+1
266	12/06/2023	16:45:37.508	0.00000E+0	0.00000E+0	3.98940E+1	-6.32294E-2	0.00000E+0	0.00000E+0	2.02428E+1	1.29318E+1	2.02432E+1	1.29309E+1
267	12/06/2023	16:45:39.416	0.00000E+0	0.00000E+0	-2.04963E+2	-1.78285E+0	0.00000E+0	0.00000E+0	1.66572E+1	1.64543E+1	1.66590E+1	1.64527E+1
268	12/06/2023	16:45:41.363	0.00000E+0	0.00000E+0	-1.87025E+2	-2.83888E+0	0.00000E+0	0.00000E+0	1.69080E+1	1.62561E+1	1.69084E+1	1.62543E+1
269	12/06/2023	16:45:43.350	0.00000E+0	0.00000E+0	-3.48343E+1	-1.24151E+0	0.00000E+0	0.00000E+0	1.89174E+1	1.42630E+1	1.89189E+1	1.42627E+1
270	12/06/2023	16:45:45.251	0.00000E+0	0.00000E+0	1.49277E+2	7.05614E-1	0.00000E+0	0.00000E+0	2.16737E+1	1.15634E+1	2.16740E+1	1.15631E+1
271	12/06/2023	16:45:47.270	0.00000E+0	0.00000E+0	1.55580E+2	1.87975E+0	0.00000E+0	0.00000E+0	2.17579E+1	1.14494E+1	2.17600E+1	1.14500E+1
272	12/06/2023	16:45:49.116	0.00000E+0	0.00000E+0	9.90903E+1	1.17994E+0	0.00000E+0	0.00000E+0	2.10595E+1	1.21453E+1	2.10612E+1	1.21461E+1
273	12/06/2023	16:45:50.886	0.00000E+0	0.00000E+0	-7.88478E+1	-6.76232E-1	0.00000E+0	0.00000E+0	1.84738E+1	1.47154E+1	1.84747E+1	1.47141E+1
274	12/06/2023	16:45:52.790	0.00000E+0	0.00000E+0	-1.12884E+2	-1.04463E+0	0.00000E+0	0.00000E+0	1.79262E+1	1.52187E+1	1.79255E+1	1.52195E+1
275	12/06/2023	16:45:54.492	0.00000E+0	0.00000E+0	-6.12898E+1	-1.34254E+0	0.00000E+0	0.00000E+0	1.86450E+1	1.45127E+1	1.86468E+1	1.45143E+1
276	12/06/2023	16:45:56.303	0.00000E+0	0.00000E+0	5.70326E+1	-2.77450E-2	0.00000E+0	0.00000E+0	2.03733E+1	1.28722E+1	2.03743E+1	1.28707E+1
277	12/06/2023	16:45:58.238	0.00000E+0	0.00000E+0	1.02288E+2	1.89372E+0	0.00000E+0	0.00000E+0	2.10346E+1	1.21765E+1	2.10391E+1	1.21763E+1
278	12/06/2023	16:46:00.158	0.00000E+0	0.00000E+0	1.00372E+2	3.39854E-1	0.00000E+0	0.00000E+0	2.09963E+1	1.22039E+1	2.09971E+1	1.22028E+1
279	12/06/2023	16:46:02.197	0.00000E+0	0.00000E+0	-3.65930E+1	-1.04766E+0	0.00000E+0	0.00000E+0	1.90510E+1	1.40981E+1	1.90501E+1	1.40962E+1
280	12/06/2023	16:46:04.098	0.00000E+0	0.00000E+0	-4.67528E+1	-1.00042E-1	0.00000E+0	0.00000E+0	1.88923E+1	1.42733E+1	1.88927E+1	1.42738E+1
281	12/06/2023	16:46:06.100	0.00000E+0	0.00000E+0	-4.23617E+1	-1.23195E+0	0.00000E+0	0.00000E+0	1.89459E+1	1.42132E+1	1.89457E+1	1.42139E+1
282	12/06/2023	16:46:08.113	0.00000E+0	0.00000E+0	-2.54187E+1	1.88507E-1	0.00000E+0	0.00000E+0	1.91939E+1	1.39774E+1	1.91960E+1	1.39788E+1
283	12/06/2023	16:46:09.960	0.00000E+0	0.00000E+0	-2.88260E+1	1.71320E-1	0.00000E+0	0.00000E+0	1.91571E+1	1.40227E+1	1.91570E+1	1.40206E+1
284	12/06/2023	16:46:11.926	0.00000E+0	0.00000E+0	-2.47258E+1	3.16386E-1	0.00000E+0	0.00000E+0	1.91671E+1	1.40004E+1	1.91680E+1	1.40025E+1
285	12/06/2023	16:46:13.823	0.00000E+0	0.00000E+0	-2.12024E+1	-2.26492E-1	0.00000E+0	0.00000E+0	1.92685E+1	1.39318E+1	1.92680E+1	1.39348E+1
286	12/06/2023	16:46:15.630	0.00000E+0	0.00000E+0	-8.97851E+0	1.09373E+0	0.00000E+0	0.00000E+0	1.94353E+1	1.37727E+1	1.94354E+1	1.37725E+1
287	12/06/2023	16:46:17.476	0.00000E+0	0.00000E+0	-4.05941E+1	2.81955E-1	0.00000E+0	0.00000E+0	1.89819E+1	1.41672E+1	1.89829E+1	1.41682E+1
288	12/06/2023	16:46:19.416	0.00000E+0	0.00000E+0	1.98525E+1	-2.25171E-2	0.00000E+0	0.00000E+0	1.98240E+1	1.33481E+1	1.98232E+1	1.33471E+1
289	12/06/2023	16:46:21.311	0.00000E+0	0.00000E+0	2.80884E+1	-1.10189E+0	0.00000E+0	0.00000E+0	1.99666E+1	1.32528E+1	1.99643E+1	1.32551E+1
290	12/06/2023	16:46:23.316	0.00000E+0	0.00000E+0	1.89325E+1	2.67811E-1	0.00000E+0	0.00000E+0	1.98057E+1	1.33686E+1	1.98057E+1	1.33693E+1
291	12/06/2023	16:46:25.242	0.00000E+0	0.00000E+0	1.34025E+1	1.11565E+0	0.00000E+0	0.00000E+0	1.97347E+1	1.34216E+1	1.97328E+1	1.34203E+1
292	12/06/2023	16:46:27.250	0.00000E+0	0.00000E+0	2.78538E+1	5.53588E-1	0.00000E+0	0.00000E+0	1.99253E+1	1.32361E+1	1.99230E+1	1.32366E+1
293	12/06/2023	16:46:29.164	0.00000E+0	0.00000E+0	3.40352E+1	9.34327E-1	0.00000E+0	0.00000E+0	2.00544E+1	1.31188E+1	2.00559E+1	1.31189E+1
294	12/06/2023	16:46:31.070	0.00000E+0	0.00000E+0	3.98081E+1	1.44598E+0	0.00000E+0	0.00000E+0	2.01127E+1	1.30685E+1	2.01123E+1	1.30678E+1
295	12/06/2023	16:46:33.114	0.00000E+0	0.00000E+0	4.08638E+1	9.17616E-2	0.00000E+0	0.00000E+0	2.01415E+1	1.30391E+1	2.01397E+1	1.30381E+1
296	12/06/2023	16:46:34.867	0.00000E+0	0.00000E+0	3.97157E+1	8.08816E-1	0.00000E+0	0.00000E+0	2.01113E+1	1.30806E+1	2.01090E+1	1.30796E+1
297	12/06/2023	16:46:36.731	0.00000E+0	0.00000E+0	1.64395E+1	-9.42746E-1	0.00000E+0	0.00000E+0	1.98998E+1	1.32918E+1	1.99010E+1	1.32921E+1
298	12/06/2023	16:46:38.619	0.00000E+0	0.00000E+0	-4.51651E+1	2.11661E-1	0.00000E+0	0.00000E+0	1.88853E+1	1.42435E+1	1.88838E+1	1.42432E+1
299	12/06/2023	16:46:40.358	0.00000E+0	0.00000E+0	-4.66774E+1	-7.44113E-1	0.00000E+0	0.00000E+0	1.88649E+1	1.43044E+1	1.88648E+1	1.43029E+1
300	12/06/2023	16:46:42.289	0.00000E+0	0.00000E+0	-5.68385E+1	-5.78196E-1	0.00000E+0	0.00000E+0	1.87332E+1	1.44252E+1	1.87324E+1	1.44259E+1
301	12/06/2023	16:46:44.213	0.00000E+0	0.00000E+0	-3.24163E+1	-4.59606E-1	0.00000E+0	0.00000E+0	1.91249E+1	1.40503E+1	1.91263E+1	1.40484E+1
302	12/06/2023	16:46:46.178	0.00000E+0	0.00000E+0	-4.25039E+1	1.56220E+0	0.00000E+0	0.00000E+0	1.89426E+1	1.42117E+1	1.89440E+1	1.42105E+1
303	12/06/2023	16:46:48.219	0.00000E+0	0.00000E+0	-6.04515E+1	-4.82600E-1	0.00000E+0	0.00000E+0	1.86641E+1	1.45021E+1	1.86637E+1	1.45013E+1
304	12/06/2023	16:46:50.144	0.00000E+0	0.00000E+0	3.70767E+0	2.75242E-1	0.00000E+0	0.00000E+0	1.95697E+1	1.36181E+1	1.95698E+1	1.36176E+1
305	12/06/2023	16:46:52.147	0.00000E+0	0.00000E+0	4.63802E+1	1.10857E+0	0.00000E+0	0.00000E+0	2.01647E+1	1.30195E+1	2.01641E+1	1.30199E+1
306	12/06/2023	16:46:54.067	0.00000E+0	0.00000E+0	3.64934E+1	1.37745E+0	0.00000E+0	0.00000E+0	2.00598E+1	1.31287E+1	2.00595E+1	1.31296E+1
307	12/06/2023	16:46:55.995	0.00000E+0	0.00000E+0	4.01157E+1	-6.38803E-1	0.00000E+0	0.00000E+0	2.00948E+1	1.30443E+1	2.00926E+1	1.30433E+1
308	12/06/2023	16:46:57.918	0.00000E+0	0.00000E+0	5.13403E+1	-2.08947E-1	0.00000E+0	0.00000E+0	2.02770E+1	1.28630E+1	2.02773E+1	1.28628E+1
309	12/06/2023	16:46:59.684	0.00000E+0	0.00000E+0	6.62382E+1	8.32789E-1	0.00000E+0	0.00000E+0	2.04933E+1	1.27030E+1	2.04919E+1	1.27063E+1
310	12/06/2023	16:47:01.492	0.00000E+0	0.00000E+0	6.08913E+1	4.39258E-1	0.00000E+0	0.00000E+0	2.04213E+1	1.27561E+1	2.04201E+1	1.27566E+1
311	12/06/2023	16:47:03.419	0.00000E+0	0.00000E+0	-5.90731E+1	2.50715E-1	0.00000E+0	0.00000E+0	1.87406E+1	1.44170E+1	1.87421E+1	1.44168E+1
312	12/06/2023	16:47:05.342	0.00000E+0	0.00000E+0	-5.79702E+1	-1.00763E+0	0.00000E+0	0.00000E+0	1.87278E+1	1.44428E+1	1.87263E+1	1.44428E+1
313	12/06/2023	16:47:07.358	0.00000E+0	0.00000E+0	-4.86889E+1	-1.11886E+0	0.00000E+0	0.00000E+0	1.88143E+1	1.43294E+1	1.88131E+1	1.43288E+1
314	12/06/2023	16:47:09.205	0.00000E+0	0.00000E+0	-4.03376E+1	-1.07702E+0	0.00000E+0	0.00000E+0	1.89654E+1	1.42050E+1	1.89640E+1	1.42023E+1
315	12/06/2023	16:47:11.169	0.00000E+0	0.00000E+0	-4.84383E+1	1.12925E+0	0.00000E+0	0.00000E+0	1.88779E+1	1.43140E+1	1.88768E+1	1.43158E+1
316	12/06/2023	16:47:13.257	0.00000E+0	0.00000E+0	-3.91128E+1	3.14538E-1	0.00000E+0	0.00000E+0	1.89834E+1	1.41791E+1	1.89835E+1	1.41775E+1
317	12/06/2023	16:47:15.205	0.00000E+0	0.00000E+0	-4.97737E+1	-1.07333E+0	0.00000E+0	0.00000E+0	1.88054E+1	1.43428E+1	1.88082E+1	1.43421E+1
318	12/06/2023	16:47:17.143	0.00000E+0	0.00000E+0	5.25454E+1	-5.51466E-1	0.00000E+0	0.00000E+0	2.03236E+1	1.29143E+1	2.03237E+1	1.29153E+1
319	12/06/2023	16:47:19.130	0.00000E+0	0.00000E+0	3.02790E+1	1.65633E-1	0.00000E+0	0.00000E+0	1.99547E+1	1.31880E+1	1.99528E+1	1.31865E+1
320	12/06/2023	16:47:21.005	0.00000E+0	0.00000E+0	4.99607E+1	3.65514E+0	0.00000E+0	0.00000E+0	2.02614E+1	1.29168E+1	2.02593E+1	1.29153E+1
321	12/06/2023	16:47:22.993	0.00000E+0	0.00000E+0	6.37571E+1	6.71852E-1	0.00000E+0	0.00000E+0	2.04333E+1	1.27551E+1	2.04344E+1	1.27551E+1
322	12/06/2023	16:47:24.800	0.00000E+0	0.00000E+0	5.79840E+1	-9.44943E-2	0.00000E+0	0.00000E+0	2.04099E+1	1.27918E+1	2.04097E+1	1.27927E+1
323	12/06/2023	16:47:26.592	0.00000E+0	0.00000E+0	7.25742E+1	5.12161E-1	0.00000E+0	0.00000E+0	2.05675E+1	1.25969E+1	2.05667E+1	1.25981E+1
324	12/06/2023	16:47:28.598	0.00000E+0	0.00000E+0	-9.33662E+1	-6.37105E-1	0.00000E+0	0.00000E+0	1.82271E+1	1.49264E+1	1.82257E+1	1.49264E+1
325	12/06/2023	16:47:30.514	0.00000E+0	0.00000E+0	-7.27437E+1	-8.23788E-1	0.00000E+0	0.00000E+0	1.85188E+1	1.46410E+1	1.85187E+1	1.46392E+1
326	12/06/2023	16:47:32.525	0.00000E+0	0.00000E+0	-4.05936E+1	-6.77201E-1	0.00000E+0	0.00000E+0	1.89642E+1	1.42144E+1	1.89631E+1	1.42148E+1
327	12/06/2023	16:47:34.445	0.00000E+0	0.00000E+0	-5.73368E+1	-4.98848E-2	0.00000E+0	0.00000E+0	1.87164E+1	1.44568E+1	1.87164E+1	1.44569E+1
328	12/06/2023	16:47:36.369	0.00000E+0	0.00000E+0	-6.27547E+1	3.74684E-1	0.00000E+0	0.00000E+0	1.87032E+1	1.44721E+1	1.87041E+1	1.44723E+1
329	12/06/2023	16:47:38.374	0.00000E+0	0.00000E+0	5.00107E+1	2.34470E+0	0.00000E+0	0.00000E+0	2.02213E+1	1.29614E+1	2.02244E+1	1.29602E+1
330	12/06/2023	16:47:40.297	0.00000E+0	0.00000E+0	4.77261E+1	1.78395E-1	0.00000E+0	0.00000E+0	2.02066E+1	1.29727E+1	2.02063E+1	1.29727E+1
331	12/06/2023	16:47:42.060	0.00000E+0	0.00000E+0	-6.97177E+1	-4.47930E-1	0.00000E+0	0.00000E+0	1.85880E+1	1.45950E+1	1.85887E+1	1.45944E+1
332	12/06/2023	16:47:44.061	0.00000E+0	0.00000E+0	-4.87053E+1	-2.64112E+0	0.00000E+0	0.00000E+0	1.89174E+1	1.42865E+1	1.89169E+1	1.42851E+1
333	12/06/2023	16:47:45.917	0.00000E+0	0.00000E+0	5.03371E+1	-1.08630E-2	0.00000E+0	0.00000E+0	2.03362E+1	1.28700E+1	2.03355E+1	1.28693E+1
334	12/06/2023	16:47:47.834	0.00000E+0	0.00000E+0	4.76611E+1	-8.33786E-1	0.00000E+0	0.00000E+0	2.01909E+1	1.29673E+1	2.01889E+1	1.29682E+1
335	12/06/2023	16:47:49.567	0.00000E+0	0.00000E+0	6.71824E+1	-2.76063E-1	0.00000E+0	0.00000E+0	2.04911E+1	1.26816E+1	2.04920E+1	1.26810E+1
336	12/06/2023	16:47:51.486	0.00000E+0	0.00000E+0	-5.66538E+1	6.96270E-1	0.00000E+0	0.00000E+0	1.87608E+1	1.43813E+1	1.87585E+1	1.43810E+1
337	12/06/2023	16:47:53.492	0.00000E+0	0.00000E+0	3.75804E+1	2.57456E-1	0.00000E+0	0.00000E+0	2.00459E+1	1.31197E+1	2.00465E+1	1.31218E+1
338	12/06/2023	16:47:55.415	0.00000E+0	0.00000E+0	5.95646E+1	1.70965E+0	0.00000E+0	0.00000E+0	2.04533E+1	1.27567E+1	2.04540E+1	1.27570E+1
339	12/06/2023	16:47:57.418	0.00000E+0	0.00000E+0	1.27600E+1	2.98184E-1	0.00000E+0	0.00000E+0	1.97480E+1	1.34363E+1	1.97489E+1	1.34354E+1
340	12/06/2023	16:47:59.339	0.00000E+0	0.00000E+0	9.45313E+0	9.49899E-2	0.00000E+0	0.00000E+0	1.96859E+1	1.34962E+1	1.96842E+1	1.34976E+1
341	12/06/2023	16:48:01.262	0.00000E+0	0.00000E+0	3.02694E+1	-3.72764E-1	0.00000E+0	0.00000E+0	2.00005E+1	1.31841E+1	1.99994E+1	1.31826E+1
342	12/06/2023	16:48:03.205	0.00000E+0	0.00000E+0	3.29229E+0	-3.23484E-1	0.00000E+0	0.00000E+0	1.96056E+1	1.35677E+1	1.96060E+1	1.35685E+1
343	12/06/2023	16:48:04.969	0.00000E+0	0.00000E+0	1.77602E+1	-1.03311E-1	0.00000E+0	0.00000E+0	1.97935E+1	1.33841E+1	1.97918E+1	1.33855E+1
344	12/06/2023	16:48:06.978	0.00000E+0	0.00000E+0	1.38517E+1	4.64117E-1	0.00000E+0	0.00000E+0	1.97545E+1	1.34297E+1	1.97563E+1	1.34297E+1
345	12/06/2023	16:48:08.965	0.00000E+0	0.00000E+0	2.40505E+1	7.86435E-1	0.00000E+0	0.00000E+0	1.98977E+1	1.32936E+1	1.98970E+1	1.32943E+1
346	12/06/2023	16:48:10.799	0.00000E+0	0.00000E+0	-2.01884E+1	-6.29450E-1	0.00000E+0	0.00000E+0	1.92803E+1	1.38887E+1	1.92795E+1	1.38891E+1
347	12/06/2023	16:48:12.566	0.00000E+0	0.00000E+0	-2.15669E+1	8.06185E-1	0.00000E+0	0.00000E+0	1.92797E+1	1.39066E+1	1.92786E+1	1.39069E+1
348	12/06/2023	16:48:14.447	0.00000E+0	0.00000E+0	-2.95736E+1	-6.14711E-1	0.00000E+0	0.00000E+0	1.91628E+1	1.40431E+1	1.91620E+1	1.40423E+1
349	12/06/2023	16:48:16.308	0.00000E+0	0.00000E+0	-1.15603E+1	-6.70190E-1	0.00000E+0	0.00000E+0	1.93798E+1	1.37808E+1	1.93801E+1	1.37821E+1
350	12/06/2023	16:48:18.281	0.00000E+0	0.00000E+0	-3.59646E+1	-1.25616E-1	0.00000E+0	0.00000E+0	1.90499E+1	1.41138E+1	1.90496E+1	1.41128E+1
351	12/06/2023	16:48:20.169	0.00000E+0	0.00000E+0	-1.50818E+1	-1.32573E+0	0.00000E+0	0.00000E+0	1.93458E+1	1.38174E+1	1.93445E+1	1.38190E+1
352	12/06/2023	16:48:22.075	0.00000E+0	0.00000E+0	-1.59601E+1	-4.00585E-1	0.00000E+0	0.00000E+0	1.93295E+1	1.38547E+1	1.93312E+1	1.38555E+1
353	12/06/2023	16:48:23.982	0.00000E+0	0.00000E+0	-3.58959E+1	-1.28231E-1	0.00000E+0	0.00000E+0	1.90473E+1	1.41284E+1	1.90492E+1	1.41298E+1
354	12/06/2023	16:48:25.885	0.00000E+0	0.00000E+0	-1.70830E+1	-1.00092E+0	0.00000E+0	0.00000E+0	1.93392E+1	1.38532E+1	1.93396E+1	1.38526E+1
355	12/06/2023	16:48:27.926	0.00000E+0	0.00000E+0	-5.60546E+0	3.93059E-1	0.00000E+0	0.00000E+0	1.94973E+1	1.37190E+1	1.94988E+1	1.37221E+1
356	12/06/2023	16:48:29.840	0.00000E+0	0.00000E+0	-2.67331E+1	3.40956E-1	0.00000E+0	0.00000E+0	1.91818E+1	1.40065E+1	1.91800E+1	1.40065E+1
357	12/06/2023	16:48:31.610	0.00000E+0	0.00000E+0	2.69804E-1	-5.32879E-1	0.00000E+0	0.00000E+0	1.95475E+1	1.36102E+1	1.95488E+1	1.36098E+1
358	12/06/2023	16:48:33.560	0.00000E+0	0.00000E+0	-6.82041E-1	4.14377E-1	0.00000E+0	0.00000E+0	1.95478E+1	1.36426E+1	1.95487E+1	1.36426E+1
359	12/06/2023	16:48:35.357	0.00000E+0	0.00000E+0	-3.33831E+0	-3.19833E-1	0.00000E+0	0.00000E+0	1.95040E+1	1.36786E+1	1.95041E+1	1.36778E+1
360	12/06/2023	16:48:37.364	0.00000E+0	0.00000E+0	-6.27898E+0	5.01438E-2	0.00000E+0	0.00000E+0	1.94677E+1	1.37065E+1	1.94697E+1	1.37062E+1
361	12/06/2023	16:48:39.200	0.00000E+0	0.00000E+0	-9.97459E+0	-1.56635E-1	0.00000E+0	0.00000E+0	1.94021E+1	1.37679E+1	1.94031E+1	1.37674E+1
362	12/06/2023	16:48:41.120	0.00000E+0	0.00000E+0	-4.55843E+0	-3.06760E-2	0.00000E+0	0.00000E+0	1.94839E+1	1.36827E+1	1.94844E+1	1.36826E+1
363	12/06/2023	16:48:43.136	0.00000E+0	0.00000E+0	-5.66628E+0	2.77221E-1	0.00000E+0	0.00000E+0	1.94880E+1	1.36951E+1	1.94887E+1	1.36934E+1
364	12/06/2023	16:48:45.128	0.00000E+0	0.00000E+0	-1.18366E+1	9.37519E-2	0.00000E+0	0.00000E+0	1.94001E+1	1.37769E+1	1.93973E+1	1.37747E+1
365	12/06/2023	16:48:47.032	0.00000E+0	0.00000E+0	-4.02955E+0	-7.23807E-1	0.00000E+0	0.00000E+0	1.95150E+1	1.36559E+1	1.95140E+1	1.36535E+1
366	12/06/2023	16:48:49.043	0.00000E+0	0.00000E+0	-1.41782E+1	1.87023E-1	0.00000E+0	0.00000E+0	1.93607E+1	1.38129E+1	1.93599E+1	1.38100E+1
367	12/06/2023	16:48:50.825	0.00000E+0	0.00000E+0	-4.41764E+1	-2.32319E-1	0.00000E+0	0.00000E+0	1.89264E+1	1.42535E+1	1.89260E+1	1.42547E+1
368	12/06/2023	16:48:52.824	0.00000E+0	0.00000E+0	4.90670E-1	2.24505E-1	0.00000E+0	0.00000E+0	1.95570E+1	1.36153E+1	1.95589E+1	1.36146E+1
369	12/06/2023	16:48:54.657	0.00000E+0	0.00000E+0	1.77836E+1	-9.73056E-1	0.00000E+0	0.00000E+0	1.98028E+1	1.33587E+1	1.98045E+1	1.33598E+1
370	12/06/2023	16:48:56.506	0.00000E+0	0.00000E+0	5.15768E+1	5.08594E-1	0.00000E+0	0.00000E+0	2.03044E+1	1.29279E+1	2.03050E+1	1.29286E+1
371	12/06/2023	16:48:58.329	0.00000E+0	0.00000E+0	1.66359E+1	4.72069E-1	0.00000E+0	0.00000E+0	1.97758E+1	1.33910E+1	1.97742E+1	1.33906E+1
372	12/06/2023	16:49:00.249	0.00000E+0	0.00000E+0	1.04431E+1	1.62503E-1	0.00000E+0	0.00000E+0	1.97512E+1	1.34661E+1	1.97524E+1	1.34684E+1
373	12/06/2023	16:49:02.174	0.00000E+0	0.00000E+0	1.55607E+1	1.26287E+0	0.00000E+0	0.00000E+0	1.97774E+1	1.34096E+1	1.97768E+1	1.34107E+1
374	12/06/2023	16:49:04.184	0.00000E+0	0.00000E+0	2.15981E+1	1.18241E+0	0.00000E+0	0.00000E+0	1.98525E+1	1.33370E+1	1.98522E+1	1.33380E+1
375	12/06/2023	16:49:06.042	0.00000E+0	0.00000E+0	4.78159E+0	7.05697E-1	0.00000E+0	0.00000E+0	1.96232E+1	1.35493E+1	1.96240E+1	1.35490E+1
376	12/06/2023	16:49:08.017	0.00000E+0	0.00000E+0	3.69501E+1	1.11901E+0	0.00000E+0	0.00000E+0	2.00709E+1	1.30991E+1	2.00697E+1	1.31015E+1
377	12/06/2023	16:49:09.942	0.00000E+0	0.00000E+0	1.14650E+1	-1.03245E-1	0.00000E+0	0.00000E+0	1.97213E+1	1.34625E+1	1.97211E+1	1.34624E+1
378	12/06/2023	16:49:11.941	0.00000E+0	0.00000E+0	1.78502E+1	1.40495E+0	0.00000E+0	0.00000E+0	1.98197E+1	1.33677E+1	1.98190E+1	1.33677E+1
379	12/06/2023	16:49:13.927	0.00000E+0	0.00000E+0	3.78500E+1	9.23355E-1	0.00000E+0	0.00000E+0	2.00952E+1	1.30794E+1	2.00951E+1	1.30787E+1
380	12/06/2023	16:49:15.801	0.00000E+0	0.00000E+0	1.17661E+1	2.44200E-1	0.00000E+0	0.00000E+0	1.97105E+1	1.34586E+1	1.97131E+1	1.34583E+1
381	12/06/2023	16:49:17.718	0.00000E+0	0.00000E+0	1.90038E+1	2.97187E-1	0.00000E+0	0.00000E+0	1.98252E+1	1.33529E+1	1.98266E+1	1.33507E+1
382	12/06/2023	16:49:19.482	0.00000E+0	0.00000E+0	-1.42167E+0	1.03894E+0	0.00000E+0	0.00000E+0	1.95467E+1	1.36792E+1	1.95456E+1	1.36785E+1
383	12/06/2023	16:49:21.294	0.00000E+0	0.00000E+0	1.40416E+1	-8.77890E-1	0.00000E+0	0.00000E+0	1.97595E+1	1.34196E+1	1.97614E+1	1.34191E+1
384	12/06/2023	16:49:23.308	0.00000E+0	0.00000E+0	1.25683E+1	1.08979E-2	0.00000E+0	0.00000E+0	1.97259E+1	1.34636E+1	1.97274E+1	1.34627E+1
385	12/06/2023	16:49:25.203	0.00000E+0	0.00000E+0	-1.08686E+1	-1.40576E+0	0.00000E+0	0.00000E+0	1.94113E+1	1.37979E+1	1.94146E+1	1.37960E+1
386	12/06/2023	16:49:27.152	0.00000E+0	0.00000E+0	-1.11102E+1	-3.46292E-1	0.00000E+0	0.00000E+0	1.94065E+1	1.37780E+1	1.94082E+1	1.37806E+1
387	12/06/2023	16:49:29.071	0.00000E+0	0.00000E+0	-1.69052E+1	-2.14423E-1	0.00000E+0	0.00000E+0	1.93113E+1	1.38544E+1	1.93101E+1	1.38560E+1
388	12/06/2023	16:49:31.011	0.00000E+0	0.00000E+0	-9.65689E+0	3.28463E-2	0.00000E+0	0.00000E+0	1.94178E+1	1.37420E+1	1.94177E+1	1.37428E+1
389	12/06/2023	16:49:33.004	0.00000E+0	0.00000E+0	-1.68084E+1	-2.25311E-2	0.00000E+0	0.00000E+0	1.92951E+1	1.38807E+1	1.92973E+1	1.38833E+1
390	12/06/2023	16:49:34.916	0.00000E+0	0.00000E+0	-1.52504E+1	-1.23852E-2	0.00000E+0	0.00000E+0	1.93395E+1	1.38332E+1	1.93394E+1	1.38321E+1
391	12/06/2023	16:49:36.861	0.00000E+0	0.00000E+0	-2.30655E+1	-1.16024E+0	0.00000E+0	0.00000E+0	1.92052E+1	1.39646E+1	1.92081E+1	1.39652E+1
392	12/06/2023	16:49:38.846	0.00000E+0	0.00000E+0	-1.54149E+1	-6.41826E-1	0.00000E+0	0.00000E+0	1.93494E+1	1.38195E+1	1.93494E+1	1.38207E+1
393	12/06/2023	16:49:40.725	0.00000E+0	0.00000E+0	-1.22586E+1	-2.18194E-1	0.00000E+0	0.00000E+0	1.93817E+1	1.38001E+1	1.93835E+1	1.37987E+1
394	12/06/2023	16:49:42.690	0.00000E+0	0.00000E+0	-1.05333E+1	1.28572E-1	0.00000E+0	0.00000E+0	1.93996E+1	1.37811E+1	1.93999E+1	1.37826E+1
395	12/06/2023	16:49:44.520	0.00000E+0	0.00000E+0	-2.19657E+1	1.59797E-1	0.00000E+0	0.00000E+0	1.92391E+1	1.39113E+1	1.92388E+1	1.39107E+1
396	12/06/2023	16:49:46.364	0.00000E+0	0.00000E+0	-5.29351E+0	-4.13794E-1	0.00000E+0	0.00000E+0	1.94859E+1	1.36819E+1	1.94880E+1	1.36824E+1
397	12/06/2023	16:49:48.385	0.00000E+0	0.00000E+0	-1.86373E+1	-6.99761E-1	0.00000E+0	0.00000E+0	1.92877E+1	1.38912E+1	1.92894E+1	1.38907E+1
398	12/06/2023	16:49:50.291	0.00000E+0	0.00000E+0	-2.93665E+1	-8.89628E-1	0.00000E+0	0.00000E+0	1.91412E+1	1.40256E+1	1.91405E+1	1.40261E+1
399	12/06/2023	16:49:52.225	0.00000E+0	0.00000E+0	-1.41189E+1	-9.07003E-1	0.00000E+0	0.00000E+0	1.93592E+1	1.38189E+1	1.93587E+1	1.38170E+1
400	12/06/2023	16:49:54.207	0.00000E+0	0.00000E+0	-3.80240E+1	2.91806E-2	0.00000E+0	0.00000E+0	1.90318E+1	1.41484E+1	1.90312E+1	1.41495E+1
401	12/06/2023	16:49:56.140	0.00000E+0	0.00000E+0	-1.09842E+1	-2.94839E-1	0.00000E+0	0.00000E+0	1.93660E+1	1.37942E+1	1.93671E+1	1.37931E+1
402	12/06/2023	16:49:58.073	0.00000E+0	0.00000E+0	8.64177E+1	2.61316E+0	0.00000E+0	0.00000E+0	2.07892E+1	1.23755E+1	2.07891E+1	1.23753E+1
403	12/06/2023	16:50:00.011	0.00000E+0	0.00000E+0	1.30672E+2	1.79983E+0	0.00000E+0	0.00000E+0	2.13692E+1	1.18535E+1	2.13686E+1	1.18530E+1
404	12/06/2023	16:50:01.978	0.00000E+0	0.00000E+0	1.79567E+1	-4.92386E-1	0.00000E+0	0.00000E+0	1.99597E+1	1.32059E+1	1.99594E+1	1.32068E+1
405	12/06/2023	16:50:04.042	0.00000E+0	0.00000E+0	-1.29301E+2	-1.85458E-1	0.00000E+0	0.00000E+0	1.77416E+1	1.54278E+1	1.77438E+1	1.54278E+1
406	12/06/2023	16:50:05.842	0.00000E+0	0.00000E+0	-1.61723E+2	-8.02933E-1	0.00000E+0	0.00000E+0	1.72599E+1	1.58600E+1	1.72586E+1	1.58613E+1
407	12/06/2023	16:50:07.543	0.00000E+0	0.00000E+0	-6.68581E+1	-1.25674E+0	0.00000E+0	0.00000E+0	1.84922E+1	1.46908E+1	1.84946E+1	1.46926E+1
408	12/06/2023	16:50:09.459	0.00000E+0	0.00000E+0	1.31199E+2	2.63551E+0	0.00000E+0	0.00000E+0	2.14116E+1	1.18006E+1	2.14129E+1	1.18013E+1
409	12/06/2023	16:50:11.342	0.00000E+0	0.00000E+0	1.61663E+2	7.43019E-1	0.00000E+0	0.00000E+0	2.18302E+1	1.13771E+1	2.18296E+1	1.13761E+1
410	12/06/2023	16:50:13.349	0.00000E+0	0.00000E+0	6.51994E+1	-3.33507E-1	0.00000E+0	0.00000E+0	2.06081E+1	1.26011E+1	2.06073E+1	1.25984E+1
411	12/06/2023	16:50:15.169	0.00000E+0	0.00000E+0	-1.11763E+2	-1.28201E+0	0.00000E+0	0.00000E+0	1.79726E+1	1.51695E+1	1.79717E+1	1.51665E+1
412	12/06/2023	16:50:17.109	0.00000E+0	0.00000E+0	-1.32327E+2	-1.98394E+0	0.00000E+0	0.00000E+0	1.76815E+1	1.54619E+1	1.76802E+1	1.54630E+1
413	12/06/2023	16:50:19.103	0.00000E+0	0.00000E+0	-7.69076E+1	-3.77193E+0	0.00000E+0	0.00000E+0	1.83994E+1	1.47754E+1	1.83991E+1	1.47754E+1
414	12/06/2023	16:50:20.975	0.00000E+0	0.00000E+0	1.04551E+2	-8.93552E-1	0.00000E+0	0.00000E+0	2.10422E+1	1.22415E+1	2.10425E+1	1.22412E+1
415	12/06/2023	16:50:22.891	0.00000E+0	0.00000E+0	1.16393E+2	2.39623E+0	0.00000E+0	0.00000E+0	2.11941E+1	1.20199E+1	2.11936E+1	1.20177E+1
416	12/06/2023	16:50:24.790	0.00000E+0	0.00000E+0	8.99876E+1	6.85908E-1	0.00000E+0	0.00000E+0	2.08470E+1	1.23447E+1	2.08455E+1	1.23450E+1
417	12/06/2023	16:50:26.702	0.00000E+0	0.00000E+0	-3.53287E+1	-1.69268E-1	0.00000E+0	0.00000E+0	1.91747E+1	1.39939E+1	1.91744E+1	1.39937E+1
418	12/06/2023	16:50:28.611	0.00000E+0	0.00000E+0	-1.28603E+2	-5.33823E-1	0.00000E+0	0.00000E+0	1.77258E+1	1.54171E+1	1.77246E+1	1.54162E+1
419	12/06/2023	16:50:30.363	0.00000E+0	0.00000E+0	-1.15661E+2	-1.49559E+0	0.00000E+0	0.00000E+0	1.78998E+1	1.52389E+1	1.78968E+1	1.52369E+1
420	12/06/2023	16:50:32.133	0.00000E+0	0.00000E+0	-5.28758E+1	-8.66634E-1	0.00000E+0	0.00000E+0	1.86913E+1	1.44982E+1	1.86917E+1	1.44982E+1
421	12/06/2023	16:50:34.161	0.00000E+0	0.00000E+0	1.12226E+2	6.07103E-1	0.00000E+0	0.00000E+0	2.11703E+1	1.20310E+1	2.11698E+1	1.20310E+1
422	12/06/2023	16:50:36.095	0.00000E+0	0.00000E+0	1.23792E+2	6.01597E-1	0.00000E+0	0.00000E+0	2.13139E+1	1.18796E+1	2.13155E+1	1.18818E+1
423	12/06/2023	16:50:38.149	0.00000E+0	0.00000E+0	9.72370E+1	1.30284E+0	0.00000E+0	0.00000E+0	2.09582E+1	1.22428E+1	2.09572E+1	1.22443E+1
424	12/06/2023	16:50:40.023	0.00000E+0	0.00000E+0	-1.16375E+2	8.43843E-2	0.00000E+0	0.00000E+0	1.79166E+1	1.52205E+1	1.79138E+1	1.52211E+1
425	12/06/2023	16:50:41.956	0.00000E+0	0.00000E+0	-1.53477E+2	-4.85512E-1	0.00000E+0	0.00000E+0	1.73660E+1	1.57472E+1	1.73658E+1	1.57496E+1
426	12/06/2023	16:50:43.952	0.00000E+0	0.00000E+0	-5.82546E+1	-7.53571E-1	0.00000E+0	0.00000E+0	1.87100E+1	1.44604E+1	1.87091E+1	1.44605E+1
427	12/06/2023	16:50:45.888	0.00000E+0	0.00000E+0	1.05160E+2	1.48606E+0	0.00000E+0	0.00000E+0	2.10450E+1	1.21398E+1	2.10445E+1	1.21383E+1
428	12/06/2023	16:50:47.818	0.00000E+0	0.00000E+0	1.00126E+2	7.69526E-1	0.00000E+0	0.00000E+0	2.09738E+1	1.22253E+1	2.09732E+1	1.22270E+1
429	12/06/2023	16:50:49.661	0.00000E+0	0.00000E+0	1.12667E+2	4.41963E-1	0.00000E+0	0.00000E+0	2.11635E+1	1.20500E+1	2.11615E+1	1.20492E+1
430	12/06/2023	16:50:51.583	0.00000E+0	0.00000E+0	-7.09455E+1	-1.64636E+0	0.00000E+0	0.00000E+0	1.85925E+1	1.45429E+1	1.85916E+1	1.45415E+1
431	12/06/2023	16:50:53.409	0.00000E+0	0.00000E+0	-1.46705E+2	-9.92927E-1	0.00000E+0	0.00000E+0	1.74888E+1	1.56360E+1	1.74888E+1	1.56363E+1
432	12/06/2023	16:50:55.162	0.00000E+0	0.00000E+0	-1.22350E+2	1.17440E+0	0.00000E+0	0.00000E+0	1.78153E+1	1.53719E+1	1.78155E+1	1.53714E+1
433	12/06/2023	16:50:57.036	0.00000E+0	0.00000E+0	-6.40454E+0	2.82675E-1	0.00000E+0	0.00000E+0	1.93637E+1	1.38358E+1	1.93628E+1	1.38375E+1
434	12/06/2023	16:50:59.027	0.00000E+0	0.00000E+0	1.26655E+2	7.62081E-1	0.00000E+0	0.00000E+0	2.13802E+1	1.18348E+1	2.13824E+1	1.18342E+1
435	12/06/2023	16:51:00.924	0.00000E+0	0.00000E+0	1.40277E+2	1.29696E+0	0.00000E+0	0.00000E+0	2.15283E+1	1.16568E+1	2.15293E+1	1.16573E+1
436	12/06/2023	16:51:02.953	0.00000E+0	0.00000E+0	-1.89582E+1	-3.94772E-1	0.00000E+0	0.00000E+0	1.93604E+1	1.38287E+1	1.93651E+1	1.38296E+1
437	12/06/2023	16:51:04.851	0.00000E+0	0.00000E+0	-1.26472E+2	-2.88529E-1	0.00000E+0	0.00000E+0	1.77642E+1	1.53851E+1	1.77652E+1	1.53857E+1
438	12/06/2023	16:51:06.838	0.00000E+0	0.00000E+0	-1.18467E+2	-1.26593E+0	0.00000E+0	0.00000E+0	1.78296E+1	1.53192E+1	1.78293E+1	1.53192E+1
439	12/06/2023	16:51:08.859	0.00000E+0	0.00000E+0	-6.44187E+1	4.38126E-1	0.00000E+0	0.00000E+0	1.86066E+1	1.45917E+1	1.86081E+1	1.45930E+1
440	12/06/2023	16:51:10.866	0.00000E+0	0.00000E+0	9.57062E+1	-3.83544E-2	0.00000E+0	0.00000E+0	2.09079E+1	1.23048E+1	2.09065E+1	1.23047E+1
441	12/06/2023	16:51:12.645	0.00000E+0	0.00000E+0	1.18633E+2	1.12776E+0	0.00000E+0	0.00000E+0	2.12319E+1	1.19674E+1	2.12322E+1	1.19675E+1
442	12/06/2023	16:51:14.490	0.00000E+0	0.00000E+0	1.07716E+2	8.03624E-1	0.00000E+0	0.00000E+0	2.10980E+1	1.20968E+1	2.10996E+1	1.20957E+1
443	12/06/2023	16:51:16.191	0.00000E+0	0.00000E+0	-1.25756E+1	-8.13337E-1	0.00000E+0	0.00000E+0	1.94584E+1	1.37293E+1	1.94581E+1	1.37304E+1
444	12/06/2023	16:51:17.980	0.00000E+0	0.00000E+0	-1.14616E+2	-1.29969E+0	0.00000E+0	0.00000E+0	1.79435E+1	1.52297E+1	1.79442E+1	1.52307E+1
445	12/06/2023	16:51:19.889	0.00000E+0	0.00000E+0	-1.18787E+2	-2.12086E+0	0.00000E+0	0.00000E+0	1.78679E+1	1.52997E+1	1.78690E+1	1.52961E+1
446	12/06/2023	16:51:21.809	0.00000E+0	0.00000E+0	-6.96373E+1	4.68554E-1	0.00000E+0	0.00000E+0	1.85529E+1	1.46050E+1	1.85537E+1	1.46021E+1
447	12/06/2023	16:51:23.841	0.00000E+0	0.00000E+0	6.33885E+1	1.32117E+0	0.00000E+0	0.00000E+0	2.04444E+1	1.27531E+1	2.04433E+1	1.27510E+1
448	12/06/2023	16:51:25.749	0.00000E+0	0.00000E+0	1.19575E+2	6.93973E-1	0.00000E+0	0.00000E+0	2.12465E+1	1.19659E+1	2.12465E+1	1.19648E+1
449	12/06/2023	16:51:27.741	0.00000E+0	0.00000E+0	1.30993E+2	1.34397E+0	0.00000E+0	0.00000E+0	2.14243E+1	1.17980E+1	2.14243E+1	1.17982E+1
450	12/06/2023	16:51:29.661	0.00000E+0	0.00000E+0	-4.09598E+1	2.78639E-1	0.00000E+0	0.00000E+0	1.90212E+1	1.41488E+1	1.90214E+1	1.41512E+1
451	12/06/2023	16:51:31.582	0.00000E+0	0.00000E+0	-1.31185E+2	-2.30474E+0	0.00000E+0	0.00000E+0	1.77013E+1	1.54545E+1	1.77014E+1	1.54535E+1
452	12/06/2023	16:51:33.655	0.00000E+0	0.00000E+0	-1.25580E+2	-5.66203E-2	0.00000E+0	0.00000E+0	1.77413E+1	1.54026E+1	1.77415E+1	1.54019E+1
453	12/06/2023	16:51:35.457	0.00000E+0	0.00000E+0	-5.23582E+1	-5.00924E-1	0.00000E+0	0.00000E+0	1.87597E+1	1.44059E+1	1.87606E+1	1.44055E+1
454	12/06/2023	16:51:37.358	0.00000E+0	0.00000E+0	9.33716E+1	5.59079E-1	0.00000E+0	0.00000E+0	2.09311E+1	1.22814E+1	2.09317E+1	1.22808E+1
455	12/06/2023	16:51:39.183	0.00000E+0	0.00000E+0	1.36344E+2	1.53371E+0	0.00000E+0	0.00000E+0	2.14923E+1	1.17201E+1	2.14889E+1	1.17174E+1
456	12/06/2023	16:51:40.940	0.00000E+0	0.00000E+0	1.01115E+2	1.07382E+0	0.00000E+0	0.00000E+0	2.10012E+1	1.21856E+1	2.10016E+1	1.21846E+1
457	12/06/2023	16:51:42.950	0.00000E+0	0.00000E+0	-7.35219E+1	1.43650E-1	0.00000E+0	0.00000E+0	1.85698E+1	1.45898E+1	1.85685E+1	1.45902E+1
458	12/06/2023	16:51:44.870	0.00000E+0	0.00000E+0	-1.35010E+2	-1.47360E+0	0.00000E+0	0.00000E+0	1.76343E+1	1.54951E+1	1.76338E+1	1.54932E+1
459	12/06/2023	16:51:46.789	0.00000E+0	0.00000E+0	-1.20059E+2	-7.11959E-1	0.00000E+0	0.00000E+0	1.78727E+1	1.52291E+1	1.78713E+1	1.52307E+1
460	12/06/2023	16:51:48.791	0.00000E+0	0.00000E+0	4.96590E+1	3.00762E-1	0.00000E+0	0.00000E+0	2.02029E+1	1.29763E+1	2.02048E+1	1.29762E+1
461	12/06/2023	16:51:50.718	0.00000E+0	0.00000E+0	1.05190E+2	4.77222E-1	0.00000E+0	0.00000E+0	2.10280E+1	1.21727E+1	2.10263E+1	1.21724E+1
462	12/06/2023	16:51:52.660	0.00000E+0	0.00000E+0	1.43617E+2	1.15613E+0	0.00000E+0	0.00000E+0	2.15862E+1	1.16055E+1	2.15839E+1	1.16051E+1
463	12/06/2023	16:51:54.640	0.00000E+0	0.00000E+0	7.65166E+1	2.59112E-1	0.00000E+0	0.00000E+0	2.06902E+1	1.25331E+1	2.06894E+1	1.25317E+1
464	12/06/2023	16:51:56.563	0.00000E+0	0.00000E+0	-1.12840E+2	-3.50269E-1	0.00000E+0	0.00000E+0	1.79518E+1	1.51817E+1	1.79530E+1	1.51831E+1
465	12/06/2023	16:51:58.674	0.00000E+0	0.00000E+0	-1.09170E+2	-1.28866E+0	0.00000E+0	0.00000E+0	1.80063E+1	1.51487E+1	1.80060E+1	1.51473E+1
466	12/06/2023	16:52:00.503	0.00000E+0	0.00000E+0	-9.38934E+1	-2.51830E+0	0.00000E+0	0.00000E+0	1.81690E+1	1.50108E+1	1.81734E+1	1.50137E+1
467	12/06/2023	16:52:02.184	0.00000E+0	0.00000E+0	-3.29959E+1	4.66656E-1	0.00000E+0	0.00000E+0	1.90218E+1	1.41675E+1	1.90231E+1	1.41682E+1
468	12/06/2023	16:52:04.082	0.00000E+0	0.00000E+0	8.46117E+1	1.40075E+0	0.00000E+0	0.00000E+0	2.07690E+1	1.24478E+1	2.07690E+1	1.24476E+1
469	12/06/2023	16:52:06.002	0.00000E+0	0.00000E+0	1.04608E+2	1.33318E+0	0.00000E+0	0.00000E+0	2.10550E+1	1.21363E+1	2.10574E+1	1.21366E+1
470	12/06/2023	16:52:08.006	0.00000E+0	0.00000E+0	7.41845E+1	6.29430E-2	0.00000E+0	0.00000E+0	2.06259E+1	1.25765E+1	2.06278E+1	1.25772E+1
471	12/06/2023	16:52:09.895	0.00000E+0	0.00000E+0	6.09281E+1	6.11670E-1	0.00000E+0	0.00000E+0	2.04548E+1	1.27494E+1	2.04541E+1	1.27506E+1
472	12/06/2023	16:52:11.849	0.00000E+0	0.00000E+0	-8.03517E+1	-6.51942E-1	0.00000E+0	0.00000E+0	1.84183E+1	1.47324E+1	1.84168E+1	1.47313E+1
473	12/06/2023	16:52:13.853	0.00000E+0	0.00000E+0	-1.12855E+2	-1.39073E+0	0.00000E+0	0.00000E+0	1.79392E+1	1.52021E+1	1.79373E+1	1.52019E+1
474	12/06/2023	16:52:15.772	0.00000E+0	0.00000E+0	-1.16277E+2	-4.50361E+0	0.00000E+0	0.00000E+0	1.78365E+1	1.53085E+1	1.78347E+1	1.53069E+1
475	12/06/2023	16:52:17.639	0.00000E+0	0.00000E+0	6.56235E+1	2.10981E+0	0.00000E+0	0.00000E+0	2.04414E+1	1.27212E+1	2.04397E+1	1.27206E+1
476	12/06/2023	16:52:19.667	0.00000E+0	0.00000E+0	9.56930E+1	2.28087E+0	0.00000E+0	0.00000E+0	2.08962E+1	1.22701E+1	2.08952E+1	1.22708E+1
477	12/06/2023	16:52:21.501	0.00000E+0	0.00000E+0	1.27180E+2	2.19460E+0	0.00000E+0	0.00000E+0	2.13296E+1	1.18576E+1	2.13295E+1	1.18566E+1
478	12/06/2023	16:52:23.470	0.00000E+0	0.00000E+0	7.71335E+1	8.38101E-1	0.00000E+0	0.00000E+0	2.06620E+1	1.25124E+1	2.06604E+1	1.25117E+1
479	12/06/2023	16:52:25.214	0.00000E+0	0.00000E+0	-8.75948E+1	-1.05537E+0	0.00000E+0	0.00000E+0	1.83386E+1	1.48308E+1	1.83386E+1	1.48310E+1
480	12/06/2023	16:52:26.971	0.00000E+0	0.00000E+0	-1.13491E+2	-1.44591E+0	0.00000E+0	0.00000E+0	1.79604E+1	1.51943E+1	1.79608E+1	1.51966E+1
481	12/06/2023	16:52:28.974	0.00000E+0	0.00000E+0	-1.21527E+2	2.59646E-1	0.00000E+0	0.00000E+0	1.77576E+1	1.53537E+1	1.77587E+1	1.53542E+1
482	12/06/2023	16:52:30.827	0.00000E+0	0.00000E+0	3.01240E+1	-3.84114E-1	0.00000E+0	0.00000E+0	1.99431E+1	1.32510E+1	1.99435E+1	1.32508E+1
483	12/06/2023	16:52:32.830	0.00000E+0	0.00000E+0	1.01056E+2	1.97091E+0	0.00000E+0	0.00000E+0	2.09728E+1	1.22166E+1	2.09726E+1	1.22173E+1
484	12/06/2023	16:52:34.822	0.00000E+0	0.00000E+0	1.18294E+2	2.57909E+0	0.00000E+0	0.00000E+0	2.12127E+1	1.19563E+1	2.12120E+1	1.19591E+1
485	12/06/2023	16:52:36.705	0.00000E+0	0.00000E+0	8.39586E+1	1.22562E+0	0.00000E+0	0.00000E+0	2.07355E+1	1.24446E+1	2.07365E+1	1.24455E+1
486	12/06/2023	16:52:38.737	0.00000E+0	0.00000E+0	-8.54247E+1	-1.37735E+0	0.00000E+0	0.00000E+0	1.83750E+1	1.47852E+1	1.83728E+1	1.47829E+1
487	12/06/2023	16:52:40.684	0.00000E+0	0.00000E+0	-1.16383E+2	-4.51986E-1	0.00000E+0	0.00000E+0	1.78958E+1	1.52472E+1	1.78968E+1	1.52480E+1
488	12/06/2023	16:52:42.601	0.00000E+0	0.00000E+0	-9.71589E+1	-1.09002E+0	0.00000E+0	0.00000E+0	1.81766E+1	1.49807E+1	1.81769E+1	1.49808E+1
489	12/06/2023	16:52:44.601	0.00000E+0	0.00000E+0	4.61021E+1	9.20405E-1	0.00000E+0	0.00000E+0	2.01787E+1	1.29934E+1	2.01797E+1	1.29944E+1
490	12/06/2023	16:52:46.462	0.00000E+0	0.00000E+0	9.77725E+1	4.52493E-1	0.00000E+0	0.00000E+0	2.09653E+1	1.22577E+1	2.09675E+1	1.22584E+1
491	12/06/2023	16:52:48.311	0.00000E+0	0.00000E+0	9.63329E+1	7.13286E-1	0.00000E+0	0.00000E+0	2.09046E+1	1.22873E+1	2.09065E+1	1.22848E+1
492	12/06/2023	16:52:50.151	0.00000E+0	0.00000E+0	6.28907E+1	8.49396E-2	0.00000E+0	0.00000E+0	2.04692E+1	1.27315E+1	2.04694E+1	1.27320E+1
493	12/06/2023	16:52:52.064	0.00000E+0	0.00000E+0	-6.79680E+1	-9.26170E-1	0.00000E+0	0.00000E+0	1.85864E+1	1.45549E+1	1.85870E+1	1.45561E+1
494	12/06/2023	16:52:54.070	0.00000E+0	0.00000E+0	-1.18352E+2	-3.21333E-1	0.00000E+0	0.00000E+0	1.78663E+1	1.52769E+1	1.78658E+1	1.52794E+1
495	12/06/2023	16:52:55.982	0.00000E+0	0.00000E+0	-7.32557E+1	-9.52693E-1	0.00000E+0	0.00000E+0	1.84908E+1	1.46670E+1	1.84910E+1	1.46675E+1
496	12/06/2023	16:52:57.918	0.00000E+0	0.00000E+0	7.83658E+1	2.36376E-1	0.00000E+0	0.00000E+0	2.06557E+1	1.25091E+1	2.06539E+1	1.25105E+1
497	12/06/2023	16:52:59.830	0.00000E+0	0.00000E+0	8.16443E+1	2.07796E-1	0.00000E+0	0.00000E+0	2.07156E+1	1.24734E+1	2.07156E+1	1.24754E+1
498	12/06/2023	16:53:01.749	0.00000E+0	0.00000E+0	8.98057E+1	1.49544E+0	0.00000E+0	0.00000E+0	2.08141E+1	1.23817E+1	2.08145E+1	1.23820E+1
499	12/06/2023	16:53:03.712	0.00000E+0	0.00000E+0	-7.71316E+1	-4.74747E-1	0.00000E+0	0.00000E+0	1.85114E+1	1.46404E+1	1.85128E+1	1.46409E+1
500	12/06/2023	16:53:05.602	0.00000E+0	0.00000E+0	-1.03150E+2	-9.09077E-1	0.00000E+0	0.00000E+0	1.80675E+1	1.50614E+1	1.80671E+1	1.50621E+1
