#Iteration	Date	Time	RTPhase	NFringe	AccelAxis	AccelMean	AccelTemp
1	12/06/2023	16:37:21.337	5.11966088E-1	-2.51500000E+3	2.00000000E+0	-9.80618793E+0	7.22992700E+6
2	12/06/2023	16:37:23.211	3.70993254E+0	-2.51900000E+3	2.00000000E+0	-9.80618793E+0	7.22992700E+6
3	12/06/2023	16:37:25.018	4.74767054E+0	-2.51900000E+3	2.00000000E+0	-9.80618793E+0	7.22992700E+6
4	12/06/2023	16:37:27.020	1.06074771E+0	-2.51800000E+3	2.00000000E+0	-9.80618793E+0	7.22992700E+6
5	12/06/2023	16:37:28.940	1.72496140E+0	-2.50100000E+3	2.00000000E+0	-9.80618793E+0	7.22992700E+6
6	12/06/2023	16:37:30.719	2.81868970E-1	-2.28000000E+3	2.00000000E+0	-9.80618793E+0	7.22992700E+6
7	12/06/2023	16:37:32.548	5.78349107E+0	-2.18000000E+3	2.00000000E+0	-9.80618793E+0	7.22992700E+6
8	12/06/2023	16:37:34.303	8.12626322E-1	-2.38700000E+3	2.00000000E+0	-9.80618793E+0	7.22992700E+6
9	12/06/2023	16:37:36.069	1.52516040E+0	-2.50600000E+3	2.00000000E+0	-9.80618793E+0	7.22992700E+6
10	12/06/2023	16:37:37.853	9.29592357E-1	-2.50800000E+3	2.00000000E+0	-9.80618793E+0	7.22992700E+6
11	12/06/2023	16:37:39.710	1.02431567E+0	-2.51000000E+3	2.00000000E+0	-9.80618793E+0	7.22992700E+6
12	12/06/2023	16:37:41.714	3.01887419E+0	-2.50900000E+3	2.00000000E+0	-9.80618793E+0	7.22992700E+6
13	12/06/2023	16:37:43.596	4.32199087E+0	-2.43600000E+3	2.00000000E+0	-9.80618793E+0	7.22992700E+6
14	12/06/2023	16:37:45.466	4.93404920E+0	-2.30600000E+3	2.00000000E+0	-9.80618793E+0	7.22992700E+6
15	12/06/2023	16:37:47.384	8.92776819E-1	-2.12900000E+3	2.00000000E+0	-9.80618793E+0	7.22992700E+6
16	12/06/2023	16:37:49.233	3.33334025E+0	-2.26200000E+3	2.00000000E+0	-9.80618793E+0	7.22992700E+6
17	12/06/2023	16:37:51.184	3.57187426E+0	-2.45100000E+3	2.00000000E+0	-9.80618793E+0	7.22992700E+6
18	12/06/2023	16:37:52.954	1.40819436E+0	-2.51400000E+3	2.00000000E+0	-9.80618793E+0	7.22992700E+6
19	12/06/2023	16:37:54.705	4.06888404E+0	-2.50300000E+3	2.00000000E+0	-9.80618793E+0	7.22992700E+6
20	12/06/2023	16:37:56.642	9.20388473E-3	-2.51300000E+3	2.00000000E+0	-9.80618793E+0	7.22992700E+6
21	12/06/2023	16:37:58.361	2.39262653E+0	-2.49600000E+3	2.00000000E+0	-9.80618793E+0	7.22992700E+6
22	12/06/2023	16:38:00.059	1.54165069E-1	-2.44100000E+3	2.00000000E+0	-9.80618793E+0	7.22992700E+6
23	12/06/2023	16:38:01.856	1.46878660E-1	-2.33400000E+3	2.00000000E+0	-9.80618793E+0	7.22992700E+6
24	12/06/2023	16:38:03.691	5.82145709E-1	-2.24300000E+3	2.00000000E+0	-9.80618793E+0	7.22992700E+6
25	12/06/2023	16:38:05.779	3.10055867E+0	-2.37900000E+3	2.00000000E+0	-9.80618793E+0	7.22992700E+6
26	12/06/2023	16:38:07.666	5.79001048E+0	-2.46200000E+3	2.00000000E+0	-9.80618793E+0	7.22992700E+6
27	12/06/2023	16:38:09.561	2.33932070E-1	-2.51300000E+3	2.00000000E+0	-9.80618793E+0	7.22992700E+6
28	12/06/2023	16:38:11.564	1.68162644E+0	-2.51700000E+3	2.00000000E+0	-9.80618793E+0	7.22992700E+6
29	12/06/2023	16:38:13.470	3.48942280E+0	-2.48000000E+3	2.00000000E+0	-9.80618793E+0	7.22992700E+6
30	12/06/2023	16:38:15.404	5.33441819E-1	-2.45000000E+3	2.00000000E+0	-9.80618793E+0	7.22992700E+6
31	12/06/2023	16:38:17.395	4.98620455E+0	-2.35300000E+3	2.00000000E+0	-9.80618793E+0	7.22992700E+6
32	12/06/2023	16:38:19.147	3.42077716E+0	-2.19900000E+3	2.00000000E+0	-9.80618793E+0	7.22992700E+6
33	12/06/2023	16:38:21.043	6.19191345E+0	-2.36400000E+3	2.00000000E+0	-9.80618793E+0	7.22992700E+6
34	12/06/2023	16:38:22.783	5.43029199E+0	-2.43800000E+3	2.00000000E+0	-9.80618793E+0	7.22992700E+6
35	12/06/2023	16:38:24.721	4.43703943E+0	-2.34100000E+3	2.00000000E+0	-9.80618793E+0	7.22992700E+6
36	12/06/2023	16:38:26.726	1.29659726E+0	-2.16700000E+3	2.00000000E+0	-9.80618793E+0	7.22992700E+6
37	12/06/2023	16:38:28.736	5.88511729E+0	-2.11300000E+3	2.00000000E+0	-9.80618793E+0	7.22992700E+6
38	12/06/2023	16:38:30.693	2.10922358E-1	-2.21600000E+3	2.00000000E+0	-9.80618793E+0	7.22992700E+6
39	12/06/2023	16:38:32.577	7.03713686E-1	-2.32400000E+3	2.00000000E+0	-9.80618793E+0	7.22992700E+6
40	12/06/2023	16:38:34.487	5.73171921E+0	-2.39900000E+3	2.00000000E+0	-9.80618793E+0	7.22992700E+6
41	12/06/2023	16:38:36.593	2.94102467E+0	-2.45400000E+3	2.00000000E+0	-9.80618793E+0	7.22992700E+6
42	12/06/2023	16:38:38.448	5.11275797E+0	-2.48900000E+3	2.00000000E+0	-9.80618793E+0	7.22992700E+6
43	12/06/2023	16:38:40.232	3.36823831E+0	-2.49200000E+3	2.00000000E+0	-9.80618793E+0	7.22992700E+6
44	12/06/2023	16:38:42.364	5.44754927E+0	-2.51100000E+3	2.00000000E+0	-9.80618793E+0	7.22992700E+6
45	12/06/2023	16:38:44.119	4.78026763E+0	-2.51900000E+3	2.00000000E+0	-9.80618793E+0	7.22992700E+6
46	12/06/2023	16:38:45.951	2.55177704E+0	-2.51600000E+3	2.00000000E+0	-9.80618793E+0	7.22992700E+6
47	12/06/2023	16:38:47.873	3.07026255E+0	-2.48300000E+3	2.00000000E+0	-9.80618793E+0	7.22992700E+6
48	12/06/2023	16:38:49.805	9.18087502E-1	-2.44200000E+3	2.00000000E+0	-9.80618793E+0	7.22992700E+6
49	12/06/2023	16:38:51.894	2.10922358E-1	-2.37200000E+3	2.00000000E+0	-9.80618793E+0	7.22992700E+6
50	12/06/2023	16:38:53.774	4.88151036E+0	-2.31800000E+3	2.00000000E+0	-9.80618793E+0	7.22992700E+6
51	12/06/2023	16:38:55.752	1.12364093E+0	-2.22500000E+3	2.00000000E+0	-9.80618793E+0	7.22992700E+6
52	12/06/2023	16:38:57.651	3.70264613E+0	-2.15700000E+3	2.00000000E+0	-9.80618793E+0	7.22992700E+6
53	12/06/2023	16:38:59.585	3.66889855E+0	-2.18100000E+3	2.00000000E+0	-9.80618793E+0	7.22992700E+6
54	12/06/2023	16:39:01.592	4.95782591E+0	-2.29600000E+3	2.00000000E+0	-9.80618793E+0	7.22992700E+6
55	12/06/2023	16:39:03.355	6.01128721E+0	-2.39800000E+3	2.00000000E+0	-9.80618793E+0	7.22992700E+6
56	12/06/2023	16:39:05.345	1.01089334E+0	-2.47300000E+3	2.00000000E+0	-9.80618793E+0	7.22992700E+6
57	12/06/2023	16:39:07.208	4.21691319E+0	-2.48900000E+3	2.00000000E+0	-9.80618793E+0	7.22992700E+6
58	12/06/2023	16:39:09.104	3.68423836E+0	-2.50000000E+3	2.00000000E+0	-9.80618793E+0	7.22992700E+6
59	12/06/2023	16:39:11.091	1.29544678E+0	-2.50900000E+3	2.00000000E+0	-9.80618793E+0	7.22992700E+6
60	12/06/2023	16:39:12.958	5.61513667E+0	-2.52000000E+3	2.00000000E+0	-9.80618793E+0	7.22992700E+6
61	12/06/2023	16:39:14.891	5.56528230E+0	-2.51300000E+3	2.00000000E+0	-9.80618793E+0	7.22992700E+6
62	12/06/2023	16:39:16.888	1.05077684E+0	-2.47900000E+3	2.00000000E+0	-9.80618793E+0	7.22992700E+6
63	12/06/2023	16:39:18.780	1.66820411E+0	-2.39200000E+3	2.00000000E+0	-9.80618793E+0	7.22992700E+6
64	12/06/2023	16:39:20.665	1.18960210E+0	-2.25000000E+3	2.00000000E+0	-9.80618793E+0	7.22992700E+6
65	12/06/2023	16:39:22.569	4.64566082E+0	-2.16400000E+3	2.00000000E+0	-9.80618793E+0	7.22992700E+6
66	12/06/2023	16:39:24.436	1.50330117E+0	-2.27600000E+3	2.00000000E+0	-9.80618793E+0	7.22992700E+6
67	12/06/2023	16:39:26.310	2.27796147E-1	-2.39900000E+3	2.00000000E+0	-9.80618793E+0	7.22992700E+6
68	12/06/2023	16:39:28.093	3.98988403E+0	-2.46800000E+3	2.00000000E+0	-9.80618793E+0	7.22992700E+6
69	12/06/2023	16:39:29.800	4.62495208E-1	-2.50200000E+3	2.00000000E+0	-9.80618793E+0	7.22992700E+6
70	12/06/2023	16:39:31.670	3.11781595E+0	-2.50700000E+3	2.00000000E+0	-9.80618793E+0	7.22992700E+6
71	12/06/2023	16:39:33.493	3.55691795E+0	-2.49000000E+3	2.00000000E+0	-9.80618793E+0	7.22992700E+6
72	12/06/2023	16:39:35.424	6.99495239E-1	-2.37700000E+3	2.00000000E+0	-9.80618793E+0	7.22992700E+6
73	12/06/2023	16:39:37.289	1.08375743E+0	-2.24300000E+3	2.00000000E+0	-9.80618793E+0	7.22992700E+6
74	12/06/2023	16:39:39.205	3.60945679E+0	-2.18500000E+3	2.00000000E+0	-9.80618793E+0	7.22992700E+6
75	12/06/2023	16:39:41.191	5.99287944E+0	-2.25700000E+3	2.00000000E+0	-9.80618793E+0	7.22992700E+6
76	12/06/2023	16:39:43.002	2.38725760E+0	-2.38700000E+3	2.00000000E+0	-9.80618793E+0	7.22992700E+6
77	12/06/2023	16:39:44.835	2.42905858E+0	-2.44300000E+3	2.00000000E+0	-9.80618793E+0	7.22992700E+6
78	12/06/2023	16:39:46.729	2.79567999E+0	-2.44200000E+3	2.00000000E+0	-9.80618793E+0	7.22992700E+6
79	12/06/2023	16:39:48.466	5.36778227E+0	-2.40600000E+3	2.00000000E+0	-9.80618793E+0	7.22992700E+6
80	12/06/2023	16:39:50.410	4.99809290E+0	-2.36000000E+3	2.00000000E+0	-9.80618793E+0	7.22992700E+6
81	12/06/2023	16:39:52.247	4.98505407E+0	-2.28600000E+3	2.00000000E+0	-9.80618793E+0	7.22992700E+6
82	12/06/2023	16:39:53.895	3.49440823E+0	-2.29500000E+3	2.00000000E+0	-9.80618793E+0	7.22992700E+6
83	12/06/2023	16:39:55.821	2.51534500E+0	-2.41700000E+3	2.00000000E+0	-9.80618793E+0	7.22992700E+6
84	12/06/2023	16:39:57.679	9.81747704E-2	-2.43300000E+3	2.00000000E+0	-9.80618793E+0	7.22992700E+6
85	12/06/2023	16:39:59.619	3.17840819E+0	-2.44000000E+3	2.00000000E+0	-9.80618793E+0	7.22992700E+6
86	12/06/2023	16:40:01.460	1.38173319E+0	-2.45900000E+3	2.00000000E+0	-9.80618793E+0	7.22992700E+6
87	12/06/2023	16:40:03.253	4.91564143E+0	-2.47500000E+3	2.00000000E+0	-9.80618793E+0	7.22992700E+6
88	12/06/2023	16:40:05.123	5.61935512E+0	-2.48300000E+3	2.00000000E+0	-9.80618793E+0	7.22992700E+6
89	12/06/2023	16:40:07.030	1.99034007E+0	-2.49300000E+3	2.00000000E+0	-9.80618793E+0	7.22992700E+6
90	12/06/2023	16:40:08.930	1.93434977E+0	-2.50700000E+3	2.00000000E+0	-9.80618793E+0	7.22992700E+6
91	12/06/2023	16:40:10.837	5.40344733E+0	-2.51200000E+3	2.00000000E+0	-9.80618793E+0	7.22992700E+6
92	12/06/2023	16:40:12.676	1.05499529E+0	-2.51700000E+3	2.00000000E+0	-9.80618793E+0	7.22992700E+6
93	12/06/2023	16:40:14.665	5.25503468E+0	-2.51300000E+3	2.00000000E+0	-9.80618793E+0	7.22992700E+6
94	12/06/2023	16:40:16.349	2.29751973E+0	-2.50900000E+3	2.00000000E+0	-9.80618793E+0	7.22992700E+6
95	12/06/2023	16:40:18.158	5.52578229E+0	-2.51400000E+3	2.00000000E+0	-9.80618793E+0	7.22992700E+6
96	12/06/2023	16:40:20.116	4.53291323E+0	-2.51600000E+3	2.00000000E+0	-9.80618793E+0	7.22992700E+6
97	12/06/2023	16:40:21.951	2.48504888E+0	-2.51500000E+3	2.00000000E+0	-9.80618793E+0	7.22992700E+6
98	12/06/2023	16:40:23.786	4.50108313E+0	-2.51300000E+3	2.00000000E+0	-9.80618793E+0	7.22992700E+6
99	12/06/2023	16:40:25.755	1.01012635E+0	-2.50500000E+3	2.00000000E+0	-9.80618793E+0	7.22992700E+6
100	12/06/2023	16:40:27.619	6.20917073E+0	-2.49900000E+3	2.00000000E+0	-9.80618793E+0	7.22992700E+6
101	12/06/2023	16:40:29.564	4.39293748E+0	-2.48500000E+3	2.00000000E+0	-9.80618793E+0	7.22992700E+6
102	12/06/2023	16:40:31.389	1.24329143E+0	-2.45900000E+3	2.00000000E+0	-9.80618793E+0	7.22992700E+6
103	12/06/2023	16:40:33.234	3.85796168E+0	-2.44400000E+3	2.00000000E+0	-9.80618793E+0	7.22992700E+6
104	12/06/2023	16:40:35.078	1.77903422E+0	-2.40100000E+3	2.00000000E+0	-9.80618793E+0	7.22992700E+6
105	12/06/2023	16:40:36.862	5.71599591E+0	-2.37700000E+3	2.00000000E+0	-9.80618793E+0	7.22992700E+6
106	12/06/2023	16:40:38.666	6.25825812E+0	-2.32700000E+3	2.00000000E+0	-9.80618793E+0	7.22992700E+6
107	12/06/2023	16:40:40.546	4.97009775E+0	-2.27500000E+3	2.00000000E+0	-9.80618793E+0	7.22992700E+6
108	12/06/2023	16:40:42.394	2.57171879E+0	-2.21900000E+3	2.00000000E+0	-9.80618793E+0	7.22992700E+6
109	12/06/2023	16:40:44.339	1.98228667E+0	-2.15200000E+3	2.00000000E+0	-9.80618793E+0	7.22992700E+6
110	12/06/2023	16:40:46.213	2.37651974E+0	-2.18800000E+3	2.00000000E+0	-9.80618793E+0	7.22992700E+6
111	12/06/2023	16:40:48.003	5.44908325E+0	-2.27100000E+3	2.00000000E+0	-9.80618793E+0	7.22992700E+6
112	12/06/2023	16:40:49.831	2.49271878E-2	-2.33000000E+3	2.00000000E+0	-9.80618793E+0	7.22992700E+6
113	12/06/2023	16:40:51.663	2.83824795E+0	-2.37200000E+3	2.00000000E+0	-9.80618793E+0	7.22992700E+6
114	12/06/2023	16:40:53.630	1.74643713E+0	-2.40200000E+3	2.00000000E+0	-9.80618793E+0	7.22992700E+6
115	12/06/2023	16:40:55.485	1.47147107E+0	-2.41600000E+3	2.00000000E+0	-9.80618793E+0	7.22992700E+6
116	12/06/2023	16:40:57.232	5.26002012E+0	-2.43300000E+3	2.00000000E+0	-9.80618793E+0	7.22992700E+6
117	12/06/2023	16:40:59.202	1.91939346E+0	-2.45800000E+3	2.00000000E+0	-9.80618793E+0	7.22992700E+6
118	12/06/2023	16:41:01.005	4.88611230E+0	-2.48200000E+3	2.00000000E+0	-9.80618793E+0	7.22992700E+6
119	12/06/2023	16:41:02.912	3.19643247E+0	-2.49200000E+3	2.00000000E+0	-9.80618793E+0	7.22992700E+6
120	12/06/2023	16:41:04.781	2.16521388E+0	-2.50800000E+3	2.00000000E+0	-9.80618793E+0	7.22992700E+6
121	12/06/2023	16:41:06.674	1.81124782E+0	-2.51300000E+3	2.00000000E+0	-9.80618793E+0	7.22992700E+6
122	12/06/2023	16:41:08.509	4.46541807E+0	-2.51600000E+3	2.00000000E+0	-9.80618793E+0	7.22992700E+6
123	12/06/2023	16:41:10.384	1.12057297E+0	-2.51200000E+3	2.00000000E+0	-9.80618793E+0	7.22992700E+6
124	12/06/2023	16:41:12.175	3.33410724E+0	-2.51300000E+3	2.00000000E+0	-9.80618793E+0	7.22992700E+6
125	12/06/2023	16:41:14.093	1.77328179E+0	-2.51500000E+3	2.00000000E+0	-9.80618793E+0	7.22992700E+6
126	12/06/2023	16:41:15.963	6.04656877E+0	-2.51300000E+3	2.00000000E+0	-9.80618793E+0	7.22992700E+6
127	12/06/2023	16:41:17.937	1.39630601E+0	-2.47500000E+3	2.00000000E+0	-9.80618793E+0	7.22992700E+6
128	12/06/2023	16:41:19.686	2.30787410E+0	-2.40700000E+3	2.00000000E+0	-9.80618793E+0	7.22992700E+6
129	12/06/2023	16:41:21.474	2.82789358E+0	-2.17900000E+3	2.00000000E+0	-9.80618793E+0	7.22992700E+6
130	12/06/2023	16:41:23.282	6.01128721E+0	-2.26000000E+3	2.00000000E+0	-9.80618793E+0	7.22992700E+6
131	12/06/2023	16:41:25.128	3.11014605E-1	-2.48500000E+3	2.00000000E+0	-9.80618793E+0	7.22992700E+6
132	12/06/2023	16:41:26.950	5.98942799E+0	-2.50600000E+3	2.00000000E+0	-9.80618793E+0	7.22992700E+6
133	12/06/2023	16:41:28.754	4.05661219E+0	-2.51800000E+3	2.00000000E+0	-9.80618793E+0	7.22992700E+6
134	12/06/2023	16:41:30.591	7.58936995E-1	-2.45900000E+3	2.00000000E+0	-9.80618793E+0	7.22992700E+6
135	12/06/2023	16:41:32.489	2.89845670E+0	-2.19000000E+3	2.00000000E+0	-9.80618793E+0	7.22992700E+6
136	12/06/2023	16:41:34.306	9.70242848E-1	-2.11500000E+3	2.00000000E+0	-9.80618793E+0	7.22992700E+6
137	12/06/2023	16:41:36.108	1.07301956E+0	-2.40800000E+3	2.00000000E+0	-9.80618793E+0	7.22992700E+6
138	12/06/2023	16:41:38.184	6.14934548E+0	-2.51100000E+3	2.00000000E+0	-9.80618793E+0	7.22992700E+6
139	12/06/2023	16:41:40.004	3.14235964E+0	-2.51400000E+3	2.00000000E+0	-9.80618793E+0	7.22992700E+6
140	12/06/2023	16:41:41.763	7.17136018E-1	-2.40300000E+3	2.00000000E+0	-9.80618793E+0	7.22992700E+6
141	12/06/2023	16:41:43.505	4.03436947E+0	-2.09500000E+3	2.00000000E+0	-9.80618793E+0	7.22992700E+6
142	12/06/2023	16:41:45.241	1.80012645E+0	-2.21300000E+3	2.00000000E+0	-9.80618793E+0	7.22992700E+6
143	12/06/2023	16:41:47.057	2.84361689E+0	-2.47900000E+3	2.00000000E+0	-9.80618793E+0	7.22992700E+6
144	12/06/2023	16:41:48.892	2.37421876E+0	-2.51800000E+3	2.00000000E+0	-9.80618793E+0	7.22992700E+6
145	12/06/2023	16:41:50.723	8.09558361E-1	-2.32400000E+3	2.00000000E+0	-9.80618793E+0	7.22992700E+6
146	12/06/2023	16:41:52.617	3.32528685E+0	-1.92800000E+3	2.00000000E+0	-9.80618793E+0	7.22992700E+6
147	12/06/2023	16:41:54.419	2.36386439E+0	-2.29300000E+3	2.00000000E+0	-9.80618793E+0	7.22992700E+6
148	12/06/2023	16:41:56.312	3.53889368E+0	-2.51300000E+3	2.00000000E+0	-9.80618793E+0	7.22992700E+6
149	12/06/2023	16:41:58.166	4.32467534E+0	-2.50700000E+3	2.00000000E+0	-9.80618793E+0	7.22992700E+6
150	12/06/2023	16:42:00.019	3.12241789E+0	-2.50100000E+3	2.00000000E+0	-9.80618793E+0	7.22992700E+6
151	12/06/2023	16:42:01.858	4.56857828E+0	-2.36700000E+3	2.00000000E+0	-9.80618793E+0	7.22992700E+6
152	12/06/2023	16:42:03.600	4.25066076E+0	-2.28100000E+3	2.00000000E+0	-9.80618793E+0	7.22992700E+6
153	12/06/2023	16:42:05.347	2.68791784E+0	-2.48500000E+3	2.00000000E+0	-9.80618793E+0	7.22992700E+6
154	12/06/2023	16:42:07.130	1.21299531E+0	-2.50400000E+3	2.00000000E+0	-9.80618793E+0	7.22992700E+6
155	12/06/2023	16:42:08.846	5.32751528E+0	-2.49800000E+3	2.00000000E+0	-9.80618793E+0	7.22992700E+6
156	12/06/2023	16:42:10.779	5.25541818E+0	-2.48500000E+3	2.00000000E+0	-9.80618793E+0	7.22992700E+6
157	12/06/2023	16:42:12.544	5.54610754E+0	-2.26900000E+3	2.00000000E+0	-9.80618793E+0	7.22992700E+6
158	12/06/2023	16:42:14.392	3.25932568E+0	-2.07700000E+3	2.00000000E+0	-9.80618793E+0	7.22992700E+6
159	12/06/2023	16:42:16.294	2.75502950E+0	-2.36000000E+3	2.00000000E+0	-9.80618793E+0	7.22992700E+6
160	12/06/2023	16:42:18.115	5.46634054E+0	-2.51500000E+3	2.00000000E+0	-9.80618793E+0	7.22992700E+6
161	12/06/2023	16:42:20.016	5.78003961E+0	-2.48100000E+3	2.00000000E+0	-9.80618793E+0	7.22992700E+6
162	12/06/2023	16:42:21.859	3.37015579E+0	-2.48900000E+3	2.00000000E+0	-9.80618793E+0	7.22992700E+6
163	12/06/2023	16:42:23.729	5.36969975E+0	-2.20600000E+3	2.00000000E+0	-9.80618793E+0	7.22992700E+6
164	12/06/2023	16:42:25.563	2.85857320E+0	-2.11800000E+3	2.00000000E+0	-9.80618793E+0	7.22992700E+6
165	12/06/2023	16:42:27.326	4.83242298E+0	-2.41600000E+3	2.00000000E+0	-9.80618793E+0	7.22992700E+6
166	12/06/2023	16:42:28.999	5.80611728E+0	-2.51300000E+3	2.00000000E+0	-9.80618793E+0	7.22992700E+6
167	12/06/2023	16:42:30.840	4.65141324E+0	-2.43600000E+3	2.00000000E+0	-9.80618793E+0	7.22992700E+6
168	12/06/2023	16:42:32.669	7.18669999E-1	-2.51000000E+3	2.00000000E+0	-9.80618793E+0	7.22992700E+6
169	12/06/2023	16:42:34.616	3.03421400E+0	-2.41300000E+3	2.00000000E+0	-9.80618793E+0	7.22992700E+6
170	12/06/2023	16:42:36.408	1.58115070E+0	-2.10800000E+3	2.00000000E+0	-9.80618793E+0	7.22992700E+6
171	12/06/2023	16:42:38.220	3.26852956E+0	-2.21700000E+3	2.00000000E+0	-9.80618793E+0	7.22992700E+6
172	12/06/2023	16:42:40.167	2.41333527E+0	-2.47700000E+3	2.00000000E+0	-9.80618793E+0	7.22992700E+6
173	12/06/2023	16:42:41.997	2.16751485E+0	-2.50900000E+3	2.00000000E+0	-9.80618793E+0	7.22992700E+6
174	12/06/2023	16:42:43.832	3.13775770E+0	-2.49500000E+3	2.00000000E+0	-9.80618793E+0	7.22992700E+6
175	12/06/2023	16:42:45.652	2.60853433E+0	-2.28800000E+3	2.00000000E+0	-9.80618793E+0	7.22992700E+6
176	12/06/2023	16:42:47.407	2.19282554E+0	-2.17300000E+3	2.00000000E+0	-9.80618793E+0	7.22992700E+6
177	12/06/2023	16:42:49.345	1.81431578E+0	-2.48800000E+3	2.00000000E+0	-9.80618793E+0	7.22992700E+6
178	12/06/2023	16:42:51.096	3.63131602E+0	-2.51400000E+3	2.00000000E+0	-9.80618793E+0	7.22992700E+6
179	12/06/2023	16:42:52.832	5.88703477E+0	-2.49400000E+3	2.00000000E+0	-9.80618793E+0	7.22992700E+6
180	12/06/2023	16:42:54.865	7.48582624E-1	-2.17500000E+3	2.00000000E+0	-9.80618793E+0	7.22992700E+6
181	12/06/2023	16:42:56.691	2.00146143E+0	-2.25900000E+3	2.00000000E+0	-9.80618793E+0	7.22992700E+6
182	12/06/2023	16:42:58.589	3.52201989E+0	-2.51400000E+3	2.00000000E+0	-9.80618793E+0	7.22992700E+6
183	12/06/2023	16:43:00.423	5.45176772E+0	-2.49400000E+3	2.00000000E+0	-9.80618793E+0	7.22992700E+6
184	12/06/2023	16:43:02.233	5.88933574E+0	-2.50600000E+3	2.00000000E+0	-9.80618793E+0	7.22992700E+6
185	12/06/2023	16:43:04.146	1.67740799E+0	-2.34700000E+3	2.00000000E+0	-9.80618793E+0	7.22992700E+6
186	12/06/2023	16:43:06.042	2.04402940E-1	-2.45200000E+3	2.00000000E+0	-9.80618793E+0	7.22992700E+6
187	12/06/2023	16:43:07.915	1.40972834E+0	-2.51600000E+3	2.00000000E+0	-9.80618793E+0	7.22992700E+6
188	12/06/2023	16:43:09.824	3.46526260E+0	-2.50900000E+3	2.00000000E+0	-9.80618793E+0	7.22992700E+6
189	12/06/2023	16:43:11.591	2.82137416E+0	-2.37200000E+3	2.00000000E+0	-9.80618793E+0	7.22992700E+6
190	12/06/2023	16:43:13.402	7.73509812E-1	-2.13400000E+3	2.00000000E+0	-9.80618793E+0	7.22992700E+6
191	12/06/2023	16:43:15.086	4.48881128E+0	-2.25700000E+3	2.00000000E+0	-9.80618793E+0	7.22992700E+6
192	12/06/2023	16:43:16.895	3.55691795E+0	-2.47300000E+3	2.00000000E+0	-9.80618793E+0	7.22992700E+6
193	12/06/2023	16:43:18.835	6.21914161E+0	-2.51600000E+3	2.00000000E+0	-9.80618793E+0	7.22992700E+6
194	12/06/2023	16:43:20.721	3.60600534E+0	-2.51000000E+3	2.00000000E+0	-9.80618793E+0	7.22992700E+6
195	12/06/2023	16:43:22.616	8.09558361E-1	-2.41100000E+3	2.00000000E+0	-9.80618793E+0	7.22992700E+6
196	12/06/2023	16:43:24.440	5.20786477E+0	-2.16100000E+3	2.00000000E+0	-9.80618793E+0	7.22992700E+6
197	12/06/2023	16:43:26.307	5.81915612E+0	-2.21700000E+3	2.00000000E+0	-9.80618793E+0	7.22992700E+6
198	12/06/2023	16:43:28.154	4.56666081E+0	-2.45300000E+3	2.00000000E+0	-9.80618793E+0	7.22992700E+6
199	12/06/2023	16:43:29.903	5.29683566E+0	-2.51400000E+3	2.00000000E+0	-9.80618793E+0	7.22992700E+6
200	12/06/2023	16:43:31.714	4.13446172E+0	-2.51200000E+3	2.00000000E+0	-9.80618793E+0	7.22992700E+6
201	12/06/2023	16:43:33.550	4.75303947E+0	-2.44600000E+3	2.00000000E+0	-9.80618793E+0	7.22992700E+6
202	12/06/2023	16:43:35.237	1.52592739E+0	-2.19400000E+3	2.00000000E+0	-9.80618793E+0	7.22992700E+6
203	12/06/2023	16:43:37.008	6.13975810E-1	-2.16200000E+3	2.00000000E+0	-9.80618793E+0	7.22992700E+6
204	12/06/2023	16:43:38.804	2.12993232E+0	-2.41500000E+3	2.00000000E+0	-9.80618793E+0	7.22992700E+6
205	12/06/2023	16:43:40.695	5.63737940E-2	-2.51400000E+3	2.00000000E+0	-9.80618793E+0	7.22992700E+6
206	12/06/2023	16:43:42.601	5.55531142E+0	-2.50800000E+3	2.00000000E+0	-9.80618793E+0	7.22992700E+6
207	12/06/2023	16:43:44.566	2.61160229E+0	-2.39500000E+3	2.00000000E+0	-9.80618793E+0	7.22992700E+6
208	12/06/2023	16:43:46.723	5.57602016E+0	-2.11400000E+3	2.00000000E+0	-9.80618793E+0	7.22992700E+6
209	12/06/2023	16:43:48.637	6.86456403E-1	-2.29500000E+3	2.00000000E+0	-9.80618793E+0	7.22992700E+6
210	12/06/2023	16:43:50.442	3.98873354E+0	-2.49900000E+3	2.00000000E+0	-9.80618793E+0	7.22992700E+6
211	12/06/2023	16:43:52.301	5.87936486E+0	-2.51300000E+3	2.00000000E+0	-9.80618793E+0	7.22992700E+6
212	12/06/2023	16:43:54.048	3.29422374E+0	-2.48600000E+3	2.00000000E+0	-9.80618793E+0	7.22992700E+6
213	12/06/2023	16:43:55.852	1.63253905E+0	-2.28600000E+3	2.00000000E+0	-9.80618793E+0	7.22992700E+6
214	12/06/2023	16:43:57.705	1.40014096E+0	-2.07800000E+3	2.00000000E+0	-9.80618793E+0	7.22992700E+6
215	12/06/2023	16:43:59.438	1.70847110E+0	-2.29800000E+3	2.00000000E+0	-9.80618793E+0	7.22992700E+6
216	12/06/2023	16:44:01.398	2.68446638E-1	-2.49000000E+3	2.00000000E+0	-9.80618793E+0	7.22992700E+6
217	12/06/2023	16:44:03.324	3.23823344E+0	-2.49700000E+3	2.00000000E+0	-9.80618793E+0	7.22992700E+6
218	12/06/2023	16:44:05.331	2.04134493E+0	-2.32400000E+3	2.00000000E+0	-9.80618793E+0	7.22992700E+6
219	12/06/2023	16:44:07.381	5.89853962E+0	-2.23300000E+3	2.00000000E+0	-9.80618793E+0	7.22992700E+6
220	12/06/2023	16:44:09.280	1.31155357E-1	-2.45000000E+3	2.00000000E+0	-9.80618793E+0	7.22992700E+6
221	12/06/2023	16:44:11.185	1.65900022E+0	-2.51300000E+3	2.00000000E+0	-9.80618793E+0	7.22992700E+6
222	12/06/2023	16:44:13.089	4.51143750E+0	-2.51200000E+3	2.00000000E+0	-9.80618793E+0	7.22992700E+6
223	12/06/2023	16:44:15.022	4.26868504E+0	-2.28500000E+3	2.00000000E+0	-9.80618793E+0	7.22992700E+6
224	12/06/2023	16:44:16.982	2.95329651E+0	-2.06600000E+3	2.00000000E+0	-9.80618793E+0	7.22992700E+6
225	12/06/2023	16:44:18.800	5.54150560E+0	-2.32900000E+3	2.00000000E+0	-9.80618793E+0	7.22992700E+6
226	12/06/2023	16:44:20.549	2.33318478E+0	-2.51000000E+3	2.00000000E+0	-9.80618793E+0	7.22992700E+6
227	12/06/2023	16:44:22.436	4.12372385E+0	-2.51400000E+3	2.00000000E+0	-9.80618793E+0	7.22992700E+6
228	12/06/2023	16:44:24.383	6.23448142E+0	-2.47200000E+3	2.00000000E+0	-9.80618793E+0	7.22992700E+6
229	12/06/2023	16:44:26.297	6.20495229E+0	-2.21400000E+3	2.00000000E+0	-9.80618793E+0	7.22992700E+6
230	12/06/2023	16:44:28.265	6.03007848E+0	-2.11400000E+3	2.00000000E+0	-9.80618793E+0	7.22992700E+6
231	12/06/2023	16:44:30.192	2.25648574E+0	-2.42200000E+3	2.00000000E+0	-9.80618793E+0	7.22992700E+6
232	12/06/2023	16:44:32.276	3.55806844E+0	-2.50800000E+3	2.00000000E+0	-9.80618793E+0	7.22992700E+6
233	12/06/2023	16:44:34.153	1.80242743E-2	-2.51400000E+3	2.00000000E+0	-9.80618793E+0	7.22992700E+6
234	12/06/2023	16:44:36.051	9.48383622E-1	-2.38300000E+3	2.00000000E+0	-9.80618793E+0	7.22992700E+6
235	12/06/2023	16:44:37.983	4.84546181E+0	-2.05700000E+3	2.00000000E+0	-9.80618793E+0	7.22992700E+6
236	12/06/2023	16:44:39.970	4.53674818E-1	-2.30200000E+3	2.00000000E+0	-9.80618793E+0	7.22992700E+6
237	12/06/2023	16:44:41.822	4.83280647E+0	-2.50800000E+3	2.00000000E+0	-9.80618793E+0	7.22992700E+6
238	12/06/2023	16:44:43.633	1.45881573E+0	-2.51000000E+3	2.00000000E+0	-9.80618793E+0	7.22992700E+6
239	12/06/2023	16:44:45.474	2.23999545E+0	-2.46700000E+3	2.00000000E+0	-9.80618793E+0	7.22992700E+6
240	12/06/2023	16:44:47.441	1.69389829E+0	-2.15800000E+3	2.00000000E+0	-9.80618793E+0	7.22992700E+6
241	12/06/2023	16:44:49.359	2.62540812E+0	-2.16200000E+3	2.00000000E+0	-9.80618793E+0	7.22992700E+6
242	12/06/2023	16:44:51.363	3.23324801E+0	-2.45200000E+3	2.00000000E+0	-9.80618793E+0	7.22992700E+6
243	12/06/2023	16:44:53.290	1.48029146E+0	-2.51500000E+3	2.00000000E+0	-9.80618793E+0	7.22992700E+6
244	12/06/2023	16:44:55.209	3.76132089E+0	-2.52000000E+3	2.00000000E+0	-9.80618793E+0	7.22992700E+6
245	12/06/2023	16:44:57.161	6.06037460E+0	-2.27700000E+3	2.00000000E+0	-9.80618793E+0	7.22992700E+6
246	12/06/2023	16:44:59.062	5.83449593E+0	-2.07300000E+3	2.00000000E+0	-9.80618793E+0	7.22992700E+6
247	12/06/2023	16:45:01.044	3.80925779E+0	-2.45000000E+3	2.00000000E+0	-9.80618793E+0	7.22992700E+6
248	12/06/2023	16:45:03.021	7.68524375E-1	-2.49800000E+3	2.00000000E+0	-9.80618793E+0	7.22992700E+6
249	12/06/2023	16:45:04.908	2.78570911E+0	-2.49100000E+3	2.00000000E+0	-9.80618793E+0	7.22992700E+6
250	12/06/2023	16:45:06.811	5.32368032E+0	-2.17500000E+3	2.00000000E+0	-9.80618793E+0	7.22992700E+6
251	12/06/2023	16:45:08.577	5.58599104E+0	-2.11200000E+3	2.00000000E+0	-9.80618793E+0	7.22992700E+6
252	12/06/2023	16:45:10.508	5.34438906E+0	-2.46900000E+3	2.00000000E+0	-9.80618793E+0	7.22992700E+6
253	12/06/2023	16:45:12.490	5.68876775E+0	-2.51600000E+3	2.00000000E+0	-9.80618793E+0	7.22992700E+6
254	12/06/2023	16:45:14.452	2.06013620E+0	-2.45500000E+3	2.00000000E+0	-9.80618793E+0	7.22992700E+6
255	12/06/2023	16:45:16.366	5.41380170E+0	-2.05700000E+3	2.00000000E+0	-9.80618793E+0	7.22992700E+6
256	12/06/2023	16:45:18.369	8.78204001E-2	-2.26300000E+3	2.00000000E+0	-9.80618793E+0	7.22992700E+6
257	12/06/2023	16:45:20.290	2.46970907E-1	-2.51600000E+3	2.00000000E+0	-9.80618793E+0	7.22992700E+6
258	12/06/2023	16:45:22.231	3.78126264E-1	-2.46600000E+3	2.00000000E+0	-9.80618793E+0	7.22992700E+6
259	12/06/2023	16:45:24.207	4.09342773E+0	-2.50300000E+3	2.00000000E+0	-9.80618793E+0	7.22992700E+6
260	12/06/2023	16:45:25.988	1.11213607E-2	-2.23900000E+3	2.00000000E+0	-9.80618793E+0	7.22992700E+6
261	12/06/2023	16:45:27.899	2.00989833E+0	-2.07700000E+3	2.00000000E+0	-9.80618793E+0	7.22992700E+6
262	12/06/2023	16:45:29.647	1.70923809E+0	-2.42900000E+3	2.00000000E+0	-9.80618793E+0	7.22992700E+6
263	12/06/2023	16:45:31.496	2.31861196E+0	-2.49100000E+3	2.00000000E+0	-9.80618793E+0	7.22992700E+6
264	12/06/2023	16:45:33.573	2.43519450E-1	-2.49100000E+3	2.00000000E+0	-9.80618793E+0	7.22992700E+6
265	12/06/2023	16:45:35.478	3.58031116E+0	-2.42200000E+3	2.00000000E+0	-9.80618793E+0	7.22992700E+6
266	12/06/2023	16:45:37.508	4.02478209E+0	-1.97700000E+3	2.00000000E+0	-9.80618793E+0	7.22992700E+6
267	12/06/2023	16:45:39.416	5.78003961E+0	-2.24800000E+3	2.00000000E+0	-9.80618793E+0	7.22992700E+6
268	12/06/2023	16:45:41.363	1.28547590E+0	-2.50900000E+3	2.00000000E+0	-9.80618793E+0	7.22992700E+6
269	12/06/2023	16:45:43.350	3.61712670E+0	-2.44900000E+3	2.00000000E+0	-9.80618793E+0	7.22992700E+6
270	12/06/2023	16:45:45.251	4.36647631E+0	-2.51200000E+3	2.00000000E+0	-9.80618793E+0	7.22992700E+6
271	12/06/2023	16:45:47.270	2.41678673E+0	-2.45300000E+3	2.00000000E+0	-9.80618793E+0	7.22992700E+6
272	12/06/2023	16:45:49.116	1.08529141E-1	-2.21800000E+3	2.00000000E+0	-9.80618793E+0	7.22992700E+6
273	12/06/2023	16:45:50.886	1.43427204E-1	-2.25300000E+3	2.00000000E+0	-9.80618793E+0	7.22992700E+6
274	12/06/2023	16:45:52.790	5.98252507E-1	-2.42600000E+3	2.00000000E+0	-9.80618793E+0	7.22992700E+6
275	12/06/2023	16:45:54.492	3.67963641E+0	-2.50400000E+3	2.00000000E+0	-9.80618793E+0	7.22992700E+6
276	12/06/2023	16:45:56.303	3.76400536E+0	-2.51100000E+3	2.00000000E+0	-9.80618793E+0	7.22992700E+6
277	12/06/2023	16:45:58.238	3.35634996E+0	-2.43100000E+3	2.00000000E+0	-9.80618793E+0	7.22992700E+6
278	12/06/2023	16:46:00.158	6.48106883E-1	-2.26400000E+3	2.00000000E+0	-9.80618793E+0	7.22992700E+6
279	12/06/2023	16:46:02.197	5.58867551E+0	-2.14400000E+3	2.00000000E+0	-9.80618793E+0	7.22992700E+6
280	12/06/2023	16:46:04.098	4.80366084E+0	-2.25200000E+3	2.00000000E+0	-9.80618793E+0	7.22992700E+6
281	12/06/2023	16:46:06.100	2.14757310E-1	-2.34100000E+3	2.00000000E+0	-9.80618793E+0	7.22992700E+6
282	12/06/2023	16:46:08.113	1.82543714E+0	-2.40700000E+3	2.00000000E+0	-9.80618793E+0	7.22992700E+6
283	12/06/2023	16:46:09.960	2.99969943E+0	-2.44600000E+3	2.00000000E+0	-9.80618793E+0	7.22992700E+6
284	12/06/2023	16:46:11.926	5.88281632E+0	-2.48400000E+3	2.00000000E+0	-9.80618793E+0	7.22992700E+6
285	12/06/2023	16:46:13.823	1.21031084E+0	-2.49400000E+3	2.00000000E+0	-9.80618793E+0	7.22992700E+6
286	12/06/2023	16:46:15.630	4.74038413E+0	-2.51000000E+3	2.00000000E+0	-9.80618793E+0	7.22992700E+6
287	12/06/2023	16:46:17.476	2.95559748E+0	-2.51400000E+3	2.00000000E+0	-9.80618793E+0	7.22992700E+6
288	12/06/2023	16:46:19.416	2.15064106E+0	-2.51500000E+3	2.00000000E+0	-9.80618793E+0	7.22992700E+6
289	12/06/2023	16:46:21.311	1.25786425E-1	-2.51800000E+3	2.00000000E+0	-9.80618793E+0	7.22992700E+6
290	12/06/2023	16:46:23.316	3.31723345E+0	-2.51100000E+3	2.00000000E+0	-9.80618793E+0	7.22992700E+6
291	12/06/2023	16:46:25.242	3.65240826E+0	-2.49500000E+3	2.00000000E+0	-9.80618793E+0	7.22992700E+6
292	12/06/2023	16:46:27.250	2.38150517E-1	-2.47600000E+3	2.00000000E+0	-9.80618793E+0	7.22992700E+6
293	12/06/2023	16:46:29.164	3.58031116E+0	-2.43600000E+3	2.00000000E+0	-9.80618793E+0	7.22992700E+6
294	12/06/2023	16:46:31.070	1.62601964E-1	-2.38100000E+3	2.00000000E+0	-9.80618793E+0	7.22992700E+6
295	12/06/2023	16:46:33.114	1.84576238E+0	-2.29200000E+3	2.00000000E+0	-9.80618793E+0	7.22992700E+6
296	12/06/2023	16:46:34.867	4.74153462E+0	-2.20500000E+3	2.00000000E+0	-9.80618793E+0	7.22992700E+6
297	12/06/2023	16:46:36.731	3.98183063E+0	-2.12000000E+3	2.00000000E+0	-9.80618793E+0	7.22992700E+6
298	12/06/2023	16:46:38.619	1.13169433E+0	-2.20900000E+3	2.00000000E+0	-9.80618793E+0	7.22992700E+6
299	12/06/2023	16:46:40.358	3.95268500E+0	-2.29200000E+3	2.00000000E+0	-9.80618793E+0	7.22992700E+6
300	12/06/2023	16:46:42.289	4.30358310E+0	-2.39500000E+3	2.00000000E+0	-9.80618793E+0	7.22992700E+6
301	12/06/2023	16:46:44.213	3.82843255E+0	-2.45000000E+3	2.00000000E+0	-9.80618793E+0	7.22992700E+6
302	12/06/2023	16:46:46.178	3.59833543E+0	-2.49700000E+3	2.00000000E+0	-9.80618793E+0	7.22992700E+6
303	12/06/2023	16:46:48.219	2.06397115E+0	-2.51600000E+3	2.00000000E+0	-9.80618793E+0	7.22992700E+6
304	12/06/2023	16:46:50.144	3.54656358E+0	-2.51300000E+3	2.00000000E+0	-9.80618793E+0	7.22992700E+6
305	12/06/2023	16:46:52.147	2.60393239E-1	-2.51900000E+3	2.00000000E+0	-9.80618793E+0	7.22992700E+6
306	12/06/2023	16:46:54.067	2.71783046E+0	-2.50300000E+3	2.00000000E+0	-9.80618793E+0	7.22992700E+6
307	12/06/2023	16:46:55.995	3.75633545E+0	-2.48800000E+3	2.00000000E+0	-9.80618793E+0	7.22992700E+6
308	12/06/2023	16:46:57.918	5.33595217E+0	-2.43600000E+3	2.00000000E+0	-9.80618793E+0	7.22992700E+6
309	12/06/2023	16:46:59.684	6.33534065E-1	-2.35900000E+3	2.00000000E+0	-9.80618793E+0	7.22992700E+6
310	12/06/2023	16:47:01.492	1.90251967E+0	-2.21400000E+3	2.00000000E+0	-9.80618793E+0	7.22992700E+6
311	12/06/2023	16:47:03.419	1.68699537E+0	-2.15900000E+3	2.00000000E+0	-9.80618793E+0	7.22992700E+6
312	12/06/2023	16:47:05.342	3.85911217E+0	-2.29300000E+3	2.00000000E+0	-9.80618793E+0	7.22992700E+6
313	12/06/2023	16:47:07.358	2.61045181E+0	-2.39700000E+3	2.00000000E+0	-9.80618793E+0	7.22992700E+6
314	12/06/2023	16:47:09.205	2.59127705E+0	-2.43700000E+3	2.00000000E+0	-9.80618793E+0	7.22992700E+6
315	12/06/2023	16:47:11.169	2.18630612E+0	-2.49000000E+3	2.00000000E+0	-9.80618793E+0	7.22992700E+6
316	12/06/2023	16:47:13.257	5.66269008E+0	-2.51100000E+3	2.00000000E+0	-9.80618793E+0	7.22992700E+6
317	12/06/2023	16:47:15.205	1.57539827E+0	-2.51600000E+3	2.00000000E+0	-9.80618793E+0	7.22992700E+6
318	12/06/2023	16:47:17.143	4.62111712E+0	-2.51700000E+3	2.00000000E+0	-9.80618793E+0	7.22992700E+6
319	12/06/2023	16:47:19.130	2.18323816E+0	-2.49500000E+3	2.00000000E+0	-9.80618793E+0	7.22992700E+6
320	12/06/2023	16:47:21.005	4.89493269E+0	-2.43900000E+3	2.00000000E+0	-9.80618793E+0	7.22992700E+6
321	12/06/2023	16:47:22.993	3.86026265E+0	-2.36700000E+3	2.00000000E+0	-9.80618793E+0	7.22992700E+6
322	12/06/2023	16:47:24.800	4.23762193E+0	-2.25100000E+3	2.00000000E+0	-9.80618793E+0	7.22992700E+6
323	12/06/2023	16:47:26.592	1.14703413E+0	-2.12700000E+3	2.00000000E+0	-9.80618793E+0	7.22992700E+6
324	12/06/2023	16:47:28.598	2.41295178E+0	-2.16700000E+3	2.00000000E+0	-9.80618793E+0	7.22992700E+6
325	12/06/2023	16:47:30.514	1.70923809E+0	-2.33800000E+3	2.00000000E+0	-9.80618793E+0	7.22992700E+6
326	12/06/2023	16:47:32.525	4.98505407E+0	-2.44400000E+3	2.00000000E+0	-9.80618793E+0	7.22992700E+6
327	12/06/2023	16:47:34.445	2.96058292E-1	-2.50100000E+3	2.00000000E+0	-9.80618793E+0	7.22992700E+6
328	12/06/2023	16:47:36.369	3.98604908E+0	-2.51100000E+3	2.00000000E+0	-9.80618793E+0	7.22992700E+6
329	12/06/2023	16:47:38.374	2.53873820E+0	-2.51600000E+3	2.00000000E+0	-9.80618793E+0	7.22992700E+6
330	12/06/2023	16:47:40.297	8.63247688E-1	-2.50700000E+3	2.00000000E+0	-9.80618793E+0	7.22992700E+6
331	12/06/2023	16:47:42.060	3.28962180E+0	-2.49400000E+3	2.00000000E+0	-9.80618793E+0	7.22992700E+6
332	12/06/2023	16:47:44.061	5.31984537E+0	-2.51600000E+3	2.00000000E+0	-9.80618793E+0	7.22992700E+6
333	12/06/2023	16:47:45.917	1.67050508E+0	-2.51500000E+3	2.00000000E+0	-9.80618793E+0	7.22992700E+6
334	12/06/2023	16:47:47.834	5.97255420E+0	-2.51400000E+3	2.00000000E+0	-9.80618793E+0	7.22992700E+6
335	12/06/2023	16:47:49.567	4.43895690E+0	-2.46600000E+3	2.00000000E+0	-9.80618793E+0	7.22992700E+6
336	12/06/2023	16:47:51.486	5.61513667E+0	-2.45800000E+3	2.00000000E+0	-9.80618793E+0	7.22992700E+6
337	12/06/2023	16:47:53.492	3.00621885E+0	-2.49100000E+3	2.00000000E+0	-9.80618793E+0	7.22992700E+6
338	12/06/2023	16:47:55.415	5.06443757E+0	-2.42400000E+3	2.00000000E+0	-9.80618793E+0	7.22992700E+6
339	12/06/2023	16:47:57.418	3.32145190E+0	-2.38600000E+3	2.00000000E+0	-9.80618793E+0	7.22992700E+6
340	12/06/2023	16:47:59.339	1.56887885E+0	-2.36800000E+3	2.00000000E+0	-9.80618793E+0	7.22992700E+6
341	12/06/2023	16:48:01.262	5.66038911E-1	-2.32400000E+3	2.00000000E+0	-9.80618793E+0	7.22992700E+6
342	12/06/2023	16:48:03.205	1.87912647E+0	-2.29700000E+3	2.00000000E+0	-9.80618793E+0	7.22992700E+6
343	12/06/2023	16:48:04.969	2.00529638E+0	-2.27900000E+3	2.00000000E+0	-9.80618793E+0	7.22992700E+6
344	12/06/2023	16:48:06.978	5.04487932E+0	-2.22400000E+3	2.00000000E+0	-9.80618793E+0	7.22992700E+6
345	12/06/2023	16:48:08.965	5.74514155E+0	-2.18200000E+3	2.00000000E+0	-9.80618793E+0	7.22992700E+6
346	12/06/2023	16:48:10.799	9.97471007E-1	-2.16100000E+3	2.00000000E+0	-9.80618793E+0	7.22992700E+6
347	12/06/2023	16:48:12.566	1.06534966E+0	-2.20600000E+3	2.00000000E+0	-9.80618793E+0	7.22992700E+6
348	12/06/2023	16:48:14.447	1.84077695E+0	-2.26300000E+3	2.00000000E+0	-9.80618793E+0	7.22992700E+6
349	12/06/2023	16:48:16.308	7.05631162E-2	-2.29100000E+3	2.00000000E+0	-9.80618793E+0	7.22992700E+6
350	12/06/2023	16:48:18.281	1.76791286E-1	-2.33200000E+3	2.00000000E+0	-9.80618793E+0	7.22992700E+6
351	12/06/2023	16:48:20.169	5.22780653E+0	-2.38100000E+3	2.00000000E+0	-9.80618793E+0	7.22992700E+6
352	12/06/2023	16:48:22.075	3.53889368E+0	-2.39800000E+3	2.00000000E+0	-9.80618793E+0	7.22992700E+6
353	12/06/2023	16:48:23.982	2.46203916E+0	-2.42400000E+3	2.00000000E+0	-9.80618793E+0	7.22992700E+6
354	12/06/2023	16:48:25.885	4.53636468E+0	-2.44000000E+3	2.00000000E+0	-9.80618793E+0	7.22992700E+6
355	12/06/2023	16:48:27.926	1.77941771E+0	-2.44400000E+3	2.00000000E+0	-9.80618793E+0	7.22992700E+6
356	12/06/2023	16:48:29.840	1.76100994E+0	-2.45500000E+3	2.00000000E+0	-9.80618793E+0	7.22992700E+6
357	12/06/2023	16:48:31.610	9.47233137E-1	-2.46600000E+3	2.00000000E+0	-9.80618793E+0	7.22992700E+6
358	12/06/2023	16:48:33.560	3.17150528E+0	-2.47200000E+3	2.00000000E+0	-9.80618793E+0	7.22992700E+6
359	12/06/2023	16:48:35.357	5.55531142E+0	-2.48100000E+3	2.00000000E+0	-9.80618793E+0	7.22992700E+6
360	12/06/2023	16:48:37.364	3.81577721E+0	-2.48400000E+3	2.00000000E+0	-9.80618793E+0	7.22992700E+6
361	12/06/2023	16:48:39.200	2.49540325E+0	-2.48900000E+3	2.00000000E+0	-9.80618793E+0	7.22992700E+6
362	12/06/2023	16:48:41.120	5.87131147E+0	-2.49400000E+3	2.00000000E+0	-9.80618793E+0	7.22992700E+6
363	12/06/2023	16:48:43.136	1.88372841E+0	-2.49100000E+3	2.00000000E+0	-9.80618793E+0	7.22992700E+6
364	12/06/2023	16:48:45.128	2.33088381E+0	-2.49900000E+3	2.00000000E+0	-9.80618793E+0	7.22992700E+6
365	12/06/2023	16:48:47.032	2.40067993E+0	-2.50700000E+3	2.00000000E+0	-9.80618793E+0	7.22992700E+6
366	12/06/2023	16:48:49.043	1.77596626E+0	-2.51000000E+3	2.00000000E+0	-9.80618793E+0	7.22992700E+6
367	12/06/2023	16:48:50.825	5.92231633E+0	-2.51600000E+3	2.00000000E+0	-9.80618793E+0	7.22992700E+6
368	12/06/2023	16:48:52.824	4.58276760E+0	-2.51700000E+3	2.00000000E+0	-9.80618793E+0	7.22992700E+6
369	12/06/2023	16:48:54.657	2.84553436E-1	-2.51900000E+3	2.00000000E+0	-9.80618793E+0	7.22992700E+6
370	12/06/2023	16:48:56.506	1.31692251E+0	-2.51600000E+3	2.00000000E+0	-9.80618793E+0	7.22992700E+6
371	12/06/2023	16:48:58.329	8.54043804E-1	-2.51000000E+3	2.00000000E+0	-9.80618793E+0	7.22992700E+6
372	12/06/2023	16:49:00.249	2.98857807E+0	-2.49600000E+3	2.00000000E+0	-9.80618793E+0	7.22992700E+6
373	12/06/2023	16:49:02.174	5.79192796E+0	-2.48600000E+3	2.00000000E+0	-9.80618793E+0	7.22992700E+6
374	12/06/2023	16:49:04.184	4.92868027E+0	-2.47100000E+3	2.00000000E+0	-9.80618793E+0	7.22992700E+6
375	12/06/2023	16:49:06.042	2.77228678E+0	-2.43900000E+3	2.00000000E+0	-9.80618793E+0	7.22992700E+6
376	12/06/2023	16:49:08.017	1.30810212E+0	-2.42300000E+3	2.00000000E+0	-9.80618793E+0	7.22992700E+6
377	12/06/2023	16:49:09.942	1.80702937E+0	-2.40000000E+3	2.00000000E+0	-9.80618793E+0	7.22992700E+6
378	12/06/2023	16:49:11.941	2.73163629E+0	-2.37400000E+3	2.00000000E+0	-9.80618793E+0	7.22992700E+6
379	12/06/2023	16:49:13.927	4.32045689E+0	-2.32000000E+3	2.00000000E+0	-9.80618793E+0	7.22992700E+6
380	12/06/2023	16:49:15.801	5.70909300E+0	-2.29900000E+3	2.00000000E+0	-9.80618793E+0	7.22992700E+6
381	12/06/2023	16:49:17.718	1.80702937E+0	-2.27100000E+3	2.00000000E+0	-9.80618793E+0	7.22992700E+6
382	12/06/2023	16:49:19.482	5.92730176E+0	-2.24000000E+3	2.00000000E+0	-9.80618793E+0	7.22992700E+6
383	12/06/2023	16:49:21.294	2.05169930E+0	-2.21900000E+3	2.00000000E+0	-9.80618793E+0	7.22992700E+6
384	12/06/2023	16:49:23.308	5.80074835E+0	-2.18400000E+3	2.00000000E+0	-9.80618793E+0	7.22992700E+6
385	12/06/2023	16:49:25.203	5.96296682E+0	-2.16300000E+3	2.00000000E+0	-9.80618793E+0	7.22992700E+6
386	12/06/2023	16:49:27.152	3.92353936E+0	-2.18100000E+3	2.00000000E+0	-9.80618793E+0	7.22992700E+6
387	12/06/2023	16:49:29.071	4.70817053E+0	-2.20900000E+3	2.00000000E+0	-9.80618793E+0	7.22992700E+6
388	12/06/2023	16:49:31.011	5.58407356E+0	-2.22900000E+3	2.00000000E+0	-9.80618793E+0	7.22992700E+6
389	12/06/2023	16:49:33.004	2.12839834E-1	-2.28000000E+3	2.00000000E+0	-9.80618793E+0	7.22992700E+6
390	12/06/2023	16:49:34.916	1.44731087E+0	-2.30700000E+3	2.00000000E+0	-9.80618793E+0	7.22992700E+6
391	12/06/2023	16:49:36.861	7.38228254E-1	-2.35700000E+3	2.00000000E+0	-9.80618793E+0	7.22992700E+6
392	12/06/2023	16:49:38.846	4.05239375E+0	-2.38200000E+3	2.00000000E+0	-9.80618793E+0	7.22992700E+6
393	12/06/2023	16:49:40.725	4.40789379E+0	-2.40400000E+3	2.00000000E+0	-9.80618793E+0	7.22992700E+6
394	12/06/2023	16:49:42.690	4.47385497E+0	-2.43500000E+3	2.00000000E+0	-9.80618793E+0	7.22992700E+6
395	12/06/2023	16:49:44.520	1.87682549E+0	-2.45200000E+3	2.00000000E+0	-9.80618793E+0	7.22992700E+6
396	12/06/2023	16:49:46.364	4.45046176E+0	-2.47800000E+3	2.00000000E+0	-9.80618793E+0	7.22992700E+6
397	12/06/2023	16:49:48.385	5.53613666E+0	-2.49300000E+3	2.00000000E+0	-9.80618793E+0	7.22992700E+6
398	12/06/2023	16:49:50.291	4.63070450E+0	-2.50200000E+3	2.00000000E+0	-9.80618793E+0	7.22992700E+6
399	12/06/2023	16:49:52.225	5.61360269E+0	-2.51000000E+3	2.00000000E+0	-9.80618793E+0	7.22992700E+6
400	12/06/2023	16:49:54.207	3.32567035E+0	-2.51200000E+3	2.00000000E+0	-9.80618793E+0	7.22992700E+6
401	12/06/2023	16:49:56.140	4.56704430E+0	-2.51600000E+3	2.00000000E+0	-9.80618793E+0	7.22992700E+6
402	12/06/2023	16:49:58.073	2.94677709E+0	-2.49900000E+3	2.00000000E+0	-9.80618793E+0	7.22992700E+6
403	12/06/2023	16:50:00.011	2.50499063E+0	-2.40500000E+3	2.00000000E+0	-9.80618793E+0	7.22992700E+6
404	12/06/2023	16:50:01.978	1.23562152E+0	-2.10700000E+3	2.00000000E+0	-9.80618793E+0	7.22992700E+6
405	12/06/2023	16:50:04.042	3.88480635E+0	-2.33200000E+3	2.00000000E+0	-9.80618793E+0	7.22992700E+6
406	12/06/2023	16:50:05.842	6.76485527E-1	-2.48600000E+3	2.00000000E+0	-9.80618793E+0	7.22992700E+6
407	12/06/2023	16:50:07.543	2.48658286E+0	-2.50900000E+3	2.00000000E+0	-9.80618793E+0	7.22992700E+6
408	12/06/2023	16:50:09.459	7.49349615E-1	-2.51000000E+3	2.00000000E+0	-9.80618793E+0	7.22992700E+6
409	12/06/2023	16:50:11.342	3.61635971E+0	-2.39900000E+3	2.00000000E+0	-9.80618793E+0	7.22992700E+6
410	12/06/2023	16:50:13.349	2.64228191E+0	-2.08600000E+3	2.00000000E+0	-9.80618793E+0	7.22992700E+6
411	12/06/2023	16:50:15.169	2.49041781E+0	-2.25400000E+3	2.00000000E+0	-9.80618793E+0	7.22992700E+6
412	12/06/2023	16:50:17.109	1.00935936E+0	-2.44300000E+3	2.00000000E+0	-9.80618793E+0	7.22992700E+6
413	12/06/2023	16:50:19.103	8.78587496E-1	-2.51100000E+3	2.00000000E+0	-9.80618793E+0	7.22992700E+6
414	12/06/2023	16:50:20.975	2.76768484E+0	-2.51100000E+3	2.00000000E+0	-9.80618793E+0	7.22992700E+6
415	12/06/2023	16:50:22.891	2.83671397E+0	-2.45700000E+3	2.00000000E+0	-9.80618793E+0	7.22992700E+6
416	12/06/2023	16:50:24.790	2.54717510E+0	-2.28800000E+3	2.00000000E+0	-9.80618793E+0	7.22992700E+6
417	12/06/2023	16:50:26.702	3.54886455E+0	-2.14600000E+3	2.00000000E+0	-9.80618793E+0	7.22992700E+6
418	12/06/2023	16:50:28.611	3.83380148E+0	-2.35500000E+3	2.00000000E+0	-9.80618793E+0	7.22992700E+6
419	12/06/2023	16:50:30.363	5.70947649E+0	-2.49000000E+3	2.00000000E+0	-9.80618793E+0	7.22992700E+6
420	12/06/2023	16:50:32.133	3.78969954E+0	-2.51100000E+3	2.00000000E+0	-9.80618793E+0	7.22992700E+6
421	12/06/2023	16:50:34.161	2.60508287E+0	-2.51800000E+3	2.00000000E+0	-9.80618793E+0	7.22992700E+6
422	12/06/2023	16:50:36.095	6.23716588E+0	-2.40700000E+3	2.00000000E+0	-9.80618793E+0	7.22992700E+6
423	12/06/2023	16:50:38.149	3.69689370E-1	-2.18400000E+3	2.00000000E+0	-9.80618793E+0	7.22992700E+6
424	12/06/2023	16:50:40.023	4.74000063E-1	-2.21700000E+3	2.00000000E+0	-9.80618793E+0	7.22992700E+6
425	12/06/2023	16:50:41.956	3.79621895E+0	-2.46200000E+3	2.00000000E+0	-9.80618793E+0	7.22992700E+6
426	12/06/2023	16:50:43.952	1.33916523E+0	-2.51700000E+3	2.00000000E+0	-9.80618793E+0	7.22992700E+6
427	12/06/2023	16:50:45.888	8.97378761E-2	-2.50900000E+3	2.00000000E+0	-9.80618793E+0	7.22992700E+6
428	12/06/2023	16:50:47.818	5.99057847E+0	-2.43000000E+3	2.00000000E+0	-9.80618793E+0	7.22992700E+6
429	12/06/2023	16:50:49.661	5.09626767E+0	-2.26700000E+3	2.00000000E+0	-9.80618793E+0	7.22992700E+6
430	12/06/2023	16:50:51.583	3.03958293E+0	-2.10300000E+3	2.00000000E+0	-9.80618793E+0	7.22992700E+6
431	12/06/2023	16:50:53.409	5.00921426E+0	-2.35400000E+3	2.00000000E+0	-9.80618793E+0	7.22992700E+6
432	12/06/2023	16:50:55.162	3.46104415E+0	-2.49300000E+3	2.00000000E+0	-9.80618793E+0	7.22992700E+6
433	12/06/2023	16:50:57.036	2.27566050E+0	-2.51200000E+3	2.00000000E+0	-9.80618793E+0	7.22992700E+6
434	12/06/2023	16:50:59.027	2.04364590E+0	-2.49600000E+3	2.00000000E+0	-9.80618793E+0	7.22992700E+6
435	12/06/2023	16:51:00.924	2.97784020E+0	-2.35500000E+3	2.00000000E+0	-9.80618793E+0	7.22992700E+6
436	12/06/2023	16:51:02.953	3.81539371E+0	-2.10500000E+3	2.00000000E+0	-9.80618793E+0	7.22992700E+6
437	12/06/2023	16:51:04.851	4.05929666E+0	-2.30700000E+3	2.00000000E+0	-9.80618793E+0	7.22992700E+6
438	12/06/2023	16:51:06.838	6.24982123E+0	-2.48800000E+3	2.00000000E+0	-9.80618793E+0	7.22992700E+6
439	12/06/2023	16:51:08.859	7.38611749E-1	-2.51400000E+3	2.00000000E+0	-9.80618793E+0	7.22992700E+6
440	12/06/2023	16:51:10.866	4.62610256E+0	-2.51500000E+3	2.00000000E+0	-9.80618793E+0	7.22992700E+6
441	12/06/2023	16:51:12.645	1.37828174E+0	-2.45400000E+3	2.00000000E+0	-9.80618793E+0	7.22992700E+6
442	12/06/2023	16:51:14.490	2.04211192E+0	-2.28500000E+3	2.00000000E+0	-9.80618793E+0	7.22992700E+6
443	12/06/2023	16:51:16.191	3.13814120E+0	-2.12500000E+3	2.00000000E+0	-9.80618793E+0	7.22992700E+6
444	12/06/2023	16:51:17.980	2.66529162E-1	-2.31200000E+3	2.00000000E+0	-9.80618793E+0	7.22992700E+6
445	12/06/2023	16:51:19.889	1.21376230E+0	-2.47700000E+3	2.00000000E+0	-9.80618793E+0	7.22992700E+6
446	12/06/2023	16:51:21.809	5.30373857E-1	-2.52000000E+3	2.00000000E+0	-9.80618793E+0	7.22992700E+6
447	12/06/2023	16:51:23.841	3.20371888E+0	-2.51200000E+3	2.00000000E+0	-9.80618793E+0	7.22992700E+6
448	12/06/2023	16:51:25.749	3.63054903E+0	-2.47400000E+3	2.00000000E+0	-9.80618793E+0	7.22992700E+6
449	12/06/2023	16:51:27.741	5.75127747E+0	-2.27000000E+3	2.00000000E+0	-9.80618793E+0	7.22992700E+6
450	12/06/2023	16:51:29.661	8.44839919E-1	-2.08700000E+3	2.00000000E+0	-9.80618793E+0	7.22992700E+6
451	12/06/2023	16:51:31.582	4.56090838E+0	-2.30400000E+3	2.00000000E+0	-9.80618793E+0	7.22992700E+6
452	12/06/2023	16:51:33.655	5.14995700E+0	-2.49000000E+3	2.00000000E+0	-9.80618793E+0	7.22992700E+6
453	12/06/2023	16:51:35.457	4.78180161E+0	-2.51500000E+3	2.00000000E+0	-9.80618793E+0	7.22992700E+6
454	12/06/2023	16:51:37.358	2.02101969E-1	-2.50800000E+3	2.00000000E+0	-9.80618793E+0	7.22992700E+6
455	12/06/2023	16:51:39.183	5.94264157E+0	-2.43700000E+3	2.00000000E+0	-9.80618793E+0	7.22992700E+6
456	12/06/2023	16:51:40.940	5.21936963E+0	-2.23000000E+3	2.00000000E+0	-9.80618793E+0	7.22992700E+6
457	12/06/2023	16:51:42.950	7.62004956E-1	-2.11000000E+3	2.00000000E+0	-9.80618793E+0	7.22992700E+6
458	12/06/2023	16:51:44.870	2.81485475E+0	-2.34100000E+3	2.00000000E+0	-9.80618793E+0	7.22992700E+6
459	12/06/2023	16:51:46.789	2.68638385E+0	-2.50000000E+3	2.00000000E+0	-9.80618793E+0	7.22992700E+6
460	12/06/2023	16:51:48.791	4.87690842E+0	-2.51100000E+3	2.00000000E+0	-9.80618793E+0	7.22992700E+6
461	12/06/2023	16:51:50.718	6.22182608E+0	-2.49300000E+3	2.00000000E+0	-9.80618793E+0	7.22992700E+6
462	12/06/2023	16:51:52.660	3.30189365E-1	-2.32400000E+3	2.00000000E+0	-9.80618793E+0	7.22992700E+6
463	12/06/2023	16:51:54.640	4.91602493E+0	-2.04600000E+3	2.00000000E+0	-9.80618793E+0	7.22992700E+6
464	12/06/2023	16:51:56.563	1.28547590E+0	-2.18600000E+3	2.00000000E+0	-9.80618793E+0	7.22992700E+6
465	12/06/2023	16:51:58.674	3.74943254E+0	-2.42600000E+3	2.00000000E+0	-9.80618793E+0	7.22992700E+6
466	12/06/2023	16:52:00.503	2.87966543E+0	-2.51000000E+3	2.00000000E+0	-9.80618793E+0	7.22992700E+6
467	12/06/2023	16:52:02.184	2.97247127E+0	-2.51400000E+3	2.00000000E+0	-9.80618793E+0	7.22992700E+6
468	12/06/2023	16:52:04.082	4.30281611E-1	-2.50800000E+3	2.00000000E+0	-9.80618793E+0	7.22992700E+6
469	12/06/2023	16:52:06.002	5.07095699E+0	-2.45300000E+3	2.00000000E+0	-9.80618793E+0	7.22992700E+6
470	12/06/2023	16:52:08.006	2.49310228E+0	-2.28200000E+3	2.00000000E+0	-9.80618793E+0	7.22992700E+6
471	12/06/2023	16:52:09.895	9.34577795E-1	-2.08600000E+3	2.00000000E+0	-9.80618793E+0	7.22992700E+6
472	12/06/2023	16:52:11.849	3.18569460E+0	-2.19700000E+3	2.00000000E+0	-9.80618793E+0	7.22992700E+6
473	12/06/2023	16:52:13.853	9.61422459E-1	-2.40400000E+3	2.00000000E+0	-9.80618793E+0	7.22992700E+6
474	12/06/2023	16:52:15.772	1.06803412E+0	-2.50500000E+3	2.00000000E+0	-9.80618793E+0	7.22992700E+6
475	12/06/2023	16:52:17.639	3.09940818E+0	-2.51600000E+3	2.00000000E+0	-9.80618793E+0	7.22992700E+6
476	12/06/2023	16:52:19.667	2.05706824E+0	-2.47700000E+3	2.00000000E+0	-9.80618793E+0	7.22992700E+6
477	12/06/2023	16:52:21.501	4.64105887E+0	-2.33900000E+3	2.00000000E+0	-9.80618793E+0	7.22992700E+6
478	12/06/2023	16:52:23.470	5.32943275E+0	-2.06200000E+3	2.00000000E+0	-9.80618793E+0	7.22992700E+6
479	12/06/2023	16:52:25.214	1.02661664E+0	-2.08500000E+3	2.00000000E+0	-9.80618793E+0	7.22992700E+6
480	12/06/2023	16:52:26.971	2.68715085E+0	-2.30400000E+3	2.00000000E+0	-9.80618793E+0	7.22992700E+6
481	12/06/2023	16:52:28.974	4.32659281E+0	-2.48500000E+3	2.00000000E+0	-9.80618793E+0	7.22992700E+6
482	12/06/2023	16:52:30.827	4.94440357E+0	-2.51500000E+3	2.00000000E+0	-9.80618793E+0	7.22992700E+6
483	12/06/2023	16:52:32.830	5.19751040E+0	-2.48000000E+3	2.00000000E+0	-9.80618793E+0	7.22992700E+6
484	12/06/2023	16:52:34.822	5.50967549E+0	-2.32700000E+3	2.00000000E+0	-9.80618793E+0	7.22992700E+6
485	12/06/2023	16:52:36.705	1.84844685E-1	-2.10500000E+3	2.00000000E+0	-9.80618793E+0	7.22992700E+6
486	12/06/2023	16:52:38.737	1.81853422E+0	-2.13000000E+3	2.00000000E+0	-9.80618793E+0	7.22992700E+6
487	12/06/2023	16:52:40.684	4.34039864E+0	-2.32800000E+3	2.00000000E+0	-9.80618793E+0	7.22992700E+6
488	12/06/2023	16:52:42.601	1.42928660E+0	-2.46700000E+3	2.00000000E+0	-9.80618793E+0	7.22992700E+6
489	12/06/2023	16:52:44.601	1.60147594E+0	-2.49600000E+3	2.00000000E+0	-9.80618793E+0	7.22992700E+6
490	12/06/2023	16:52:46.462	2.01411677E+0	-2.44700000E+3	2.00000000E+0	-9.80618793E+0	7.22992700E+6
491	12/06/2023	16:52:48.311	6.10409305E+0	-2.32600000E+3	2.00000000E+0	-9.80618793E+0	7.22992700E+6
492	12/06/2023	16:52:50.151	1.68737887E-2	-2.15600000E+3	2.00000000E+0	-9.80618793E+0	7.22992700E+6
493	12/06/2023	16:52:52.064	3.73179176E+0	-2.09600000E+3	2.00000000E+0	-9.80618793E+0	7.22992700E+6
494	12/06/2023	16:52:54.070	3.92699082E-1	-2.35000000E+3	2.00000000E+0	-9.80618793E+0	7.22992700E+6
495	12/06/2023	16:52:55.982	4.55515595E+0	-2.47200000E+3	2.00000000E+0	-9.80618793E+0	7.22992700E+6
496	12/06/2023	16:52:57.918	1.91172356E+0	-2.48800000E+3	2.00000000E+0	-9.80618793E+0	7.22992700E+6
497	12/06/2023	16:52:59.830	1.91517501E+0	-2.36500000E+3	2.00000000E+0	-9.80618793E+0	7.22992700E+6
498	12/06/2023	16:53:01.749	6.09373868E-1	-2.19300000E+3	2.00000000E+0	-9.80618793E+0	7.22992700E+6
499	12/06/2023	16:53:03.712	1.96042745E+0	-2.14300000E+3	2.00000000E+0	-9.80618793E+0	7.22992700E+6
500	12/06/2023	16:53:05.602	2.23309253E+0	-2.34900000E+3	2.00000000E+0	-9.80618793E+0	7.22992700E+6
