#Iteration	Date	Time	STSX	STSY	RotationRateX	RotationRateY	FrCntX	FrCntY	TiptiltCmd1	TiptiltCmd2	TiptiltMonitor1	TiptiltMonitor2
1	12/06/2023	17:20:01.707	0.00000E+0	0.00000E+0	-2.41578E-1	1.01050E-1	0.00000E+0	0.00000E+0	1.95563E+1	1.36210E+1	1.95560E+1	1.36192E+1
2	12/06/2023	17:20:03.428	0.00000E+0	0.00000E+0	6.38200E-2	1.91369E-1	0.00000E+0	0.00000E+0	1.95574E+1	1.36219E+1	1.95579E+1	1.36227E+1
3	12/06/2023	17:20:05.312	0.00000E+0	0.00000E+0	-1.77100E-1	-9.61700E-2	0.00000E+0	0.00000E+0	1.95509E+1	1.36223E+1	1.95497E+1	1.36216E+1
4	12/06/2023	17:20:07.039	0.00000E+0	0.00000E+0	1.40081E+2	6.57118E-1	0.00000E+0	0.00000E+0	2.15183E+1	1.17000E+1	2.15176E+1	1.17001E+1
5	12/06/2023	17:20:08.913	0.00000E+0	0.00000E+0	1.03976E+2	3.02885E+0	0.00000E+0	0.00000E+0	2.09936E+1	1.21623E+1	2.09930E+1	1.21607E+1
6	12/06/2023	17:20:10.918	0.00000E+0	0.00000E+0	1.98469E+1	4.50549E-1	0.00000E+0	0.00000E+0	1.99581E+1	1.32055E+1	1.99583E+1	1.32029E+1
7	12/06/2023	17:20:12.813	0.00000E+0	0.00000E+0	-8.93059E+1	-1.06758E+0	0.00000E+0	0.00000E+0	1.82943E+1	1.48760E+1	1.82943E+1	1.48771E+1
8	12/06/2023	17:20:14.692	0.00000E+0	0.00000E+0	5.11179E+0	6.58457E-1	0.00000E+0	0.00000E+0	1.95999E+1	1.35902E+1	1.96006E+1	1.35929E+1
9	12/06/2023	17:20:16.530	0.00000E+0	0.00000E+0	-1.00422E+0	-4.89508E-1	0.00000E+0	0.00000E+0	1.95507E+1	1.36309E+1	1.95506E+1	1.36301E+1
10	12/06/2023	17:20:18.439	0.00000E+0	0.00000E+0	-3.53051E+1	1.37693E+0	0.00000E+0	0.00000E+0	1.90568E+1	1.40998E+1	1.90551E+1	1.41002E+1
11	12/06/2023	17:20:20.712	0.00000E+0	0.00000E+0	-1.84392E+1	1.63557E-1	0.00000E+0	0.00000E+0	1.92827E+1	1.38694E+1	1.92835E+1	1.38700E+1
12	12/06/2023	17:20:22.550	0.00000E+0	0.00000E+0	-4.62279E+1	-1.00602E+0	0.00000E+0	0.00000E+0	1.89158E+1	1.42503E+1	1.89155E+1	1.42498E+1
13	12/06/2023	17:20:24.555	0.00000E+0	0.00000E+0	-3.62087E+1	1.36799E-1	0.00000E+0	0.00000E+0	1.90291E+1	1.41415E+1	1.90300E+1	1.41402E+1
14	12/06/2023	17:20:26.514	0.00000E+0	0.00000E+0	3.02495E+1	-2.20701E-2	0.00000E+0	0.00000E+0	1.99714E+1	1.31998E+1	1.99713E+1	1.32001E+1
15	12/06/2023	17:20:28.250	0.00000E+0	0.00000E+0	3.90405E+1	-2.17539E+0	0.00000E+0	0.00000E+0	2.01245E+1	1.30444E+1	2.01258E+1	1.30432E+1
16	12/06/2023	17:20:30.042	0.00000E+0	0.00000E+0	1.36688E+1	2.01886E-1	0.00000E+0	0.00000E+0	1.97531E+1	1.34313E+1	1.97548E+1	1.34297E+1
17	12/06/2023	17:20:31.903	0.00000E+0	0.00000E+0	3.96223E+1	2.86058E-1	0.00000E+0	0.00000E+0	2.01213E+1	1.30764E+1	2.01206E+1	1.30774E+1
18	12/06/2023	17:20:33.831	0.00000E+0	0.00000E+0	2.35505E+1	3.48943E-1	0.00000E+0	0.00000E+0	1.98841E+1	1.33020E+1	1.98841E+1	1.33005E+1
19	12/06/2023	17:20:35.809	0.00000E+0	0.00000E+0	1.05740E+1	-1.40197E-2	0.00000E+0	0.00000E+0	1.97063E+1	1.34752E+1	1.97061E+1	1.34761E+1
20	12/06/2023	17:20:37.666	0.00000E+0	0.00000E+0	3.33605E+1	1.42527E+0	0.00000E+0	0.00000E+0	2.00249E+1	1.31416E+1	2.00244E+1	1.31429E+1
21	12/06/2023	17:20:39.673	0.00000E+0	0.00000E+0	-2.74201E+1	2.35678E-1	0.00000E+0	0.00000E+0	1.91630E+1	1.40258E+1	1.91630E+1	1.40262E+1
22	12/06/2023	17:20:41.583	0.00000E+0	0.00000E+0	-8.55804E+1	-2.22272E+0	0.00000E+0	0.00000E+0	1.83356E+1	1.48274E+1	1.83343E+1	1.48275E+1
23	12/06/2023	17:20:43.491	0.00000E+0	0.00000E+0	-7.46250E+1	-3.17520E-1	0.00000E+0	0.00000E+0	1.84814E+1	1.46695E+1	1.84805E+1	1.46708E+1
24	12/06/2023	17:20:45.561	0.00000E+0	0.00000E+0	4.85687E+1	1.93609E+0	0.00000E+0	0.00000E+0	2.02240E+1	1.29336E+1	2.02265E+1	1.29352E+1
25	12/06/2023	17:20:47.417	0.00000E+0	0.00000E+0	3.73824E+1	-1.10289E+0	0.00000E+0	0.00000E+0	2.00764E+1	1.31162E+1	2.00785E+1	1.31147E+1
26	12/06/2023	17:20:49.341	0.00000E+0	0.00000E+0	4.13627E+1	5.87406E-1	0.00000E+0	0.00000E+0	2.01254E+1	1.30334E+1	2.01249E+1	1.30364E+1
27	12/06/2023	17:20:51.124	0.00000E+0	0.00000E+0	7.02326E+1	-6.27030E-1	0.00000E+0	0.00000E+0	2.05293E+1	1.26750E+1	2.05313E+1	1.26762E+1
28	12/06/2023	17:20:52.851	0.00000E+0	0.00000E+0	8.23903E+1	9.41847E-1	0.00000E+0	0.00000E+0	2.07012E+1	1.24898E+1	2.07038E+1	1.24918E+1
29	12/06/2023	17:20:54.862	0.00000E+0	0.00000E+0	3.45651E+1	5.14867E-1	0.00000E+0	0.00000E+0	2.00508E+1	1.31315E+1	2.00498E+1	1.31334E+1
30	12/06/2023	17:20:56.807	0.00000E+0	0.00000E+0	-2.08709E+1	1.99398E-1	0.00000E+0	0.00000E+0	1.93103E+1	1.38508E+1	1.93109E+1	1.38531E+1
31	12/06/2023	17:20:58.714	0.00000E+0	0.00000E+0	-6.47749E+1	-1.18468E+0	0.00000E+0	0.00000E+0	1.86276E+1	1.45449E+1	1.86273E+1	1.45422E+1
32	12/06/2023	17:21:00.648	0.00000E+0	0.00000E+0	-8.13802E+1	-3.24640E-1	0.00000E+0	0.00000E+0	1.83893E+1	1.47555E+1	1.83914E+1	1.47557E+1
33	12/06/2023	17:21:02.569	0.00000E+0	0.00000E+0	-6.46880E+1	-5.05491E-2	0.00000E+0	0.00000E+0	1.86462E+1	1.45002E+1	1.86465E+1	1.45012E+1
34	12/06/2023	17:21:04.585	0.00000E+0	0.00000E+0	-3.51582E+1	1.87793E+0	0.00000E+0	0.00000E+0	1.91020E+1	1.40972E+1	1.91022E+1	1.40965E+1
35	12/06/2023	17:21:06.504	0.00000E+0	0.00000E+0	-6.87841E+1	-9.23534E-1	0.00000E+0	0.00000E+0	1.85997E+1	1.45767E+1	1.85977E+1	1.45754E+1
36	12/06/2023	17:21:08.358	0.00000E+0	0.00000E+0	4.41859E+1	7.17120E-1	0.00000E+0	0.00000E+0	2.01754E+1	1.30253E+1	2.01755E+1	1.30234E+1
37	12/06/2023	17:21:10.339	0.00000E+0	0.00000E+0	4.60912E+1	-1.73985E+0	0.00000E+0	0.00000E+0	2.02582E+1	1.29900E+1	2.02583E+1	1.29895E+1
38	12/06/2023	17:21:12.105	0.00000E+0	0.00000E+0	4.41936E+1	-5.38858E-1	0.00000E+0	0.00000E+0	2.02323E+1	1.29746E+1	2.02331E+1	1.29753E+1
39	12/06/2023	17:21:13.860	0.00000E+0	0.00000E+0	6.62508E+1	1.78436E+0	0.00000E+0	0.00000E+0	2.04725E+1	1.26755E+1	2.04698E+1	1.26731E+1
40	12/06/2023	17:21:15.637	0.00000E+0	0.00000E+0	1.01194E+2	1.15382E+0	0.00000E+0	0.00000E+0	2.09882E+1	1.22356E+1	2.09890E+1	1.22364E+1
41	12/06/2023	17:21:17.481	0.00000E+0	0.00000E+0	5.50766E+1	9.92722E-1	0.00000E+0	0.00000E+0	2.03980E+1	1.28064E+1	2.04004E+1	1.28082E+1
42	12/06/2023	17:21:19.611	0.00000E+0	0.00000E+0	-7.21839E+1	1.94615E-1	0.00000E+0	0.00000E+0	1.85327E+1	1.46321E+1	1.85320E+1	1.46319E+1
43	12/06/2023	17:21:21.475	0.00000E+0	0.00000E+0	-6.97021E+1	-3.48198E-1	0.00000E+0	0.00000E+0	1.85563E+1	1.46212E+1	1.85570E+1	1.46208E+1
44	12/06/2023	17:21:23.398	0.00000E+0	0.00000E+0	-4.14515E+1	3.39390E-1	0.00000E+0	0.00000E+0	1.89760E+1	1.42027E+1	1.89751E+1	1.42006E+1
45	12/06/2023	17:21:25.386	0.00000E+0	0.00000E+0	-7.08349E+1	1.96067E-1	0.00000E+0	0.00000E+0	1.85350E+1	1.46524E+1	1.85366E+1	1.46518E+1
46	12/06/2023	17:21:27.307	0.00000E+0	0.00000E+0	-4.86784E+1	-1.17000E+0	0.00000E+0	0.00000E+0	1.88843E+1	1.43079E+1	1.88851E+1	1.43078E+1
47	12/06/2023	17:21:29.299	0.00000E+0	0.00000E+0	7.29298E+1	1.80533E+0	0.00000E+0	0.00000E+0	2.05828E+1	1.25919E+1	2.05827E+1	1.25911E+1
48	12/06/2023	17:21:31.208	0.00000E+0	0.00000E+0	4.09034E+1	-5.22544E-1	0.00000E+0	0.00000E+0	2.01378E+1	1.30693E+1	2.01379E+1	1.30699E+1
49	12/06/2023	17:21:33.157	0.00000E+0	0.00000E+0	8.78941E+1	9.93415E-1	0.00000E+0	0.00000E+0	2.08161E+1	1.23831E+1	2.08166E+1	1.23846E+1
50	12/06/2023	17:21:35.154	0.00000E+0	0.00000E+0	7.99432E+1	2.88760E-1	0.00000E+0	0.00000E+0	2.07118E+1	1.24575E+1	2.07113E+1	1.24555E+1
51	12/06/2023	17:21:36.939	0.00000E+0	0.00000E+0	7.32058E+1	1.43956E+0	0.00000E+0	0.00000E+0	2.06016E+1	1.26016E+1	2.06038E+1	1.26003E+1
52	12/06/2023	17:21:38.705	0.00000E+0	0.00000E+0	-1.15072E+2	-1.11140E+0	0.00000E+0	0.00000E+0	1.79236E+1	1.52463E+1	1.79246E+1	1.52454E+1
53	12/06/2023	17:21:40.683	0.00000E+0	0.00000E+0	-1.18384E+2	-9.47911E-1	0.00000E+0	0.00000E+0	1.78543E+1	1.52799E+1	1.78527E+1	1.52809E+1
54	12/06/2023	17:21:42.591	0.00000E+0	0.00000E+0	-4.92184E+1	5.23159E-1	0.00000E+0	0.00000E+0	1.88534E+1	1.42954E+1	1.88522E+1	1.42955E+1
55	12/06/2023	17:21:44.567	0.00000E+0	0.00000E+0	-3.37270E+1	-3.39731E-1	0.00000E+0	0.00000E+0	1.90856E+1	1.40921E+1	1.90862E+1	1.40909E+1
56	12/06/2023	17:21:46.458	0.00000E+0	0.00000E+0	-2.64136E+1	-7.42192E-1	0.00000E+0	0.00000E+0	1.91774E+1	1.39737E+1	1.91769E+1	1.39733E+1
57	12/06/2023	17:21:48.372	0.00000E+0	0.00000E+0	4.74462E+1	1.99113E-1	0.00000E+0	0.00000E+0	2.02206E+1	1.29501E+1	2.02205E+1	1.29495E+1
58	12/06/2023	17:21:50.382	0.00000E+0	0.00000E+0	6.51923E+1	2.33245E+0	0.00000E+0	0.00000E+0	2.04563E+1	1.27246E+1	2.04569E+1	1.27271E+1
59	12/06/2023	17:21:52.288	0.00000E+0	0.00000E+0	9.53584E+1	4.27669E-1	0.00000E+0	0.00000E+0	2.09321E+1	1.22691E+1	2.09320E+1	1.22694E+1
60	12/06/2023	17:21:54.285	0.00000E+0	0.00000E+0	9.31671E+1	1.68140E+0	0.00000E+0	0.00000E+0	2.08138E+1	1.23640E+1	2.08141E+1	1.23641E+1
61	12/06/2023	17:21:56.194	0.00000E+0	0.00000E+0	7.69701E+1	8.82500E-1	0.00000E+0	0.00000E+0	2.06650E+1	1.25322E+1	2.06640E+1	1.25327E+1
62	12/06/2023	17:21:58.069	0.00000E+0	0.00000E+0	1.21302E+1	1.54773E-1	0.00000E+0	0.00000E+0	1.98304E+1	1.33810E+1	1.98314E+1	1.33810E+1
63	12/06/2023	17:22:00.011	0.00000E+0	0.00000E+0	-1.11522E+2	-7.07386E-1	0.00000E+0	0.00000E+0	1.79441E+1	1.51867E+1	1.79428E+1	1.51876E+1
64	12/06/2023	17:22:01.735	0.00000E+0	0.00000E+0	-7.02575E+1	-1.85298E+0	0.00000E+0	0.00000E+0	1.86006E+1	1.45834E+1	1.85987E+1	1.45851E+1
65	12/06/2023	17:22:03.495	0.00000E+0	0.00000E+0	-4.92518E+1	-3.54901E-1	0.00000E+0	0.00000E+0	1.88490E+1	1.43082E+1	1.88470E+1	1.43089E+1
66	12/06/2023	17:22:05.578	0.00000E+0	0.00000E+0	-2.62152E+1	-2.39401E-1	0.00000E+0	0.00000E+0	1.91459E+1	1.40562E+1	1.91451E+1	1.40573E+1
67	12/06/2023	17:22:07.418	0.00000E+0	0.00000E+0	-4.40411E+1	-1.16051E+0	0.00000E+0	0.00000E+0	1.89475E+1	1.42146E+1	1.89501E+1	1.42147E+1
68	12/06/2023	17:22:09.368	0.00000E+0	0.00000E+0	-1.74815E+1	-1.34326E-1	0.00000E+0	0.00000E+0	1.93275E+1	1.38503E+1	1.93275E+1	1.38516E+1
69	12/06/2023	17:22:11.258	0.00000E+0	0.00000E+0	1.90334E+1	8.27784E-1	0.00000E+0	0.00000E+0	1.98080E+1	1.33482E+1	1.98072E+1	1.33474E+1
70	12/06/2023	17:22:13.176	0.00000E+0	0.00000E+0	3.05638E+1	7.28941E-1	0.00000E+0	0.00000E+0	1.99716E+1	1.32259E+1	1.99705E+1	1.32276E+1
71	12/06/2023	17:22:15.186	0.00000E+0	0.00000E+0	6.98406E+0	-6.27891E-1	0.00000E+0	0.00000E+0	1.96427E+1	1.35262E+1	1.96420E+1	1.35283E+1
72	12/06/2023	17:22:17.038	0.00000E+0	0.00000E+0	2.33537E+1	6.53434E-1	0.00000E+0	0.00000E+0	1.98556E+1	1.33115E+1	1.98560E+1	1.33122E+1
73	12/06/2023	17:22:19.039	0.00000E+0	0.00000E+0	2.68006E+1	2.10512E+0	0.00000E+0	0.00000E+0	1.99443E+1	1.32155E+1	1.99430E+1	1.32150E+1
74	12/06/2023	17:22:20.994	0.00000E+0	0.00000E+0	3.57759E+1	2.00348E-1	0.00000E+0	0.00000E+0	2.00424E+1	1.31444E+1	2.00415E+1	1.31448E+1
75	12/06/2023	17:22:22.806	0.00000E+0	0.00000E+0	1.76833E+1	5.28622E-1	0.00000E+0	0.00000E+0	1.98138E+1	1.33765E+1	1.98166E+1	1.33756E+1
76	12/06/2023	17:22:24.621	0.00000E+0	0.00000E+0	2.63214E+1	-6.99691E-1	0.00000E+0	0.00000E+0	1.99298E+1	1.32524E+1	1.99265E+1	1.32510E+1
77	12/06/2023	17:22:26.381	0.00000E+0	0.00000E+0	3.59134E+1	2.18943E-1	0.00000E+0	0.00000E+0	2.00789E+1	1.31277E+1	2.00791E+1	1.31256E+1
78	12/06/2023	17:22:28.305	0.00000E+0	0.00000E+0	2.75684E+1	1.13881E+0	0.00000E+0	0.00000E+0	1.99308E+1	1.32479E+1	1.99320E+1	1.32479E+1
79	12/06/2023	17:22:30.323	0.00000E+0	0.00000E+0	5.49180E+1	2.30128E+0	0.00000E+0	0.00000E+0	2.03875E+1	1.28008E+1	2.03909E+1	1.28002E+1
80	12/06/2023	17:22:32.230	0.00000E+0	0.00000E+0	-1.81257E+1	2.74365E-1	0.00000E+0	0.00000E+0	1.93137E+1	1.38700E+1	1.93125E+1	1.38691E+1
81	12/06/2023	17:22:34.126	0.00000E+0	0.00000E+0	-1.94024E+1	-3.97070E-1	0.00000E+0	0.00000E+0	1.92576E+1	1.39185E+1	1.92595E+1	1.39169E+1
82	12/06/2023	17:22:36.071	0.00000E+0	0.00000E+0	-2.02468E+1	-1.36345E-1	0.00000E+0	0.00000E+0	1.92607E+1	1.39071E+1	1.92600E+1	1.39089E+1
83	12/06/2023	17:22:37.992	0.00000E+0	0.00000E+0	-4.60570E+1	-1.32314E+0	0.00000E+0	0.00000E+0	1.89549E+1	1.42481E+1	1.89555E+1	1.42486E+1
84	12/06/2023	17:22:39.866	0.00000E+0	0.00000E+0	-2.26562E+1	1.18584E+0	0.00000E+0	0.00000E+0	1.92541E+1	1.38753E+1	1.92527E+1	1.38739E+1
85	12/06/2023	17:22:41.833	0.00000E+0	0.00000E+0	-1.36254E+1	6.22652E-1	0.00000E+0	0.00000E+0	1.93843E+1	1.38070E+1	1.93815E+1	1.38056E+1
86	12/06/2023	17:22:43.691	0.00000E+0	0.00000E+0	-1.22591E+1	8.21336E-1	0.00000E+0	0.00000E+0	1.93749E+1	1.38122E+1	1.93747E+1	1.38105E+1
87	12/06/2023	17:22:45.444	0.00000E+0	0.00000E+0	-3.45684E+1	6.47555E-1	0.00000E+0	0.00000E+0	1.90428E+1	1.41221E+1	1.90443E+1	1.41230E+1
88	12/06/2023	17:22:47.159	0.00000E+0	0.00000E+0	-1.71560E+1	7.35297E-1	0.00000E+0	0.00000E+0	1.93217E+1	1.38345E+1	1.93209E+1	1.38323E+1
89	12/06/2023	17:22:49.033	0.00000E+0	0.00000E+0	-3.42124E+1	-6.30697E-1	0.00000E+0	0.00000E+0	1.90177E+1	1.41230E+1	1.90182E+1	1.41234E+1
90	12/06/2023	17:22:50.939	0.00000E+0	0.00000E+0	-2.08960E+1	-4.12063E-2	0.00000E+0	0.00000E+0	1.92431E+1	1.39127E+1	1.92439E+1	1.39099E+1
91	12/06/2023	17:22:52.868	0.00000E+0	0.00000E+0	-6.76438E+0	5.69452E-1	0.00000E+0	0.00000E+0	1.94582E+1	1.37158E+1	1.94580E+1	1.37118E+1
92	12/06/2023	17:22:54.868	0.00000E+0	0.00000E+0	-1.00224E+1	-1.63761E-2	0.00000E+0	0.00000E+0	1.94171E+1	1.37593E+1	1.94160E+1	1.37582E+1
93	12/06/2023	17:22:56.793	0.00000E+0	0.00000E+0	-4.51175E+1	-1.71869E-1	0.00000E+0	0.00000E+0	1.89169E+1	1.42551E+1	1.89158E+1	1.42562E+1
94	12/06/2023	17:22:58.799	0.00000E+0	0.00000E+0	-3.40627E+1	-5.25402E-1	0.00000E+0	0.00000E+0	1.90877E+1	1.41143E+1	1.90894E+1	1.41143E+1
95	12/06/2023	17:23:00.713	0.00000E+0	0.00000E+0	-2.06410E+1	-9.66493E-2	0.00000E+0	0.00000E+0	1.92863E+1	1.38802E+1	1.92865E+1	1.38786E+1
96	12/06/2023	17:23:02.590	0.00000E+0	0.00000E+0	-4.59445E+1	-1.17350E+0	0.00000E+0	0.00000E+0	1.89235E+1	1.42279E+1	1.89242E+1	1.42294E+1
97	12/06/2023	17:23:04.559	0.00000E+0	0.00000E+0	3.15438E+1	2.73482E+0	0.00000E+0	0.00000E+0	1.99717E+1	1.31792E+1	1.99697E+1	1.31780E+1
98	12/06/2023	17:23:06.343	0.00000E+0	0.00000E+0	1.85304E+1	1.10896E+0	0.00000E+0	0.00000E+0	1.98317E+1	1.33940E+1	1.98315E+1	1.33933E+1
99	12/06/2023	17:23:08.170	0.00000E+0	0.00000E+0	4.77356E+1	-2.85031E+0	0.00000E+0	0.00000E+0	2.02860E+1	1.28850E+1	2.02863E+1	1.28864E+1
100	12/06/2023	17:23:09.981	0.00000E+0	0.00000E+0	3.64658E+1	4.68308E-1	0.00000E+0	0.00000E+0	2.00762E+1	1.31024E+1	2.00770E+1	1.31011E+1
101	12/06/2023	17:23:11.737	0.00000E+0	0.00000E+0	5.11806E+1	5.81832E-1	0.00000E+0	0.00000E+0	2.02758E+1	1.29305E+1	2.02756E+1	1.29301E+1
102	12/06/2023	17:23:13.697	0.00000E+0	0.00000E+0	2.56548E+1	4.04625E-1	0.00000E+0	0.00000E+0	1.99124E+1	1.32872E+1	1.99129E+1	1.32859E+1
103	12/06/2023	17:23:15.588	0.00000E+0	0.00000E+0	1.78846E+1	-2.97891E-1	0.00000E+0	0.00000E+0	1.98103E+1	1.33842E+1	1.98115E+1	1.33847E+1
104	12/06/2023	17:23:17.510	0.00000E+0	0.00000E+0	2.67318E+1	3.85293E-1	0.00000E+0	0.00000E+0	1.99233E+1	1.32407E+1	1.99230E+1	1.32422E+1
105	12/06/2023	17:23:19.640	0.00000E+0	0.00000E+0	1.49494E+1	2.98880E-1	0.00000E+0	0.00000E+0	1.97426E+1	1.34116E+1	1.97422E+1	1.34135E+1
106	12/06/2023	17:23:21.519	0.00000E+0	0.00000E+0	1.81474E+1	5.30052E-1	0.00000E+0	0.00000E+0	1.97762E+1	1.33760E+1	1.97756E+1	1.33729E+1
107	12/06/2023	17:23:23.472	0.00000E+0	0.00000E+0	5.61927E+1	4.81267E-2	0.00000E+0	0.00000E+0	2.03453E+1	1.28533E+1	2.03454E+1	1.28537E+1
108	12/06/2023	17:23:25.372	0.00000E+0	0.00000E+0	-4.78561E+1	2.29359E-1	0.00000E+0	0.00000E+0	1.88601E+1	1.43233E+1	1.88604E+1	1.43230E+1
109	12/06/2023	17:23:27.207	0.00000E+0	0.00000E+0	-1.81123E+1	-1.88397E-1	0.00000E+0	0.00000E+0	1.92940E+1	1.38625E+1	1.92981E+1	1.38616E+1
110	12/06/2023	17:23:29.232	0.00000E+0	0.00000E+0	-4.49993E+1	-1.01894E+0	0.00000E+0	0.00000E+0	1.89148E+1	1.42688E+1	1.89144E+1	1.42711E+1
111	12/06/2023	17:23:31.008	0.00000E+0	0.00000E+0	-4.93716E+1	6.72555E-2	0.00000E+0	0.00000E+0	1.88686E+1	1.42846E+1	1.88689E+1	1.42837E+1
112	12/06/2023	17:23:32.792	0.00000E+0	0.00000E+0	-1.51303E+1	-5.95786E-1	0.00000E+0	0.00000E+0	1.93365E+1	1.38437E+1	1.93389E+1	1.38429E+1
113	12/06/2023	17:23:34.636	0.00000E+0	0.00000E+0	-2.02217E+1	-6.31472E-1	0.00000E+0	0.00000E+0	1.92686E+1	1.38907E+1	1.92698E+1	1.38904E+1
114	12/06/2023	17:23:36.536	0.00000E+0	0.00000E+0	-1.62307E+1	8.83587E-1	0.00000E+0	0.00000E+0	1.93402E+1	1.38424E+1	1.93402E+1	1.38430E+1
115	12/06/2023	17:23:38.541	0.00000E+0	0.00000E+0	-3.80984E+1	-4.04615E-1	0.00000E+0	0.00000E+0	1.90016E+1	1.41712E+1	1.90034E+1	1.41705E+1
116	12/06/2023	17:23:40.444	0.00000E+0	0.00000E+0	-6.27496E+0	3.25697E-1	0.00000E+0	0.00000E+0	1.94745E+1	1.36947E+1	1.94762E+1	1.36957E+1
117	12/06/2023	17:23:42.369	0.00000E+0	0.00000E+0	-4.39894E+1	8.58800E-2	0.00000E+0	0.00000E+0	1.89392E+1	1.42136E+1	1.89397E+1	1.42127E+1
118	12/06/2023	17:23:44.309	0.00000E+0	0.00000E+0	-4.38192E+1	-2.56589E-1	0.00000E+0	0.00000E+0	1.89481E+1	1.41979E+1	1.89470E+1	1.41946E+1
119	12/06/2023	17:23:46.204	0.00000E+0	0.00000E+0	-1.77688E+1	-1.37216E-1	0.00000E+0	0.00000E+0	1.92489E+1	1.39256E+1	1.92479E+1	1.39264E+1
120	12/06/2023	17:23:48.196	0.00000E+0	0.00000E+0	2.33496E+1	-7.59563E-1	0.00000E+0	0.00000E+0	1.98565E+1	1.33127E+1	1.98579E+1	1.33149E+1
121	12/06/2023	17:23:50.558	0.00000E+0	0.00000E+0	3.26809E+1	-6.83149E-1	0.00000E+0	0.00000E+0	2.00472E+1	1.31475E+1	2.00459E+1	1.31469E+1
122	12/06/2023	17:23:52.262	0.00000E+0	0.00000E+0	2.64948E+1	7.24710E-1	0.00000E+0	0.00000E+0	1.99138E+1	1.32906E+1	1.99134E+1	1.32911E+1
123	12/06/2023	17:23:54.164	0.00000E+0	0.00000E+0	6.28472E+1	4.24469E-1	0.00000E+0	0.00000E+0	2.04690E+1	1.27531E+1	2.04684E+1	1.27529E+1
124	12/06/2023	17:23:55.885	0.00000E+0	0.00000E+0	1.97231E+1	1.09488E+0	0.00000E+0	0.00000E+0	1.98667E+1	1.33235E+1	1.98653E+1	1.33228E+1
125	12/06/2023	17:23:57.635	0.00000E+0	0.00000E+0	2.74095E+1	6.33822E-1	0.00000E+0	0.00000E+0	1.99287E+1	1.32481E+1	1.99289E+1	1.32475E+1
126	12/06/2023	17:23:59.673	0.00000E+0	0.00000E+0	3.02663E+1	-4.30519E-2	0.00000E+0	0.00000E+0	1.99905E+1	1.31895E+1	1.99894E+1	1.31893E+1
127	12/06/2023	17:24:01.577	0.00000E+0	0.00000E+0	3.80866E+1	5.50113E-2	0.00000E+0	0.00000E+0	2.01108E+1	1.30799E+1	2.01109E+1	1.30787E+1
128	12/06/2023	17:24:03.574	0.00000E+0	0.00000E+0	-2.69017E+1	-1.82431E+0	0.00000E+0	0.00000E+0	1.92503E+1	1.39482E+1	1.92492E+1	1.39498E+1
129	12/06/2023	17:24:05.533	0.00000E+0	0.00000E+0	-4.53745E+1	-9.93277E-1	0.00000E+0	0.00000E+0	1.89098E+1	1.42743E+1	1.89099E+1	1.42724E+1
130	12/06/2023	17:24:07.449	0.00000E+0	0.00000E+0	-5.25694E+1	-9.31835E-1	0.00000E+0	0.00000E+0	1.88178E+1	1.43413E+1	1.88176E+1	1.43411E+1
131	12/06/2023	17:24:09.453	0.00000E+0	0.00000E+0	-5.96773E+1	9.55187E-1	0.00000E+0	0.00000E+0	1.86529E+1	1.44922E+1	1.86525E+1	1.44921E+1
132	12/06/2023	17:24:11.361	0.00000E+0	0.00000E+0	-3.61687E+1	2.76833E-1	0.00000E+0	0.00000E+0	1.90547E+1	1.40576E+1	1.90560E+1	1.40567E+1
133	12/06/2023	17:24:13.207	0.00000E+0	0.00000E+0	-4.01085E+1	4.27491E-1	0.00000E+0	0.00000E+0	1.90049E+1	1.41697E+1	1.90029E+1	1.41705E+1
134	12/06/2023	17:24:15.167	0.00000E+0	0.00000E+0	-1.74271E+1	-5.56980E-1	0.00000E+0	0.00000E+0	1.92821E+1	1.39063E+1	1.92830E+1	1.39057E+1
135	12/06/2023	17:24:16.992	0.00000E+0	0.00000E+0	-7.42676E+1	2.13319E-1	0.00000E+0	0.00000E+0	1.84842E+1	1.46550E+1	1.84840E+1	1.46554E+1
136	12/06/2023	17:24:18.828	0.00000E+0	0.00000E+0	-4.95291E+1	-5.65112E-1	0.00000E+0	0.00000E+0	1.88093E+1	1.43442E+1	1.88074E+1	1.43438E+1
137	12/06/2023	17:24:20.640	0.00000E+0	0.00000E+0	4.68810E+1	-1.38600E-1	0.00000E+0	0.00000E+0	2.02286E+1	1.29395E+1	2.02291E+1	1.29388E+1
138	12/06/2023	17:24:22.562	0.00000E+0	0.00000E+0	6.00348E+1	1.82378E-1	0.00000E+0	0.00000E+0	2.03687E+1	1.27374E+1	2.03688E+1	1.27358E+1
139	12/06/2023	17:24:24.553	0.00000E+0	0.00000E+0	5.19520E+1	9.78427E-1	0.00000E+0	0.00000E+0	2.02459E+1	1.28925E+1	2.02440E+1	1.28939E+1
140	12/06/2023	17:24:26.486	0.00000E+0	0.00000E+0	4.23500E+1	4.00126E-1	0.00000E+0	0.00000E+0	2.01393E+1	1.30363E+1	2.01401E+1	1.30336E+1
141	12/06/2023	17:24:28.339	0.00000E+0	0.00000E+0	3.45210E+1	1.18190E+0	0.00000E+0	0.00000E+0	2.00184E+1	1.31504E+1	2.00187E+1	1.31500E+1
142	12/06/2023	17:24:30.234	0.00000E+0	0.00000E+0	2.40294E+1	3.88664E-3	0.00000E+0	0.00000E+0	1.99058E+1	1.32785E+1	1.99064E+1	1.32796E+1
143	12/06/2023	17:24:32.156	0.00000E+0	0.00000E+0	6.25517E+1	8.14619E-1	0.00000E+0	0.00000E+0	2.04249E+1	1.27567E+1	2.04257E+1	1.27554E+1
144	12/06/2023	17:24:34.139	0.00000E+0	0.00000E+0	4.34800E+1	-9.16713E-1	0.00000E+0	0.00000E+0	2.01779E+1	1.30132E+1	2.01767E+1	1.30144E+1
145	12/06/2023	17:24:36.027	0.00000E+0	0.00000E+0	2.62245E+1	-6.83409E-2	0.00000E+0	0.00000E+0	1.99131E+1	1.32695E+1	1.99147E+1	1.32702E+1
146	12/06/2023	17:24:37.796	0.00000E+0	0.00000E+0	3.72654E+1	-4.11678E-1	0.00000E+0	0.00000E+0	2.01457E+1	1.30416E+1	2.01473E+1	1.30403E+1
147	12/06/2023	17:24:39.655	0.00000E+0	0.00000E+0	-1.56270E+1	-7.17762E-2	0.00000E+0	0.00000E+0	1.93459E+1	1.38534E+1	1.93454E+1	1.38512E+1
148	12/06/2023	17:24:41.446	0.00000E+0	0.00000E+0	-1.81555E+1	-5.26804E-2	0.00000E+0	0.00000E+0	1.93066E+1	1.38654E+1	1.93078E+1	1.38684E+1
149	12/06/2023	17:24:43.232	0.00000E+0	0.00000E+0	-4.66799E+1	-1.09823E-1	0.00000E+0	0.00000E+0	1.88633E+1	1.42893E+1	1.88608E+1	1.42890E+1
150	12/06/2023	17:24:45.118	0.00000E+0	0.00000E+0	-5.83117E+1	-7.14668E-2	0.00000E+0	0.00000E+0	1.87029E+1	1.44278E+1	1.87017E+1	1.44281E+1
151	12/06/2023	17:24:47.042	0.00000E+0	0.00000E+0	-8.26759E+1	-8.21608E-1	0.00000E+0	0.00000E+0	1.83609E+1	1.48037E+1	1.83636E+1	1.48012E+1
152	12/06/2023	17:24:48.981	0.00000E+0	0.00000E+0	-3.46907E+1	-1.02076E-1	0.00000E+0	0.00000E+0	1.90579E+1	1.41136E+1	1.90573E+1	1.41161E+1
153	12/06/2023	17:24:50.917	0.00000E+0	0.00000E+0	-1.33958E+1	6.61322E-1	0.00000E+0	0.00000E+0	1.93590E+1	1.38033E+1	1.93581E+1	1.38028E+1
154	12/06/2023	17:24:52.800	0.00000E+0	0.00000E+0	-3.60344E+1	3.04534E+0	0.00000E+0	0.00000E+0	1.90024E+1	1.41641E+1	1.90019E+1	1.41647E+1
155	12/06/2023	17:24:54.792	0.00000E+0	0.00000E+0	-5.10095E+1	1.52385E+0	0.00000E+0	0.00000E+0	1.88266E+1	1.43687E+1	1.88267E+1	1.43681E+1
156	12/06/2023	17:24:56.671	0.00000E+0	0.00000E+0	2.24856E+1	-1.21549E+0	0.00000E+0	0.00000E+0	1.98882E+1	1.32698E+1	1.98885E+1	1.32700E+1
157	12/06/2023	17:24:58.593	0.00000E+0	0.00000E+0	2.36892E+1	-6.23608E-1	0.00000E+0	0.00000E+0	1.99217E+1	1.32869E+1	1.99223E+1	1.32840E+1
158	12/06/2023	17:25:00.553	0.00000E+0	0.00000E+0	2.10263E+1	4.68618E-1	0.00000E+0	0.00000E+0	1.98742E+1	1.33064E+1	1.98743E+1	1.33075E+1
159	12/06/2023	17:25:02.522	0.00000E+0	0.00000E+0	3.43031E+1	1.20576E+0	0.00000E+0	0.00000E+0	2.00328E+1	1.31439E+1	2.00341E+1	1.31453E+1
160	12/06/2023	17:25:04.331	0.00000E+0	0.00000E+0	5.17613E+1	1.03683E+0	0.00000E+0	0.00000E+0	2.02292E+1	1.29293E+1	2.02293E+1	1.29301E+1
161	12/06/2023	17:25:06.044	0.00000E+0	0.00000E+0	3.75490E+1	4.16864E-1	0.00000E+0	0.00000E+0	2.00744E+1	1.30917E+1	2.00748E+1	1.30924E+1
162	12/06/2023	17:25:07.948	0.00000E+0	0.00000E+0	3.02182E+1	7.99978E-1	0.00000E+0	0.00000E+0	1.99837E+1	1.32126E+1	1.99852E+1	1.32094E+1
163	12/06/2023	17:25:09.915	0.00000E+0	0.00000E+0	4.56244E+1	5.31041E-1	0.00000E+0	0.00000E+0	2.02306E+1	1.29452E+1	2.02315E+1	1.29434E+1
164	12/06/2023	17:25:11.854	0.00000E+0	0.00000E+0	2.76678E+1	6.78934E-1	0.00000E+0	0.00000E+0	1.99298E+1	1.32507E+1	1.99289E+1	1.32528E+1
165	12/06/2023	17:25:13.853	0.00000E+0	0.00000E+0	3.13366E+1	-1.10734E-1	0.00000E+0	0.00000E+0	2.00044E+1	1.32015E+1	2.00035E+1	1.31994E+1
166	12/06/2023	17:25:15.749	0.00000E+0	0.00000E+0	-3.98767E+1	6.43438E-2	0.00000E+0	0.00000E+0	1.89839E+1	1.41671E+1	1.89832E+1	1.41707E+1
167	12/06/2023	17:25:17.650	0.00000E+0	0.00000E+0	-2.22178E+1	-7.24024E-1	0.00000E+0	0.00000E+0	1.92464E+1	1.39396E+1	1.92470E+1	1.39387E+1
168	12/06/2023	17:25:19.651	0.00000E+0	0.00000E+0	-2.91374E+1	-9.60990E-1	0.00000E+0	0.00000E+0	1.91334E+1	1.40278E+1	1.91307E+1	1.40270E+1
169	12/06/2023	17:25:21.542	0.00000E+0	0.00000E+0	-4.24942E+1	-9.94468E-1	0.00000E+0	0.00000E+0	1.89324E+1	1.42351E+1	1.89332E+1	1.42348E+1
170	12/06/2023	17:25:23.432	0.00000E+0	0.00000E+0	-2.03209E+1	-7.34298E-1	0.00000E+0	0.00000E+0	1.92495E+1	1.39182E+1	1.92507E+1	1.39161E+1
171	12/06/2023	17:25:25.321	0.00000E+0	0.00000E+0	-3.30500E+1	-6.90070E-1	0.00000E+0	0.00000E+0	1.90698E+1	1.41179E+1	1.90693E+1	1.41185E+1
172	12/06/2023	17:25:27.054	0.00000E+0	0.00000E+0	-5.41012E+1	-5.08371E-1	0.00000E+0	0.00000E+0	1.88077E+1	1.43742E+1	1.88094E+1	1.43732E+1
173	12/06/2023	17:25:28.896	0.00000E+0	0.00000E+0	-3.93254E+1	8.64121E-1	0.00000E+0	0.00000E+0	1.90200E+1	1.41665E+1	1.90214E+1	1.41660E+1
174	12/06/2023	17:25:30.749	0.00000E+0	0.00000E+0	-1.35014E+1	-1.15903E+0	0.00000E+0	0.00000E+0	1.93753E+1	1.38409E+1	1.93739E+1	1.38408E+1
175	12/06/2023	17:25:32.577	0.00000E+0	0.00000E+0	-3.33924E+1	-2.10209E+0	0.00000E+0	0.00000E+0	1.89511E+1	1.42879E+1	1.89497E+1	1.42874E+1
176	12/06/2023	17:25:34.586	0.00000E+0	0.00000E+0	3.74645E+1	2.50962E+0	0.00000E+0	0.00000E+0	2.00651E+1	1.31745E+1	2.00662E+1	1.31751E+1
177	12/06/2023	17:25:36.497	0.00000E+0	0.00000E+0	7.25163E+1	3.23632E-2	0.00000E+0	0.00000E+0	2.06357E+1	1.25710E+1	2.06362E+1	1.25724E+1
178	12/06/2023	17:25:38.503	0.00000E+0	0.00000E+0	2.27519E+1	1.53884E-1	0.00000E+0	0.00000E+0	1.98493E+1	1.33268E+1	1.98479E+1	1.33260E+1
179	12/06/2023	17:25:40.515	0.00000E+0	0.00000E+0	5.59315E+1	2.96629E-1	0.00000E+0	0.00000E+0	2.03127E+1	1.28537E+1	2.03110E+1	1.28545E+1
180	12/06/2023	17:25:42.393	0.00000E+0	0.00000E+0	7.29443E+1	5.51092E-1	0.00000E+0	0.00000E+0	2.05958E+1	1.25805E+1	2.05929E+1	1.25797E+1
181	12/06/2023	17:25:44.355	0.00000E+0	0.00000E+0	2.43109E+1	6.12496E-1	0.00000E+0	0.00000E+0	1.99879E+1	1.31970E+1	1.99902E+1	1.31974E+1
182	12/06/2023	17:25:46.133	0.00000E+0	0.00000E+0	-3.13169E+1	5.14710E-1	0.00000E+0	0.00000E+0	1.91252E+1	1.40477E+1	1.91264E+1	1.40464E+1
183	12/06/2023	17:25:48.123	0.00000E+0	0.00000E+0	-4.86135E+1	-1.01340E+0	0.00000E+0	0.00000E+0	1.88958E+1	1.42816E+1	1.88987E+1	1.42817E+1
184	12/06/2023	17:25:49.866	0.00000E+0	0.00000E+0	-4.53699E+1	4.07375E-1	0.00000E+0	0.00000E+0	1.88817E+1	1.42614E+1	1.88831E+1	1.42603E+1
185	12/06/2023	17:25:51.617	0.00000E+0	0.00000E+0	-6.04025E+1	-2.27254E-1	0.00000E+0	0.00000E+0	1.87093E+1	1.44408E+1	1.87076E+1	1.44411E+1
186	12/06/2023	17:25:53.637	0.00000E+0	0.00000E+0	-5.69555E+1	-1.17876E-2	0.00000E+0	0.00000E+0	1.87232E+1	1.44165E+1	1.87251E+1	1.44153E+1
187	12/06/2023	17:25:55.549	0.00000E+0	0.00000E+0	-6.17726E+1	-2.64524E-1	0.00000E+0	0.00000E+0	1.87013E+1	1.44551E+1	1.87023E+1	1.44553E+1
188	12/06/2023	17:25:57.467	0.00000E+0	0.00000E+0	2.80966E+1	1.72230E+0	0.00000E+0	0.00000E+0	1.99535E+1	1.32337E+1	1.99566E+1	1.32330E+1
189	12/06/2023	17:25:59.474	0.00000E+0	0.00000E+0	1.19527E+1	-3.20486E-1	0.00000E+0	0.00000E+0	1.97451E+1	1.34373E+1	1.97453E+1	1.34369E+1
190	12/06/2023	17:26:01.378	0.00000E+0	0.00000E+0	4.83123E+1	-2.23266E+0	0.00000E+0	0.00000E+0	2.02265E+1	1.29423E+1	2.02272E+1	1.29408E+1
191	12/06/2023	17:26:03.333	0.00000E+0	0.00000E+0	5.69587E+1	1.04828E+0	0.00000E+0	0.00000E+0	2.03871E+1	1.28147E+1	2.03884E+1	1.28166E+1
192	12/06/2023	17:26:05.222	0.00000E+0	0.00000E+0	9.20250E+1	4.88865E-3	0.00000E+0	0.00000E+0	2.08707E+1	1.23208E+1	2.08716E+1	1.23189E+1
193	12/06/2023	17:26:07.135	0.00000E+0	0.00000E+0	6.63962E+1	1.37894E+0	0.00000E+0	0.00000E+0	2.05392E+1	1.26598E+1	2.05394E+1	1.26597E+1
194	12/06/2023	17:26:09.132	0.00000E+0	0.00000E+0	-5.44506E+1	3.10269E-1	0.00000E+0	0.00000E+0	1.87751E+1	1.43691E+1	1.87733E+1	1.43696E+1
195	12/06/2023	17:26:10.946	0.00000E+0	0.00000E+0	-1.01128E+2	3.06333E+0	0.00000E+0	0.00000E+0	1.80644E+1	1.50601E+1	1.80666E+1	1.50626E+1
196	12/06/2023	17:26:12.689	0.00000E+0	0.00000E+0	-7.53269E+1	-6.94402E-1	0.00000E+0	0.00000E+0	1.84584E+1	1.47378E+1	1.84596E+1	1.47405E+1
197	12/06/2023	17:26:14.587	0.00000E+0	0.00000E+0	-4.30411E+1	-1.61400E+0	0.00000E+0	0.00000E+0	1.89674E+1	1.42053E+1	1.89644E+1	1.42069E+1
198	12/06/2023	17:26:16.434	0.00000E+0	0.00000E+0	6.14907E+1	1.21762E+0	0.00000E+0	0.00000E+0	2.03985E+1	1.27839E+1	2.03989E+1	1.27840E+1
199	12/06/2023	17:26:18.453	0.00000E+0	0.00000E+0	5.48990E+1	-1.83788E+0	0.00000E+0	0.00000E+0	2.03443E+1	1.28201E+1	2.03457E+1	1.28194E+1
200	12/06/2023	17:26:20.449	0.00000E+0	0.00000E+0	5.06720E+1	8.55337E-1	0.00000E+0	0.00000E+0	2.03041E+1	1.29173E+1	2.03056E+1	1.29189E+1
201	12/06/2023	17:26:22.374	0.00000E+0	0.00000E+0	6.13933E+1	5.49994E-1	0.00000E+0	0.00000E+0	2.04398E+1	1.27456E+1	2.04396E+1	1.27459E+1
202	12/06/2023	17:26:24.385	0.00000E+0	0.00000E+0	7.03456E+1	3.83109E-1	0.00000E+0	0.00000E+0	2.05723E+1	1.26329E+1	2.05723E+1	1.26346E+1
203	12/06/2023	17:26:26.300	0.00000E+0	0.00000E+0	4.43580E+1	2.74988E-2	0.00000E+0	0.00000E+0	2.01802E+1	1.30086E+1	2.01781E+1	1.30095E+1
204	12/06/2023	17:26:28.305	0.00000E+0	0.00000E+0	-9.10175E+1	-9.76431E-1	0.00000E+0	0.00000E+0	1.82602E+1	1.49204E+1	1.82598E+1	1.49184E+1
205	12/06/2023	17:26:30.227	0.00000E+0	0.00000E+0	-8.13112E+1	-5.60381E-1	0.00000E+0	0.00000E+0	1.83924E+1	1.47740E+1	1.83924E+1	1.47743E+1
206	12/06/2023	17:26:32.011	0.00000E+0	0.00000E+0	-3.75838E+1	-3.56858E-1	0.00000E+0	0.00000E+0	1.89656E+1	1.41994E+1	1.89648E+1	1.41969E+1
207	12/06/2023	17:26:33.921	0.00000E+0	0.00000E+0	-3.73866E+1	9.05618E-1	0.00000E+0	0.00000E+0	1.89534E+1	1.41895E+1	1.89537E+1	1.41893E+1
208	12/06/2023	17:26:35.846	0.00000E+0	0.00000E+0	-5.18929E+1	1.22689E+0	0.00000E+0	0.00000E+0	1.88217E+1	1.42822E+1	1.88247E+1	1.42807E+1
209	12/06/2023	17:26:37.595	0.00000E+0	0.00000E+0	-4.95042E+1	-4.17669E-1	0.00000E+0	0.00000E+0	1.88422E+1	1.43129E+1	1.88419E+1	1.43108E+1
210	12/06/2023	17:26:39.616	0.00000E+0	0.00000E+0	2.89247E+1	-3.76342E-1	0.00000E+0	0.00000E+0	2.00419E+1	1.31332E+1	2.00435E+1	1.31323E+1
211	12/06/2023	17:26:41.506	0.00000E+0	0.00000E+0	3.67381E+1	4.72131E-2	0.00000E+0	0.00000E+0	2.01205E+1	1.30791E+1	2.01194E+1	1.30786E+1
212	12/06/2023	17:26:43.455	0.00000E+0	0.00000E+0	6.19713E+1	4.89417E-1	0.00000E+0	0.00000E+0	2.04675E+1	1.27405E+1	2.04683E+1	1.27405E+1
213	12/06/2023	17:26:45.349	0.00000E+0	0.00000E+0	5.42771E+1	6.45578E-1	0.00000E+0	0.00000E+0	2.03118E+1	1.28786E+1	2.03124E+1	1.28791E+1
214	12/06/2023	17:26:47.358	0.00000E+0	0.00000E+0	1.08693E+2	2.45683E+0	0.00000E+0	0.00000E+0	2.10737E+1	1.21092E+1	2.10748E+1	1.21089E+1
215	12/06/2023	17:26:49.383	0.00000E+0	0.00000E+0	4.82333E+1	-1.11321E+0	0.00000E+0	0.00000E+0	2.02536E+1	1.29421E+1	2.02520E+1	1.29420E+1
216	12/06/2023	17:26:51.282	0.00000E+0	0.00000E+0	3.50324E+1	1.09688E+0	0.00000E+0	0.00000E+0	2.01009E+1	1.30969E+1	2.01022E+1	1.30977E+1
217	12/06/2023	17:26:53.232	0.00000E+0	0.00000E+0	-1.05969E+2	-3.68119E-1	0.00000E+0	0.00000E+0	1.80414E+1	1.51075E+1	1.80415E+1	1.51089E+1
218	12/06/2023	17:26:55.214	0.00000E+0	0.00000E+0	-9.76521E+1	-4.06204E+0	0.00000E+0	0.00000E+0	1.81864E+1	1.49917E+1	1.81859E+1	1.49892E+1
219	12/06/2023	17:26:57.095	0.00000E+0	0.00000E+0	-8.58344E+1	-1.36633E+0	0.00000E+0	0.00000E+0	1.83493E+1	1.48295E+1	1.83502E+1	1.48292E+1
220	12/06/2023	17:26:59.011	0.00000E+0	0.00000E+0	-5.63753E+1	5.40680E-1	0.00000E+0	0.00000E+0	1.87577E+1	1.44316E+1	1.87562E+1	1.44332E+1
221	12/06/2023	17:27:00.732	0.00000E+0	0.00000E+0	7.37362E+1	1.77029E+0	0.00000E+0	0.00000E+0	2.05760E+1	1.25841E+1	2.05765E+1	1.25830E+1
222	12/06/2023	17:27:02.608	0.00000E+0	0.00000E+0	8.26676E+1	3.37086E-1	0.00000E+0	0.00000E+0	2.07539E+1	1.24570E+1	2.07525E+1	1.24554E+1
223	12/06/2023	17:27:04.610	0.00000E+0	0.00000E+0	8.43683E+1	3.96297E-1	0.00000E+0	0.00000E+0	2.07706E+1	1.24460E+1	2.07705E+1	1.24467E+1
224	12/06/2023	17:27:06.506	0.00000E+0	0.00000E+0	6.99103E+1	1.10183E+0	0.00000E+0	0.00000E+0	2.05502E+1	1.26373E+1	2.05491E+1	1.26379E+1
225	12/06/2023	17:27:08.484	0.00000E+0	0.00000E+0	-7.81543E+1	-2.57815E-2	0.00000E+0	0.00000E+0	1.84365E+1	1.47372E+1	1.84371E+1	1.47397E+1
226	12/06/2023	17:27:10.427	0.00000E+0	0.00000E+0	-8.76846E+1	-1.16571E+0	0.00000E+0	0.00000E+0	1.83193E+1	1.48459E+1	1.83194E+1	1.48440E+1
227	12/06/2023	17:27:12.342	0.00000E+0	0.00000E+0	-8.26332E+1	-1.05506E+0	0.00000E+0	0.00000E+0	1.83809E+1	1.47661E+1	1.83831E+1	1.47656E+1
228	12/06/2023	17:27:14.354	0.00000E+0	0.00000E+0	-8.71865E+1	-1.48624E+0	0.00000E+0	0.00000E+0	1.83319E+1	1.48351E+1	1.83328E+1	1.48345E+1
229	12/06/2023	17:27:16.215	0.00000E+0	0.00000E+0	3.22942E+1	1.65909E+0	0.00000E+0	0.00000E+0	2.00029E+1	1.31792E+1	2.00025E+1	1.31759E+1
230	12/06/2023	17:27:18.110	0.00000E+0	0.00000E+0	9.23060E+1	1.54571E+0	0.00000E+0	0.00000E+0	2.08591E+1	1.23258E+1	2.08582E+1	1.23254E+1
231	12/06/2023	17:27:20.143	0.00000E+0	0.00000E+0	1.06251E+2	5.91749E-1	0.00000E+0	0.00000E+0	2.11044E+1	1.21214E+1	2.11027E+1	1.21224E+1
232	12/06/2023	17:27:21.879	0.00000E+0	0.00000E+0	7.46287E+1	7.23763E-1	0.00000E+0	0.00000E+0	2.06080E+1	1.25773E+1	2.06092E+1	1.25757E+1
233	12/06/2023	17:27:23.712	0.00000E+0	0.00000E+0	-8.91903E+0	-7.48802E-1	0.00000E+0	0.00000E+0	1.95252E+1	1.36461E+1	1.95258E+1	1.36440E+1
234	12/06/2023	17:27:25.598	0.00000E+0	0.00000E+0	-8.94867E+1	-1.25014E+0	0.00000E+0	0.00000E+0	1.82442E+1	1.48841E+1	1.82448E+1	1.48840E+1
235	12/06/2023	17:27:27.480	0.00000E+0	0.00000E+0	-8.74531E+1	-1.90309E-1	0.00000E+0	0.00000E+0	1.83013E+1	1.48478E+1	1.83002E+1	1.48454E+1
236	12/06/2023	17:27:29.469	0.00000E+0	0.00000E+0	-5.86584E+1	-6.12621E-1	0.00000E+0	0.00000E+0	1.87431E+1	1.44457E+1	1.87423E+1	1.44462E+1
237	12/06/2023	17:27:31.391	0.00000E+0	0.00000E+0	-6.19476E+1	-3.19592E-1	0.00000E+0	0.00000E+0	1.86444E+1	1.45196E+1	1.86426E+1	1.45212E+1
238	12/06/2023	17:27:33.412	0.00000E+0	0.00000E+0	9.05643E+1	6.18220E-1	0.00000E+0	0.00000E+0	2.08178E+1	1.23765E+1	2.08168E+1	1.23762E+1
239	12/06/2023	17:27:35.346	0.00000E+0	0.00000E+0	8.03666E+1	1.20882E+0	0.00000E+0	0.00000E+0	2.06806E+1	1.25220E+1	2.06817E+1	1.25235E+1
240	12/06/2023	17:27:37.251	0.00000E+0	0.00000E+0	8.81184E+1	7.76687E-1	0.00000E+0	0.00000E+0	2.08039E+1	1.23969E+1	2.08042E+1	1.23991E+1
241	12/06/2023	17:27:39.244	0.00000E+0	0.00000E+0	7.17615E+1	1.15470E+0	0.00000E+0	0.00000E+0	2.05999E+1	1.25974E+1	2.05991E+1	1.25969E+1
242	12/06/2023	17:27:41.120	0.00000E+0	0.00000E+0	-8.78774E+1	-4.26175E-1	0.00000E+0	0.00000E+0	1.82911E+1	1.48625E+1	1.82913E+1	1.48637E+1
243	12/06/2023	17:27:42.941	0.00000E+0	0.00000E+0	-8.83384E+1	-3.29542E-1	0.00000E+0	0.00000E+0	1.83000E+1	1.48445E+1	1.82993E+1	1.48439E+1
244	12/06/2023	17:27:44.774	0.00000E+0	0.00000E+0	-8.97147E+1	-7.17741E-1	0.00000E+0	0.00000E+0	1.82603E+1	1.48886E+1	1.82609E+1	1.48875E+1
245	12/06/2023	17:27:46.437	0.00000E+0	0.00000E+0	-8.82833E+1	-5.55366E-1	0.00000E+0	0.00000E+0	1.82847E+1	1.48678E+1	1.82849E+1	1.48662E+1
246	12/06/2023	17:27:48.454	0.00000E+0	0.00000E+0	5.60592E+1	6.33457E-1	0.00000E+0	0.00000E+0	2.03662E+1	1.28556E+1	2.03650E+1	1.28544E+1
247	12/06/2023	17:27:50.369	0.00000E+0	0.00000E+0	7.97904E+1	1.79011E-2	0.00000E+0	0.00000E+0	2.06635E+1	1.25232E+1	2.06636E+1	1.25245E+1
248	12/06/2023	17:27:52.291	0.00000E+0	0.00000E+0	8.71160E+1	5.86423E-1	0.00000E+0	0.00000E+0	2.07965E+1	1.24042E+1	2.07983E+1	1.24020E+1
249	12/06/2023	17:27:54.284	0.00000E+0	0.00000E+0	8.57445E+1	2.08523E+0	0.00000E+0	0.00000E+0	2.08789E+1	1.23162E+1	2.08783E+1	1.23172E+1
250	12/06/2023	17:27:56.132	0.00000E+0	0.00000E+0	-4.91335E+1	-5.58304E-1	0.00000E+0	0.00000E+0	1.89321E+1	1.42210E+1	1.89331E+1	1.42204E+1
251	12/06/2023	17:27:58.054	0.00000E+0	0.00000E+0	-1.47192E+2	-1.05967E+0	0.00000E+0	0.00000E+0	1.74458E+1	1.56787E+1	1.74460E+1	1.56766E+1
252	12/06/2023	17:27:59.973	0.00000E+0	0.00000E+0	-4.35355E+1	-3.29994E-1	0.00000E+0	0.00000E+0	1.89390E+1	1.42343E+1	1.89380E+1	1.42333E+1
253	12/06/2023	17:28:01.823	0.00000E+0	0.00000E+0	-3.88789E+1	-8.98491E-2	0.00000E+0	0.00000E+0	1.89919E+1	1.41847E+1	1.89881E+1	1.41863E+1
254	12/06/2023	17:28:03.810	0.00000E+0	0.00000E+0	-6.02184E+1	-1.00980E+0	0.00000E+0	0.00000E+0	1.87101E+1	1.44593E+1	1.87099E+1	1.44607E+1
255	12/06/2023	17:28:05.647	0.00000E+0	0.00000E+0	-7.05341E+1	-9.27726E-1	0.00000E+0	0.00000E+0	1.85943E+1	1.45743E+1	1.85948E+1	1.45729E+1
256	12/06/2023	17:28:07.317	0.00000E+0	0.00000E+0	2.43896E+1	2.40986E+0	0.00000E+0	0.00000E+0	1.97711E+1	1.33932E+1	1.97721E+1	1.33939E+1
257	12/06/2023	17:28:09.166	0.00000E+0	0.00000E+0	1.47315E+2	1.66653E+0	0.00000E+0	0.00000E+0	2.16405E+1	1.15122E+1	2.16399E+1	1.15139E+1
258	12/06/2023	17:28:11.091	0.00000E+0	0.00000E+0	1.11228E+2	9.18438E-1	0.00000E+0	0.00000E+0	2.11404E+1	1.20753E+1	2.11376E+1	1.20738E+1
259	12/06/2023	17:28:13.093	0.00000E+0	0.00000E+0	9.43536E+1	1.00733E+0	0.00000E+0	0.00000E+0	2.09474E+1	1.22851E+1	2.09470E+1	1.22826E+1
260	12/06/2023	17:28:15.014	0.00000E+0	0.00000E+0	-1.28040E+2	-1.85702E-1	0.00000E+0	0.00000E+0	1.77208E+1	1.54043E+1	1.77215E+1	1.54019E+1
261	12/06/2023	17:28:16.935	0.00000E+0	0.00000E+0	-1.46568E+2	-1.55716E-1	0.00000E+0	0.00000E+0	1.74543E+1	1.57084E+1	1.74550E+1	1.57076E+1
262	12/06/2023	17:28:18.875	0.00000E+0	0.00000E+0	-8.01954E+1	-1.34735E+0	0.00000E+0	0.00000E+0	1.84102E+1	1.47274E+1	1.84102E+1	1.47291E+1
263	12/06/2023	17:28:20.813	0.00000E+0	0.00000E+0	9.50675E+1	-8.61346E-1	0.00000E+0	0.00000E+0	2.08872E+1	1.23617E+1	2.08876E+1	1.23636E+1
264	12/06/2023	17:28:22.732	0.00000E+0	0.00000E+0	1.06386E+2	1.35517E+0	0.00000E+0	0.00000E+0	2.10669E+1	1.21126E+1	2.10669E+1	1.21122E+1
265	12/06/2023	17:28:24.597	0.00000E+0	0.00000E+0	1.13022E+2	7.23122E-1	0.00000E+0	0.00000E+0	2.11614E+1	1.20299E+1	2.11594E+1	1.20294E+1
266	12/06/2023	17:28:26.484	0.00000E+0	0.00000E+0	-3.56032E+1	-1.02825E-1	0.00000E+0	0.00000E+0	1.91714E+1	1.40185E+1	1.91720E+1	1.40209E+1
267	12/06/2023	17:28:28.349	0.00000E+0	0.00000E+0	-1.38391E+2	-2.32252E+0	0.00000E+0	0.00000E+0	1.75467E+1	1.55573E+1	1.75462E+1	1.55565E+1
268	12/06/2023	17:28:30.090	0.00000E+0	0.00000E+0	-1.05475E+2	-1.45592E+0	0.00000E+0	0.00000E+0	1.80267E+1	1.51364E+1	1.80267E+1	1.51346E+1
269	12/06/2023	17:28:31.828	0.00000E+0	0.00000E+0	-9.07528E+1	-5.19937E-2	0.00000E+0	0.00000E+0	1.82379E+1	1.48959E+1	1.82379E+1	1.48990E+1
270	12/06/2023	17:28:33.836	0.00000E+0	0.00000E+0	4.79064E+1	4.46358E-1	0.00000E+0	0.00000E+0	2.01725E+1	1.30009E+1	2.01751E+1	1.30000E+1
271	12/06/2023	17:28:35.757	0.00000E+0	0.00000E+0	8.66907E+1	1.18608E+0	0.00000E+0	0.00000E+0	2.07790E+1	1.24278E+1	2.07779E+1	1.24284E+1
272	12/06/2023	17:28:37.685	0.00000E+0	0.00000E+0	1.02252E+2	1.49568E+0	0.00000E+0	0.00000E+0	2.09733E+1	1.22528E+1	2.09741E+1	1.22522E+1
273	12/06/2023	17:28:39.600	0.00000E+0	0.00000E+0	9.92149E+1	1.00588E+0	0.00000E+0	0.00000E+0	2.09580E+1	1.22413E+1	2.09567E+1	1.22448E+1
274	12/06/2023	17:28:41.475	0.00000E+0	0.00000E+0	7.17172E+1	2.33364E-1	0.00000E+0	0.00000E+0	2.05885E+1	1.26216E+1	2.05880E+1	1.26206E+1
275	12/06/2023	17:28:43.442	0.00000E+0	0.00000E+0	-1.01833E+2	-2.33094E-1	0.00000E+0	0.00000E+0	1.81460E+1	1.50011E+1	1.81485E+1	1.50001E+1
276	12/06/2023	17:28:45.364	0.00000E+0	0.00000E+0	-1.35122E+2	-1.88988E+0	0.00000E+0	0.00000E+0	1.76027E+1	1.55227E+1	1.76001E+1	1.55243E+1
277	12/06/2023	17:28:47.282	0.00000E+0	0.00000E+0	-9.75610E+1	-2.05838E+0	0.00000E+0	0.00000E+0	1.81724E+1	1.50288E+1	1.81728E+1	1.50285E+1
278	12/06/2023	17:28:49.308	0.00000E+0	0.00000E+0	-7.04614E+1	-7.59715E-1	0.00000E+0	0.00000E+0	1.86354E+1	1.45602E+1	1.86360E+1	1.45603E+1
279	12/06/2023	17:28:51.067	0.00000E+0	0.00000E+0	4.43950E+1	-9.72660E-2	0.00000E+0	0.00000E+0	2.01469E+1	1.29834E+1	2.01484E+1	1.29838E+1
280	12/06/2023	17:28:52.986	0.00000E+0	0.00000E+0	7.48463E+1	1.35248E+0	0.00000E+0	0.00000E+0	2.05698E+1	1.25959E+1	2.05706E+1	1.25930E+1
281	12/06/2023	17:28:54.740	0.00000E+0	0.00000E+0	5.94093E+1	3.28580E-1	0.00000E+0	0.00000E+0	2.03953E+1	1.28193E+1	2.03954E+1	1.28201E+1
282	12/06/2023	17:28:56.638	0.00000E+0	0.00000E+0	8.89797E+1	1.45444E+0	0.00000E+0	0.00000E+0	2.08731E+1	1.23194E+1	2.08752E+1	1.23198E+1
283	12/06/2023	17:28:58.608	0.00000E+0	0.00000E+0	1.20659E+1	-1.27931E-1	0.00000E+0	0.00000E+0	1.98525E+1	1.33300E+1	1.98520E+1	1.33298E+1
284	12/06/2023	17:29:00.506	0.00000E+0	0.00000E+0	-6.09189E+1	-1.02232E+0	0.00000E+0	0.00000E+0	1.86482E+1	1.44339E+1	1.86483E+1	1.44347E+1
285	12/06/2023	17:29:02.396	0.00000E+0	0.00000E+0	-3.87886E+1	-1.26066E+0	0.00000E+0	0.00000E+0	1.89932E+1	1.42286E+1	1.89935E+1	1.42289E+1
286	12/06/2023	17:29:04.367	0.00000E+0	0.00000E+0	-3.87929E+1	-1.12379E+0	0.00000E+0	0.00000E+0	1.90199E+1	1.41220E+1	1.90198E+1	1.41196E+1
287	12/06/2023	17:29:06.270	0.00000E+0	0.00000E+0	-4.96319E+1	-2.93114E+0	0.00000E+0	0.00000E+0	1.89435E+1	1.42291E+1	1.89435E+1	1.42278E+1
288	12/06/2023	17:29:08.337	0.00000E+0	0.00000E+0	-5.93836E+1	1.01115E+0	0.00000E+0	0.00000E+0	1.86997E+1	1.44927E+1	1.86996E+1	1.44905E+1
289	12/06/2023	17:29:10.121	0.00000E+0	0.00000E+0	9.45032E+1	1.79418E-1	0.00000E+0	0.00000E+0	2.08984E+1	1.22447E+1	2.08976E+1	1.22422E+1
290	12/06/2023	17:29:11.959	0.00000E+0	0.00000E+0	8.68155E+1	1.61115E+0	0.00000E+0	0.00000E+0	2.07686E+1	1.24323E+1	2.07717E+1	1.24329E+1
291	12/06/2023	17:29:14.132	0.00000E+0	0.00000E+0	7.55022E+1	3.51991E-1	0.00000E+0	0.00000E+0	2.06044E+1	1.25904E+1	2.06037E+1	1.25910E+1
292	12/06/2023	17:29:15.991	0.00000E+0	0.00000E+0	7.79022E+1	1.66044E+0	0.00000E+0	0.00000E+0	2.07261E+1	1.24981E+1	2.07263E+1	1.25013E+1
293	12/06/2023	17:29:17.728	0.00000E+0	0.00000E+0	-5.91472E+1	-1.17003E+0	0.00000E+0	0.00000E+0	1.87782E+1	1.43842E+1	1.87767E+1	1.43856E+1
294	12/06/2023	17:29:19.645	0.00000E+0	0.00000E+0	-9.11917E+1	-7.75360E-1	0.00000E+0	0.00000E+0	1.82362E+1	1.49168E+1	1.82357E+1	1.49170E+1
295	12/06/2023	17:29:21.626	0.00000E+0	0.00000E+0	-5.51654E+1	-1.65458E-2	0.00000E+0	0.00000E+0	1.87713E+1	1.43751E+1	1.87723E+1	1.43736E+1
296	12/06/2023	17:29:23.592	0.00000E+0	0.00000E+0	-7.28734E+1	7.89531E-3	0.00000E+0	0.00000E+0	1.84804E+1	1.47015E+1	1.84788E+1	1.47014E+1
297	12/06/2023	17:29:25.507	0.00000E+0	0.00000E+0	-5.02512E+1	-1.57638E+0	0.00000E+0	0.00000E+0	1.88600E+1	1.43049E+1	1.88586E+1	1.43031E+1
298	12/06/2023	17:29:27.427	0.00000E+0	0.00000E+0	-6.80081E+1	-1.09320E+0	0.00000E+0	0.00000E+0	1.85628E+1	1.45594E+1	1.85635E+1	1.45596E+1
299	12/06/2023	17:29:29.453	0.00000E+0	0.00000E+0	3.78117E+1	5.45627E-2	0.00000E+0	0.00000E+0	2.00734E+1	1.31140E+1	2.00740E+1	1.31141E+1
300	12/06/2023	17:29:31.357	0.00000E+0	0.00000E+0	5.82991E+1	7.10436E-1	0.00000E+0	0.00000E+0	2.04161E+1	1.27756E+1	2.04146E+1	1.27794E+1
301	12/06/2023	17:29:33.280	0.00000E+0	0.00000E+0	9.10996E+1	2.99931E-1	0.00000E+0	0.00000E+0	2.08651E+1	1.23285E+1	2.08637E+1	1.23302E+1
302	12/06/2023	17:29:35.172	0.00000E+0	0.00000E+0	8.37657E+1	8.68943E-1	0.00000E+0	0.00000E+0	2.07265E+1	1.24802E+1	2.07272E+1	1.24795E+1
303	12/06/2023	17:29:37.072	0.00000E+0	0.00000E+0	6.87568E+1	5.49188E-1	0.00000E+0	0.00000E+0	2.05646E+1	1.26276E+1	2.05683E+1	1.26267E+1
304	12/06/2023	17:29:38.987	0.00000E+0	0.00000E+0	-8.58968E+1	-1.95583E-1	0.00000E+0	0.00000E+0	1.83184E+1	1.48137E+1	1.83205E+1	1.48132E+1
305	12/06/2023	17:29:40.874	0.00000E+0	0.00000E+0	-7.83773E+1	-2.33320E-1	0.00000E+0	0.00000E+0	1.84086E+1	1.47440E+1	1.84072E+1	1.47433E+1
306	12/06/2023	17:29:42.574	0.00000E+0	0.00000E+0	-7.50558E+1	-5.63725E-1	0.00000E+0	0.00000E+0	1.84814E+1	1.46542E+1	1.84812E+1	1.46574E+1
307	12/06/2023	17:29:44.444	0.00000E+0	0.00000E+0	-8.28162E+1	-1.23400E+0	0.00000E+0	0.00000E+0	1.83026E+1	1.48449E+1	1.83046E+1	1.48447E+1
308	12/06/2023	17:29:46.321	0.00000E+0	0.00000E+0	-5.38537E+1	-2.04454E+0	0.00000E+0	0.00000E+0	1.88897E+1	1.42808E+1	1.88912E+1	1.42808E+1
309	12/06/2023	17:29:48.321	0.00000E+0	0.00000E+0	6.73945E+1	-5.69495E-1	0.00000E+0	0.00000E+0	2.05241E+1	1.26900E+1	2.05224E+1	1.26906E+1
310	12/06/2023	17:29:50.237	0.00000E+0	0.00000E+0	9.94751E+1	1.99858E+0	0.00000E+0	0.00000E+0	2.09172E+1	1.22717E+1	2.09161E+1	1.22699E+1
311	12/06/2023	17:29:52.141	0.00000E+0	0.00000E+0	8.59344E+1	4.59136E-1	0.00000E+0	0.00000E+0	2.08435E+1	1.23795E+1	2.08429E+1	1.23777E+1
312	12/06/2023	17:29:54.194	0.00000E+0	0.00000E+0	8.86357E+1	4.64358E-1	0.00000E+0	0.00000E+0	2.08589E+1	1.23688E+1	2.08617E+1	1.23685E+1
313	12/06/2023	17:29:56.082	0.00000E+0	0.00000E+0	-1.28325E+2	-3.08860E+0	0.00000E+0	0.00000E+0	1.77213E+1	1.54124E+1	1.77211E+1	1.54136E+1
314	12/06/2023	17:29:58.009	0.00000E+0	0.00000E+0	-9.06509E+1	-1.26503E+0	0.00000E+0	0.00000E+0	1.82875E+1	1.48509E+1	1.82879E+1	1.48500E+1
315	12/06/2023	17:29:59.776	0.00000E+0	0.00000E+0	-7.30441E+1	-1.60330E+0	0.00000E+0	0.00000E+0	1.85419E+1	1.46268E+1	1.85415E+1	1.46258E+1
316	12/06/2023	17:30:01.678	0.00000E+0	0.00000E+0	-5.71281E+1	5.67044E-1	0.00000E+0	0.00000E+0	1.86961E+1	1.44695E+1	1.86937E+1	1.44716E+1
317	12/06/2023	17:30:03.515	0.00000E+0	0.00000E+0	8.79210E+1	2.22737E+0	0.00000E+0	0.00000E+0	2.07925E+1	1.24796E+1	2.07936E+1	1.24797E+1
318	12/06/2023	17:30:05.250	0.00000E+0	0.00000E+0	4.96237E+1	5.08461E-1	0.00000E+0	0.00000E+0	2.02227E+1	1.29588E+1	2.02222E+1	1.29580E+1
319	12/06/2023	17:30:07.158	0.00000E+0	0.00000E+0	6.78534E+1	1.28530E+0	0.00000E+0	0.00000E+0	2.05295E+1	1.26521E+1	2.05283E+1	1.26535E+1
320	12/06/2023	17:30:09.237	0.00000E+0	0.00000E+0	7.50904E+1	9.74279E-1	0.00000E+0	0.00000E+0	2.06233E+1	1.25729E+1	2.06239E+1	1.25734E+1
321	12/06/2023	17:30:11.338	0.00000E+0	0.00000E+0	9.69272E+1	1.66416E+0	0.00000E+0	0.00000E+0	2.09337E+1	1.22635E+1	2.09337E+1	1.22647E+1
322	12/06/2023	17:30:13.289	0.00000E+0	0.00000E+0	-6.51993E+1	-1.88219E+0	0.00000E+0	0.00000E+0	1.86239E+1	1.45119E+1	1.86251E+1	1.45134E+1
323	12/06/2023	17:30:15.079	0.00000E+0	0.00000E+0	-1.16040E+2	-6.39783E-1	0.00000E+0	0.00000E+0	1.79202E+1	1.52355E+1	1.79186E+1	1.52358E+1
324	12/06/2023	17:30:16.948	0.00000E+0	0.00000E+0	-9.88304E+1	-1.23395E+0	0.00000E+0	0.00000E+0	1.81954E+1	1.49435E+1	1.81945E+1	1.49423E+1
325	12/06/2023	17:30:18.926	0.00000E+0	0.00000E+0	-9.53596E+1	-1.08133E+0	0.00000E+0	0.00000E+0	1.82331E+1	1.49378E+1	1.82320E+1	1.49375E+1
326	12/06/2023	17:30:20.859	0.00000E+0	0.00000E+0	4.85942E+1	-7.72798E-1	0.00000E+0	0.00000E+0	2.02551E+1	1.30145E+1	2.02544E+1	1.30136E+1
327	12/06/2023	17:30:22.779	0.00000E+0	0.00000E+0	4.33117E+1	1.08172E+0	0.00000E+0	0.00000E+0	2.00826E+1	1.31389E+1	2.00799E+1	1.31397E+1
328	12/06/2023	17:30:24.729	0.00000E+0	0.00000E+0	1.19335E+2	1.18506E+0	0.00000E+0	0.00000E+0	2.12243E+1	1.19501E+1	2.12246E+1	1.19476E+1
329	12/06/2023	17:30:26.445	0.00000E+0	0.00000E+0	1.06385E+2	1.41375E+0	0.00000E+0	0.00000E+0	2.11025E+1	1.21272E+1	2.11038E+1	1.21258E+1
330	12/06/2023	17:30:28.190	0.00000E+0	0.00000E+0	6.74286E+1	5.87416E-1	0.00000E+0	0.00000E+0	2.05709E+1	1.26140E+1	2.05696E+1	1.26171E+1
331	12/06/2023	17:30:30.125	0.00000E+0	0.00000E+0	-9.81642E+1	-1.06544E+0	0.00000E+0	0.00000E+0	1.81330E+1	1.50202E+1	1.81315E+1	1.50194E+1
332	12/06/2023	17:30:32.049	0.00000E+0	0.00000E+0	-9.83552E+1	-3.44403E-1	0.00000E+0	0.00000E+0	1.81214E+1	1.49936E+1	1.81210E+1	1.49948E+1
333	12/06/2023	17:30:34.054	0.00000E+0	0.00000E+0	-9.48130E+1	-1.39887E+0	0.00000E+0	0.00000E+0	1.82694E+1	1.48722E+1	1.82694E+1	1.48750E+1
334	12/06/2023	17:30:35.976	0.00000E+0	0.00000E+0	7.86637E+1	8.97056E-1	0.00000E+0	0.00000E+0	2.06195E+1	1.25542E+1	2.06185E+1	1.25550E+1
335	12/06/2023	17:30:37.926	0.00000E+0	0.00000E+0	1.09151E+2	1.54645E+0	0.00000E+0	0.00000E+0	2.11420E+1	1.20670E+1	2.11409E+1	1.20676E+1
336	12/06/2023	17:30:39.903	0.00000E+0	0.00000E+0	1.12971E+2	9.37579E-1	0.00000E+0	0.00000E+0	2.11037E+1	1.21089E+1	2.11056E+1	1.21103E+1
337	12/06/2023	17:30:41.885	0.00000E+0	0.00000E+0	6.35210E+1	6.28258E-1	0.00000E+0	0.00000E+0	2.04983E+1	1.26981E+1	2.04981E+1	1.26958E+1
338	12/06/2023	17:30:43.907	0.00000E+0	0.00000E+0	-1.17788E+2	-1.16223E+0	0.00000E+0	0.00000E+0	1.78884E+1	1.52441E+1	1.78882E+1	1.52457E+1
339	12/06/2023	17:30:45.680	0.00000E+0	0.00000E+0	-6.04614E+1	-9.81353E-1	0.00000E+0	0.00000E+0	1.87115E+1	1.44375E+1	1.87123E+1	1.44404E+1
340	12/06/2023	17:30:47.514	0.00000E+0	0.00000E+0	-1.16086E+2	-1.50670E+0	0.00000E+0	0.00000E+0	1.79123E+1	1.52241E+1	1.79097E+1	1.52255E+1
341	12/06/2023	17:30:49.369	0.00000E+0	0.00000E+0	5.24093E+1	1.02706E+0	0.00000E+0	0.00000E+0	2.01703E+1	1.29294E+1	2.01720E+1	1.29291E+1
342	12/06/2023	17:30:51.176	0.00000E+0	0.00000E+0	1.23361E+2	-8.72639E-1	0.00000E+0	0.00000E+0	2.14655E+1	1.17317E+1	2.14663E+1	1.17291E+1
343	12/06/2023	17:30:53.182	0.00000E+0	0.00000E+0	1.03536E+2	1.01176E+0	0.00000E+0	0.00000E+0	2.10127E+1	1.21750E+1	2.10138E+1	1.21747E+1
344	12/06/2023	17:30:55.097	0.00000E+0	0.00000E+0	7.08123E+1	1.02312E+0	0.00000E+0	0.00000E+0	2.05525E+1	1.26371E+1	2.05521E+1	1.26375E+1
345	12/06/2023	17:30:56.953	0.00000E+0	0.00000E+0	-9.09955E+1	-7.05809E-1	0.00000E+0	0.00000E+0	1.82757E+1	1.48613E+1	1.82761E+1	1.48604E+1
346	12/06/2023	17:30:58.901	0.00000E+0	0.00000E+0	-1.80280E+2	-5.74931E-2	0.00000E+0	0.00000E+0	1.69899E+1	1.61730E+1	1.69921E+1	1.61726E+1
347	12/06/2023	17:31:00.789	0.00000E+0	0.00000E+0	1.53259E+1	-7.31166E-1	0.00000E+0	0.00000E+0	1.95657E+1	1.36144E+1	1.95658E+1	1.36139E+1
348	12/06/2023	17:31:02.744	0.00000E+0	0.00000E+0	1.95583E+2	-7.07403E-1	0.00000E+0	0.00000E+0	2.23262E+1	1.09157E+1	2.23269E+1	1.09166E+1
349	12/06/2023	17:31:04.695	0.00000E+0	0.00000E+0	1.44533E+2	2.11366E+0	0.00000E+0	0.00000E+0	2.16969E+1	1.15115E+1	2.16954E+1	1.15088E+1
350	12/06/2023	17:31:06.549	0.00000E+0	0.00000E+0	-2.01265E+2	-2.45335E+0	0.00000E+0	0.00000E+0	1.67110E+1	1.64147E+1	1.67096E+1	1.64136E+1
351	12/06/2023	17:31:08.498	0.00000E+0	0.00000E+0	-1.68907E+2	6.18176E-1	0.00000E+0	0.00000E+0	1.70871E+1	1.61022E+1	1.70869E+1	1.61028E+1
352	12/06/2023	17:31:10.300	0.00000E+0	0.00000E+0	1.88015E+2	6.54813E-1	0.00000E+0	0.00000E+0	2.21590E+1	1.10369E+1	2.21574E+1	1.10387E+1
353	12/06/2023	17:31:12.026	0.00000E+0	0.00000E+0	2.38160E+2	1.66448E+0	0.00000E+0	0.00000E+0	2.30009E+1	1.02442E+1	2.29986E+1	1.02408E+1
354	12/06/2023	17:31:13.983	0.00000E+0	0.00000E+0	-1.83804E+2	-3.15568E+0	0.00000E+0	0.00000E+0	1.70753E+1	1.60792E+1	1.70745E+1	1.60805E+1
355	12/06/2023	17:31:15.871	0.00000E+0	0.00000E+0	-2.38597E+2	-3.19066E+0	0.00000E+0	0.00000E+0	1.61666E+1	1.69122E+1	1.61660E+1	1.69124E+1
356	12/06/2023	17:31:17.793	0.00000E+0	0.00000E+0	1.77233E+2	1.15490E+0	0.00000E+0	0.00000E+0	2.19122E+1	1.12839E+1	2.19131E+1	1.12844E+1
357	12/06/2023	17:31:19.682	0.00000E+0	0.00000E+0	2.99397E+2	4.09386E+0	0.00000E+0	0.00000E+0	2.38332E+1	9.40248E+0	2.38323E+1	9.40200E+0
358	12/06/2023	17:31:21.757	0.00000E+0	0.00000E+0	-2.17858E+2	-2.32079E+0	0.00000E+0	0.00000E+0	1.64661E+1	1.66560E+1	1.64670E+1	1.66581E+1
359	12/06/2023	17:31:23.707	0.00000E+0	0.00000E+0	-2.13335E+2	1.75377E-1	0.00000E+0	0.00000E+0	1.65107E+1	1.66514E+1	1.65120E+1	1.66497E+1
360	12/06/2023	17:31:25.617	0.00000E+0	0.00000E+0	1.15489E+2	4.62812E-1	0.00000E+0	0.00000E+0	2.11790E+1	1.20541E+1	2.11826E+1	1.20521E+1
361	12/06/2023	17:31:27.561	0.00000E+0	0.00000E+0	2.29973E+2	4.31638E-1	0.00000E+0	0.00000E+0	2.28130E+1	1.04148E+1	2.28134E+1	1.04141E+1
362	12/06/2023	17:31:29.421	0.00000E+0	0.00000E+0	-4.04361E+1	-1.67504E+0	0.00000E+0	0.00000E+0	1.91568E+1	1.40030E+1	1.91561E+1	1.40034E+1
363	12/06/2023	17:31:31.240	0.00000E+0	0.00000E+0	-2.29295E+2	-3.88118E+0	0.00000E+0	0.00000E+0	1.63104E+1	1.68240E+1	1.63081E+1	1.68225E+1
364	12/06/2023	17:31:33.014	0.00000E+0	0.00000E+0	-1.23661E+2	-5.04806E-1	0.00000E+0	0.00000E+0	1.77360E+1	1.54259E+1	1.77363E+1	1.54240E+1
365	12/06/2023	17:31:34.802	0.00000E+0	0.00000E+0	1.28043E+2	2.42295E-1	0.00000E+0	0.00000E+0	2.14067E+1	1.18224E+1	2.14070E+1	1.18213E+1
366	12/06/2023	17:31:36.560	0.00000E+0	0.00000E+0	1.70401E+2	2.01450E+0	0.00000E+0	0.00000E+0	2.19468E+1	1.12747E+1	2.19460E+1	1.12740E+1
367	12/06/2023	17:31:38.569	0.00000E+0	0.00000E+0	-5.24743E+1	4.76594E-1	0.00000E+0	0.00000E+0	1.90034E+1	1.41737E+1	1.90052E+1	1.41745E+1
368	12/06/2023	17:31:40.490	0.00000E+0	0.00000E+0	-2.05887E+2	-2.24040E+0	0.00000E+0	0.00000E+0	1.66652E+1	1.64766E+1	1.66646E+1	1.64780E+1
369	12/06/2023	17:31:42.500	0.00000E+0	0.00000E+0	4.39387E+1	5.72597E+0	0.00000E+0	0.00000E+0	1.99354E+1	1.32139E+1	1.99348E+1	1.32123E+1
370	12/06/2023	17:31:44.415	0.00000E+0	0.00000E+0	1.66150E+2	1.57857E+0	0.00000E+0	0.00000E+0	2.19016E+1	1.12889E+1	2.19011E+1	1.12877E+1
371	12/06/2023	17:31:46.325	0.00000E+0	0.00000E+0	1.54983E+2	1.01187E+0	0.00000E+0	0.00000E+0	2.18156E+1	1.14073E+1	2.18161E+1	1.14076E+1
372	12/06/2023	17:31:48.374	0.00000E+0	0.00000E+0	-1.84706E+2	-1.94716E+0	0.00000E+0	0.00000E+0	1.69403E+1	1.61965E+1	1.69401E+1	1.61972E+1
373	12/06/2023	17:31:50.262	0.00000E+0	0.00000E+0	-1.85934E+2	-1.95345E+0	0.00000E+0	0.00000E+0	1.69576E+1	1.61692E+1	1.69588E+1	1.61689E+1
374	12/06/2023	17:31:52.247	0.00000E+0	0.00000E+0	1.45241E+2	2.08974E+0	0.00000E+0	0.00000E+0	2.15688E+1	1.16408E+1	2.15680E+1	1.16429E+1
375	12/06/2023	17:31:54.182	0.00000E+0	0.00000E+0	2.27029E+2	1.56070E+0	0.00000E+0	0.00000E+0	2.27840E+1	1.04584E+1	2.27823E+1	1.04568E+1
376	12/06/2023	17:31:55.955	0.00000E+0	0.00000E+0	-1.04292E+2	-2.93952E+0	0.00000E+0	0.00000E+0	1.81880E+1	1.49937E+1	1.81857E+1	1.49922E+1
377	12/06/2023	17:31:57.777	0.00000E+0	0.00000E+0	-1.95806E+2	-2.63333E+0	0.00000E+0	0.00000E+0	1.67435E+1	1.63979E+1	1.67428E+1	1.63972E+1
378	12/06/2023	17:31:59.522	0.00000E+0	0.00000E+0	-8.11867E+1	-1.19723E+0	0.00000E+0	0.00000E+0	1.82856E+1	1.49033E+1	1.82871E+1	1.49020E+1
379	12/06/2023	17:32:01.442	0.00000E+0	0.00000E+0	1.62830E+2	2.52566E+0	0.00000E+0	0.00000E+0	2.19022E+1	1.13292E+1	2.19001E+1	1.13284E+1
380	12/06/2023	17:32:03.403	0.00000E+0	0.00000E+0	2.04536E+2	1.87270E+0	0.00000E+0	0.00000E+0	2.24913E+1	1.07324E+1	2.24935E+1	1.07329E+1
381	12/06/2023	17:32:05.303	0.00000E+0	0.00000E+0	-1.14363E+2	-8.76072E-1	0.00000E+0	0.00000E+0	1.79856E+1	1.51561E+1	1.79869E+1	1.51570E+1
382	12/06/2023	17:32:07.311	0.00000E+0	0.00000E+0	-2.21985E+2	-1.23526E+0	0.00000E+0	0.00000E+0	1.63960E+1	1.67349E+1	1.63963E+1	1.67351E+1
383	12/06/2023	17:32:09.232	0.00000E+0	0.00000E+0	-2.64214E+1	-1.14249E+0	0.00000E+0	0.00000E+0	1.89671E+1	1.42055E+1	1.89677E+1	1.42085E+1
384	12/06/2023	17:32:11.078	0.00000E+0	0.00000E+0	1.70718E+2	-1.48837E+0	0.00000E+0	0.00000E+0	2.19516E+1	1.12687E+1	2.19530E+1	1.12667E+1
385	12/06/2023	17:32:13.123	0.00000E+0	0.00000E+0	1.74267E+2	4.61959E-1	0.00000E+0	0.00000E+0	2.20331E+1	1.11710E+1	2.20363E+1	1.11683E+1
386	12/06/2023	17:32:14.922	0.00000E+0	0.00000E+0	-1.05990E+2	-2.22191E+0	0.00000E+0	0.00000E+0	1.81169E+1	1.50427E+1	1.81165E+1	1.50434E+1
387	12/06/2023	17:32:16.827	0.00000E+0	0.00000E+0	-1.90078E+2	-1.61818E+0	0.00000E+0	0.00000E+0	1.68606E+1	1.62682E+1	1.68573E+1	1.62697E+1
388	12/06/2023	17:32:18.701	0.00000E+0	0.00000E+0	-1.33499E+2	1.09575E+0	0.00000E+0	0.00000E+0	1.76252E+1	1.54949E+1	1.76281E+1	1.54954E+1
389	12/06/2023	17:32:20.379	0.00000E+0	0.00000E+0	9.61163E+1	1.80622E+0	0.00000E+0	0.00000E+0	2.08572E+1	1.23321E+1	2.08579E+1	1.23337E+1
390	12/06/2023	17:32:22.346	0.00000E+0	0.00000E+0	1.52997E+2	3.03104E+0	0.00000E+0	0.00000E+0	2.17284E+1	1.14913E+1	2.17277E+1	1.14893E+1
391	12/06/2023	17:32:24.194	0.00000E+0	0.00000E+0	1.61561E+2	2.55641E+0	0.00000E+0	0.00000E+0	2.18591E+1	1.13550E+1	2.18584E+1	1.13545E+1
392	12/06/2023	17:32:26.048	0.00000E+0	0.00000E+0	-1.82794E+2	-1.07159E+0	0.00000E+0	0.00000E+0	1.69863E+1	1.61332E+1	1.69879E+1	1.61324E+1
393	12/06/2023	17:32:28.072	0.00000E+0	0.00000E+0	-1.88073E+2	-7.24965E-1	0.00000E+0	0.00000E+0	1.68005E+1	1.62686E+1	1.68010E+1	1.62689E+1
394	12/06/2023	17:32:29.975	0.00000E+0	0.00000E+0	1.06199E+2	1.91597E+0	0.00000E+0	0.00000E+0	2.09965E+1	1.22093E+1	2.09971E+1	1.22107E+1
395	12/06/2023	17:32:31.844	0.00000E+0	0.00000E+0	1.84213E+2	5.23974E-1	0.00000E+0	0.00000E+0	2.21706E+1	1.10757E+1	2.21695E+1	1.10761E+1
396	12/06/2023	17:32:33.819	0.00000E+0	0.00000E+0	1.99365E+0	-4.72033E-1	0.00000E+0	0.00000E+0	1.97303E+1	1.34403E+1	1.97305E+1	1.34417E+1
397	12/06/2023	17:32:35.803	0.00000E+0	0.00000E+0	-2.27513E+2	-2.12314E+0	0.00000E+0	0.00000E+0	1.62707E+1	1.68137E+1	1.62711E+1	1.68141E+1
398	12/06/2023	17:32:37.836	0.00000E+0	0.00000E+0	2.00558E+1	6.71725E-1	0.00000E+0	0.00000E+0	1.95933E+1	1.36061E+1	1.95908E+1	1.36073E+1
399	12/06/2023	17:32:39.754	0.00000E+0	0.00000E+0	2.08189E+2	1.73716E+0	0.00000E+0	0.00000E+0	2.25497E+1	1.06609E+1	2.25486E+1	1.06618E+1
400	12/06/2023	17:32:41.532	0.00000E+0	0.00000E+0	1.80130E+2	2.57884E+0	0.00000E+0	0.00000E+0	2.22745E+1	1.09137E+1	2.22738E+1	1.09132E+1
401	12/06/2023	17:32:43.352	0.00000E+0	0.00000E+0	-1.80686E+2	-1.77420E+0	0.00000E+0	0.00000E+0	1.69945E+1	1.61313E+1	1.69923E+1	1.61322E+1
402	12/06/2023	17:32:45.104	0.00000E+0	0.00000E+0	-1.63295E+2	-2.35605E+0	0.00000E+0	0.00000E+0	1.72361E+1	1.59057E+1	1.72345E+1	1.59039E+1
403	12/06/2023	17:32:47.044	0.00000E+0	0.00000E+0	-1.38195E+2	-3.93101E-1	0.00000E+0	0.00000E+0	1.75046E+1	1.56338E+1	1.75060E+1	1.56338E+1
404	12/06/2023	17:32:48.981	0.00000E+0	0.00000E+0	1.28674E+2	4.22486E-1	0.00000E+0	0.00000E+0	2.14216E+1	1.18018E+1	2.14219E+1	1.18026E+1
405	12/06/2023	17:32:50.812	0.00000E+0	0.00000E+0	1.57114E+2	1.54185E+0	0.00000E+0	0.00000E+0	2.17637E+1	1.14178E+1	2.17625E+1	1.14175E+1
406	12/06/2023	17:32:52.839	0.00000E+0	0.00000E+0	1.59270E+2	1.86725E+0	0.00000E+0	0.00000E+0	2.18462E+1	1.13634E+1	2.18442E+1	1.13635E+1
407	12/06/2023	17:32:54.742	0.00000E+0	0.00000E+0	-1.70860E+2	-9.99728E-1	0.00000E+0	0.00000E+0	1.71270E+1	1.60206E+1	1.71302E+1	1.60202E+1
408	12/06/2023	17:32:56.655	0.00000E+0	0.00000E+0	-1.32577E+2	1.40779E+0	0.00000E+0	0.00000E+0	1.77037E+1	1.54215E+1	1.77018E+1	1.54227E+1
409	12/06/2023	17:32:58.649	0.00000E+0	0.00000E+0	-8.71468E+1	4.09080E-1	0.00000E+0	0.00000E+0	1.83250E+1	1.48196E+1	1.83264E+1	1.48165E+1
410	12/06/2023	17:33:00.574	0.00000E+0	0.00000E+0	4.13255E+1	-5.44281E-1	0.00000E+0	0.00000E+0	2.01121E+1	1.30899E+1	2.01129E+1	1.30898E+1
411	12/06/2023	17:33:02.432	0.00000E+0	0.00000E+0	9.34165E+1	1.75557E+0	0.00000E+0	0.00000E+0	2.08658E+1	1.23322E+1	2.08658E+1	1.23336E+1
412	12/06/2023	17:33:04.421	0.00000E+0	0.00000E+0	1.10664E+2	4.60355E-1	0.00000E+0	0.00000E+0	2.11279E+1	1.20633E+1	2.11263E+1	1.20629E+1
413	12/06/2023	17:33:06.159	0.00000E+0	0.00000E+0	1.21764E+2	1.79294E+0	0.00000E+0	0.00000E+0	2.12832E+1	1.19054E+1	2.12831E+1	1.19068E+1
414	12/06/2023	17:33:07.996	0.00000E+0	0.00000E+0	8.63229E+1	9.48866E-1	0.00000E+0	0.00000E+0	2.08172E+1	1.23827E+1	2.08183E+1	1.23830E+1
415	12/06/2023	17:33:09.878	0.00000E+0	0.00000E+0	-1.37019E+2	-1.29403E+0	0.00000E+0	0.00000E+0	1.76041E+1	1.55037E+1	1.76052E+1	1.55034E+1
416	12/06/2023	17:33:11.768	0.00000E+0	0.00000E+0	-1.33596E+2	-1.39408E+0	0.00000E+0	0.00000E+0	1.76774E+1	1.54602E+1	1.76765E+1	1.54603E+1
417	12/06/2023	17:33:13.654	0.00000E+0	0.00000E+0	-7.36006E+1	-4.51368E-1	0.00000E+0	0.00000E+0	1.84727E+1	1.46942E+1	1.84736E+1	1.46951E+1
418	12/06/2023	17:33:15.562	0.00000E+0	0.00000E+0	1.12629E+2	5.70790E-1	0.00000E+0	0.00000E+0	2.11292E+1	1.20670E+1	2.11316E+1	1.20667E+1
419	12/06/2023	17:33:17.621	0.00000E+0	0.00000E+0	1.21483E+2	4.45832E-1	0.00000E+0	0.00000E+0	2.12836E+1	1.19112E+1	2.12847E+1	1.19090E+1
420	12/06/2023	17:33:19.511	0.00000E+0	0.00000E+0	1.10506E+2	7.77456E-1	0.00000E+0	0.00000E+0	2.11418E+1	1.20375E+1	2.11399E+1	1.20387E+1
421	12/06/2023	17:33:21.392	0.00000E+0	0.00000E+0	-8.95019E+1	-1.81875E+0	0.00000E+0	0.00000E+0	1.83022E+1	1.48674E+1	1.83011E+1	1.48666E+1
422	12/06/2023	17:33:23.430	0.00000E+0	0.00000E+0	-1.53543E+2	-1.58317E+0	0.00000E+0	0.00000E+0	1.73928E+1	1.57707E+1	1.73958E+1	1.57716E+1
423	12/06/2023	17:33:25.189	0.00000E+0	0.00000E+0	-1.17965E+2	-1.53708E+0	0.00000E+0	0.00000E+0	1.78466E+1	1.53075E+1	1.78447E+1	1.53082E+1
424	12/06/2023	17:33:27.030	0.00000E+0	0.00000E+0	8.06619E+1	1.68714E+0	0.00000E+0	0.00000E+0	2.06622E+1	1.25113E+1	2.06622E+1	1.25130E+1
425	12/06/2023	17:33:28.838	0.00000E+0	0.00000E+0	1.30172E+2	5.57249E-1	0.00000E+0	0.00000E+0	2.14040E+1	1.18102E+1	2.14030E+1	1.18091E+1
426	12/06/2023	17:33:30.576	0.00000E+0	0.00000E+0	1.55786E+2	1.57467E+0	0.00000E+0	0.00000E+0	2.17591E+1	1.14464E+1	2.17579E+1	1.14467E+1
427	12/06/2023	17:33:32.603	0.00000E+0	0.00000E+0	-3.28983E+1	2.28797E+0	0.00000E+0	0.00000E+0	1.92026E+1	1.39385E+1	1.92019E+1	1.39404E+1
428	12/06/2023	17:33:34.506	0.00000E+0	0.00000E+0	-1.71104E+2	-1.83730E+0	0.00000E+0	0.00000E+0	1.71436E+1	1.60450E+1	1.71413E+1	1.60418E+1
429	12/06/2023	17:33:36.437	0.00000E+0	0.00000E+0	-1.24490E+2	-1.80710E-1	0.00000E+0	0.00000E+0	1.77774E+1	1.53461E+1	1.77754E+1	1.53460E+1
430	12/06/2023	17:33:38.436	0.00000E+0	0.00000E+0	4.23102E+1	2.78617E+0	0.00000E+0	0.00000E+0	2.01087E+1	1.30847E+1	2.01087E+1	1.30846E+1
431	12/06/2023	17:33:40.347	0.00000E+0	0.00000E+0	1.19352E+2	1.33734E+0	0.00000E+0	0.00000E+0	2.12919E+1	1.19351E+1	2.12929E+1	1.19346E+1
432	12/06/2023	17:33:42.379	0.00000E+0	0.00000E+0	1.23133E+2	2.03244E+0	0.00000E+0	0.00000E+0	2.13055E+1	1.18934E+1	2.13047E+1	1.18948E+1
433	12/06/2023	17:33:44.291	0.00000E+0	0.00000E+0	3.96857E+1	-1.21442E-1	0.00000E+0	0.00000E+0	2.02196E+1	1.29747E+1	2.02228E+1	1.29732E+1
434	12/06/2023	17:33:46.122	0.00000E+0	0.00000E+0	-1.22867E+2	-1.68093E+0	0.00000E+0	0.00000E+0	1.77853E+1	1.53555E+1	1.77851E+1	1.53533E+1
435	12/06/2023	17:33:48.064	0.00000E+0	0.00000E+0	-1.22355E+2	-1.19096E+0	0.00000E+0	0.00000E+0	1.78057E+1	1.53310E+1	1.78032E+1	1.53306E+1
436	12/06/2023	17:33:49.902	0.00000E+0	0.00000E+0	-7.01500E+1	-1.30344E+0	0.00000E+0	0.00000E+0	1.85920E+1	1.45733E+1	1.85922E+1	1.45748E+1
437	12/06/2023	17:33:51.758	0.00000E+0	0.00000E+0	9.24517E+1	5.60967E-1	0.00000E+0	0.00000E+0	2.08350E+1	1.23313E+1	2.08334E+1	1.23308E+1
438	12/06/2023	17:33:53.649	0.00000E+0	0.00000E+0	9.33616E+1	6.97747E-1	0.00000E+0	0.00000E+0	2.08550E+1	1.23434E+1	2.08557E+1	1.23399E+1
439	12/06/2023	17:33:55.536	0.00000E+0	0.00000E+0	1.27833E+2	9.52478E-1	0.00000E+0	0.00000E+0	2.13655E+1	1.18291E+1	2.13655E+1	1.18275E+1
440	12/06/2023	17:33:57.504	0.00000E+0	0.00000E+0	-5.53557E+1	-6.88916E-1	0.00000E+0	0.00000E+0	1.88514E+1	1.43151E+1	1.88504E+1	1.43157E+1
441	12/06/2023	17:33:59.409	0.00000E+0	0.00000E+0	-1.48448E+2	-3.80103E-1	0.00000E+0	0.00000E+0	1.74376E+1	1.57144E+1	1.74368E+1	1.57134E+1
442	12/06/2023	17:34:01.322	0.00000E+0	0.00000E+0	-1.05144E+2	8.78731E-2	0.00000E+0	0.00000E+0	1.80060E+1	1.51876E+1	1.80071E+1	1.51871E+1
443	12/06/2023	17:34:03.304	0.00000E+0	0.00000E+0	8.74091E+1	4.83306E-1	0.00000E+0	0.00000E+0	2.07521E+1	1.24454E+1	2.07511E+1	1.24474E+1
444	12/06/2023	17:34:05.219	0.00000E+0	0.00000E+0	1.25525E+2	1.91858E+0	0.00000E+0	0.00000E+0	2.12939E+1	1.18892E+1	2.12948E+1	1.18901E+1
445	12/06/2023	17:34:07.219	0.00000E+0	0.00000E+0	1.86344E+2	3.66726E+0	0.00000E+0	0.00000E+0	2.22113E+1	1.10469E+1	2.22117E+1	1.10488E+1
446	12/06/2023	17:34:09.080	0.00000E+0	0.00000E+0	-1.28220E+2	-1.44402E+0	0.00000E+0	0.00000E+0	1.77921E+1	1.53598E+1	1.77923E+1	1.53585E+1
447	12/06/2023	17:34:10.850	0.00000E+0	0.00000E+0	-1.61033E+2	-1.61705E+0	0.00000E+0	0.00000E+0	1.72388E+1	1.58954E+1	1.72402E+1	1.58949E+1
448	12/06/2023	17:34:12.764	0.00000E+0	0.00000E+0	-9.08059E+1	-4.42591E-1	0.00000E+0	0.00000E+0	1.82380E+1	1.48883E+1	1.82413E+1	1.48914E+1
449	12/06/2023	17:34:14.510	0.00000E+0	0.00000E+0	8.73796E+1	1.46250E+0	0.00000E+0	0.00000E+0	2.07880E+1	1.23708E+1	2.07881E+1	1.23723E+1
450	12/06/2023	17:34:16.240	0.00000E+0	0.00000E+0	1.16702E+2	6.51758E-1	0.00000E+0	0.00000E+0	2.12064E+1	1.19980E+1	2.12043E+1	1.19989E+1
451	12/06/2023	17:34:18.167	0.00000E+0	0.00000E+0	1.59693E+2	9.38401E-1	0.00000E+0	0.00000E+0	2.18416E+1	1.13586E+1	2.18423E+1	1.13583E+1
452	12/06/2023	17:34:20.095	0.00000E+0	0.00000E+0	-1.23349E+2	-1.43668E+0	0.00000E+0	0.00000E+0	1.78586E+1	1.53025E+1	1.78549E+1	1.53049E+1
453	12/06/2023	17:34:22.199	0.00000E+0	0.00000E+0	-1.86940E+2	-2.34826E+0	0.00000E+0	0.00000E+0	1.68740E+1	1.62526E+1	1.68747E+1	1.62522E+1
454	12/06/2023	17:34:24.132	0.00000E+0	0.00000E+0	-9.96172E+1	-1.07156E+0	0.00000E+0	0.00000E+0	1.80241E+1	1.50867E+1	1.80233E+1	1.50863E+1
455	12/06/2023	17:34:26.051	0.00000E+0	0.00000E+0	8.95123E+1	1.21612E+0	0.00000E+0	0.00000E+0	2.08208E+1	1.23873E+1	2.08220E+1	1.23887E+1
456	12/06/2023	17:34:28.197	0.00000E+0	0.00000E+0	1.11655E+2	9.32335E-1	0.00000E+0	0.00000E+0	2.11243E+1	1.20606E+1	2.11265E+1	1.20614E+1
457	12/06/2023	17:34:30.126	0.00000E+0	0.00000E+0	1.45458E+2	2.52871E+0	0.00000E+0	0.00000E+0	2.16284E+1	1.15861E+1	2.16269E+1	1.15861E+1
458	12/06/2023	17:34:32.074	0.00000E+0	0.00000E+0	-6.26134E+1	-6.90875E-1	0.00000E+0	0.00000E+0	1.87063E+1	1.44424E+1	1.87098E+1	1.44430E+1
459	12/06/2023	17:34:33.892	0.00000E+0	0.00000E+0	-1.36139E+2	-1.43282E+0	0.00000E+0	0.00000E+0	1.76434E+1	1.55109E+1	1.76458E+1	1.55091E+1
460	12/06/2023	17:34:35.663	0.00000E+0	0.00000E+0	-1.19774E+2	-1.59225E+0	0.00000E+0	0.00000E+0	1.78065E+1	1.53470E+1	1.78066E+1	1.53495E+1
461	12/06/2023	17:34:37.583	0.00000E+0	0.00000E+0	-6.32210E+1	-1.46782E-1	0.00000E+0	0.00000E+0	1.86100E+1	1.45457E+1	1.86088E+1	1.45461E+1
462	12/06/2023	17:34:39.311	0.00000E+0	0.00000E+0	9.44867E+1	8.66704E-1	0.00000E+0	0.00000E+0	2.09272E+1	1.22633E+1	2.09300E+1	1.22598E+1
463	12/06/2023	17:34:41.231	0.00000E+0	0.00000E+0	8.32768E+1	1.50335E+0	0.00000E+0	0.00000E+0	2.07421E+1	1.24598E+1	2.07413E+1	1.24624E+1
464	12/06/2023	17:34:43.178	0.00000E+0	0.00000E+0	7.72764E+1	1.44575E+0	0.00000E+0	0.00000E+0	2.06581E+1	1.25009E+1	2.06594E+1	1.24995E+1
465	12/06/2023	17:34:45.095	0.00000E+0	0.00000E+0	-6.99820E+1	-6.00520E-1	0.00000E+0	0.00000E+0	1.86620E+1	1.45119E+1	1.86614E+1	1.45097E+1
466	12/06/2023	17:34:47.112	0.00000E+0	0.00000E+0	-1.22418E+2	-1.25756E+0	0.00000E+0	0.00000E+0	1.77993E+1	1.53329E+1	1.77993E+1	1.53345E+1
467	12/06/2023	17:34:48.915	0.00000E+0	0.00000E+0	3.79251E+0	1.10729E+0	0.00000E+0	0.00000E+0	1.95454E+1	1.36172E+1	1.95462E+1	1.36151E+1
468	12/06/2023	17:34:50.743	0.00000E+0	0.00000E+0	6.27558E+1	2.24267E+0	0.00000E+0	0.00000E+0	2.04863E+1	1.26926E+1	2.04858E+1	1.26952E+1
469	12/06/2023	17:34:52.764	0.00000E+0	0.00000E+0	1.23714E+2	4.94940E-1	0.00000E+0	0.00000E+0	2.13327E+1	1.18846E+1	2.13328E+1	1.18842E+1
470	12/06/2023	17:34:54.696	0.00000E+0	0.00000E+0	1.00904E+2	1.29800E+0	0.00000E+0	0.00000E+0	2.10225E+1	1.21953E+1	2.10212E+1	1.21954E+1
471	12/06/2023	17:34:56.536	0.00000E+0	0.00000E+0	-9.02705E+1	-5.94154E-1	0.00000E+0	0.00000E+0	1.82944E+1	1.48483E+1	1.82943E+1	1.48479E+1
472	12/06/2023	17:34:58.312	0.00000E+0	0.00000E+0	-1.20065E+2	-4.63641E-1	0.00000E+0	0.00000E+0	1.78534E+1	1.53026E+1	1.78525E+1	1.53002E+1
473	12/06/2023	17:35:00.059	0.00000E+0	0.00000E+0	-1.03131E+2	-1.79318E-1	0.00000E+0	0.00000E+0	1.80805E+1	1.50607E+1	1.80812E+1	1.50596E+1
474	12/06/2023	17:35:01.906	0.00000E+0	0.00000E+0	-6.78503E+1	-6.02255E-1	0.00000E+0	0.00000E+0	1.85658E+1	1.45961E+1	1.85676E+1	1.45965E+1
475	12/06/2023	17:35:03.750	0.00000E+0	0.00000E+0	4.92020E+1	-1.40471E-1	0.00000E+0	0.00000E+0	2.02717E+1	1.29391E+1	2.02700E+1	1.29392E+1
476	12/06/2023	17:35:05.670	0.00000E+0	0.00000E+0	4.47187E+1	1.40239E+0	0.00000E+0	0.00000E+0	2.01692E+1	1.29522E+1	2.01683E+1	1.29535E+1
477	12/06/2023	17:35:07.684	0.00000E+0	0.00000E+0	2.46515E+1	-7.67066E-2	0.00000E+0	0.00000E+0	1.98963E+1	1.32590E+1	1.98953E+1	1.32566E+1
478	12/06/2023	17:35:09.610	0.00000E+0	0.00000E+0	4.96620E+1	3.24599E-1	0.00000E+0	0.00000E+0	2.02912E+1	1.28844E+1	2.02882E+1	1.28863E+1
479	12/06/2023	17:35:11.594	0.00000E+0	0.00000E+0	3.76654E+1	1.16207E+0	0.00000E+0	0.00000E+0	2.00894E+1	1.30961E+1	2.00930E+1	1.30962E+1
480	12/06/2023	17:35:13.528	0.00000E+0	0.00000E+0	4.73176E+1	9.25407E-1	0.00000E+0	0.00000E+0	2.02431E+1	1.29299E+1	2.02412E+1	1.29297E+1
481	12/06/2023	17:35:15.430	0.00000E+0	0.00000E+0	3.94724E+1	2.74595E-1	0.00000E+0	0.00000E+0	2.01180E+1	1.30664E+1	2.01183E+1	1.30674E+1
482	12/06/2023	17:35:17.387	0.00000E+0	0.00000E+0	-5.74081E+1	-1.99032E+0	0.00000E+0	0.00000E+0	1.87278E+1	1.44320E+1	1.87292E+1	1.44310E+1
483	12/06/2023	17:35:19.216	0.00000E+0	0.00000E+0	-5.35593E+1	-1.12736E-1	0.00000E+0	0.00000E+0	1.87794E+1	1.43763E+1	1.87805E+1	1.43770E+1
484	12/06/2023	17:35:21.052	0.00000E+0	0.00000E+0	-3.51162E+1	-2.15658E-1	0.00000E+0	0.00000E+0	1.90353E+1	1.41224E+1	1.90382E+1	1.41231E+1
485	12/06/2023	17:35:22.980	0.00000E+0	0.00000E+0	-4.57772E+1	-3.81378E-1	0.00000E+0	0.00000E+0	1.88894E+1	1.42559E+1	1.88893E+1	1.42564E+1
486	12/06/2023	17:35:24.715	0.00000E+0	0.00000E+0	-4.63557E+1	-3.58772E-2	0.00000E+0	0.00000E+0	1.88586E+1	1.42861E+1	1.88588E+1	1.42882E+1
487	12/06/2023	17:35:26.685	0.00000E+0	0.00000E+0	-5.65978E+1	2.35079E+0	0.00000E+0	0.00000E+0	1.87601E+1	1.44187E+1	1.87629E+1	1.44193E+1
488	12/06/2023	17:35:28.568	0.00000E+0	0.00000E+0	-5.68391E+1	3.87730E-2	0.00000E+0	0.00000E+0	1.87387E+1	1.44334E+1	1.87392E+1	1.44318E+1
489	12/06/2023	17:35:30.501	0.00000E+0	0.00000E+0	3.24826E+1	8.34878E-1	0.00000E+0	0.00000E+0	2.00312E+1	1.31667E+1	2.00331E+1	1.31673E+1
490	12/06/2023	17:35:32.550	0.00000E+0	0.00000E+0	5.99500E+1	2.08038E+0	0.00000E+0	0.00000E+0	2.03950E+1	1.28102E+1	2.03957E+1	1.28106E+1
491	12/06/2023	17:35:34.427	0.00000E+0	0.00000E+0	3.93606E+1	-6.63433E-1	0.00000E+0	0.00000E+0	2.00737E+1	1.30822E+1	2.00746E+1	1.30820E+1
492	12/06/2023	17:35:36.418	0.00000E+0	0.00000E+0	6.53547E+1	2.26025E-1	0.00000E+0	0.00000E+0	2.05083E+1	1.27175E+1	2.05038E+1	1.27207E+1
493	12/06/2023	17:35:38.373	0.00000E+0	0.00000E+0	8.06981E+1	7.75249E-1	0.00000E+0	0.00000E+0	2.06757E+1	1.25172E+1	2.06742E+1	1.25182E+1
494	12/06/2023	17:35:40.201	0.00000E+0	0.00000E+0	8.45629E+1	4.74851E-1	0.00000E+0	0.00000E+0	2.07733E+1	1.24259E+1	2.07722E+1	1.24288E+1
495	12/06/2023	17:35:42.468	0.00000E+0	0.00000E+0	-7.69040E+1	5.39044E-2	0.00000E+0	0.00000E+0	1.85121E+1	1.46371E+1	1.85093E+1	1.46391E+1
496	12/06/2023	17:35:44.329	0.00000E+0	0.00000E+0	-1.17273E+2	-1.27841E+0	0.00000E+0	0.00000E+0	1.79091E+1	1.52404E+1	1.79090E+1	1.52406E+1
497	12/06/2023	17:35:46.052	0.00000E+0	0.00000E+0	-1.36808E+2	-1.45777E+0	0.00000E+0	0.00000E+0	1.76190E+1	1.55249E+1	1.76166E+1	1.55248E+1
498	12/06/2023	17:35:47.860	0.00000E+0	0.00000E+0	-8.54753E+1	-9.65029E-1	0.00000E+0	0.00000E+0	1.83433E+1	1.48065E+1	1.83418E+1	1.48077E+1
499	12/06/2023	17:35:49.689	0.00000E+0	0.00000E+0	-2.20527E+1	4.48855E-1	0.00000E+0	0.00000E+0	1.91632E+1	1.39932E+1	1.91618E+1	1.39942E+1
500	12/06/2023	17:35:51.639	0.00000E+0	0.00000E+0	6.80251E+1	2.07708E-2	0.00000E+0	0.00000E+0	2.04898E+1	1.26940E+1	2.04893E+1	1.26934E+1
