#Iteration	Date	Time	Chirp	Phase	RamanAxis	RatioMean	RatioStdDev
1	12/06/2023	17:20:01.707	0.00000000E+0	-1.56922630E+3	5.00000000E+0	4.55720658E-1	0.00000000E+0
2	12/06/2023	17:20:03.428	0.00000000E+0	-1.56294311E+3	5.00000000E+0	4.54585169E-1	0.00000000E+0
3	12/06/2023	17:20:05.312	0.00000000E+0	-1.55665993E+3	5.00000000E+0	4.61299937E-1	0.00000000E+0
4	12/06/2023	17:20:07.039	0.00000000E+0	-1.55037674E+3	5.00000000E+0	5.86301517E-1	0.00000000E+0
5	12/06/2023	17:20:08.913	0.00000000E+0	-1.54409356E+3	5.00000000E+0	3.07566291E-1	0.00000000E+0
6	12/06/2023	17:20:10.918	0.00000000E+0	-1.53781037E+3	5.00000000E+0	6.34511685E-1	0.00000000E+0
7	12/06/2023	17:20:12.813	0.00000000E+0	-1.53152719E+3	5.00000000E+0	6.82461121E-1	0.00000000E+0
8	12/06/2023	17:20:14.692	0.00000000E+0	-1.52524400E+3	5.00000000E+0	4.85218873E-1	0.00000000E+0
9	12/06/2023	17:20:16.530	0.00000000E+0	-1.51896082E+3	5.00000000E+0	5.22296943E-1	0.00000000E+0
10	12/06/2023	17:20:18.439	0.00000000E+0	-1.51267763E+3	5.00000000E+0	2.84308921E-1	0.00000000E+0
11	12/06/2023	17:20:20.712	0.00000000E+0	-1.50639444E+3	5.00000000E+0	4.79665749E-1	0.00000000E+0
12	12/06/2023	17:20:22.550	0.00000000E+0	-1.50011126E+3	5.00000000E+0	3.41012820E-1	0.00000000E+0
13	12/06/2023	17:20:24.555	0.00000000E+0	-1.49382807E+3	5.00000000E+0	5.44713859E-1	0.00000000E+0
14	12/06/2023	17:20:26.514	0.00000000E+0	-1.48754489E+3	5.00000000E+0	4.95527542E-1	0.00000000E+0
15	12/06/2023	17:20:28.250	0.00000000E+0	-1.48126170E+3	5.00000000E+0	6.32504366E-1	0.00000000E+0
16	12/06/2023	17:20:30.042	0.00000000E+0	-1.47497852E+3	5.00000000E+0	5.19017006E-1	0.00000000E+0
17	12/06/2023	17:20:31.903	0.00000000E+0	-1.46869533E+3	5.00000000E+0	6.08984966E-1	0.00000000E+0
18	12/06/2023	17:20:33.831	0.00000000E+0	-1.46241215E+3	5.00000000E+0	6.34231567E-1	0.00000000E+0
19	12/06/2023	17:20:35.809	0.00000000E+0	-1.45612896E+3	5.00000000E+0	5.63905672E-1	0.00000000E+0
20	12/06/2023	17:20:37.666	0.00000000E+0	-1.44984578E+3	5.00000000E+0	6.42909541E-1	0.00000000E+0
21	12/06/2023	17:20:39.673	0.00000000E+0	-1.44356259E+3	5.00000000E+0	3.28554082E-1	0.00000000E+0
22	12/06/2023	17:20:41.583	0.00000000E+0	-1.43727941E+3	5.00000000E+0	4.10023570E-1	0.00000000E+0
23	12/06/2023	17:20:43.491	0.00000000E+0	-1.43099622E+3	5.00000000E+0	4.87337347E-1	0.00000000E+0
24	12/06/2023	17:20:45.561	0.00000000E+0	-1.42471304E+3	5.00000000E+0	6.60614754E-1	0.00000000E+0
25	12/06/2023	17:20:47.417	0.00000000E+0	-1.41842985E+3	5.00000000E+0	5.10266769E-1	0.00000000E+0
26	12/06/2023	17:20:49.341	0.00000000E+0	-1.41214666E+3	5.00000000E+0	6.72508303E-1	0.00000000E+0
27	12/06/2023	17:20:51.124	0.00000000E+0	-1.40586348E+3	5.00000000E+0	4.20869463E-1	0.00000000E+0
28	12/06/2023	17:20:52.851	0.00000000E+0	-1.39958029E+3	5.00000000E+0	3.11288686E-1	0.00000000E+0
29	12/06/2023	17:20:54.862	0.00000000E+0	-1.39329711E+3	5.00000000E+0	5.65550100E-1	0.00000000E+0
30	12/06/2023	17:20:56.807	0.00000000E+0	-1.38701392E+3	5.00000000E+0	2.96702708E-1	0.00000000E+0
31	12/06/2023	17:20:58.714	0.00000000E+0	-1.38073074E+3	5.00000000E+0	6.25073571E-1	0.00000000E+0
32	12/06/2023	17:21:00.648	0.00000000E+0	-1.37444755E+3	5.00000000E+0	3.19895574E-1	0.00000000E+0
33	12/06/2023	17:21:02.569	0.00000000E+0	-1.36816437E+3	5.00000000E+0	3.15046844E-1	0.00000000E+0
34	12/06/2023	17:21:04.585	0.00000000E+0	-1.36188118E+3	5.00000000E+0	3.08217901E-1	0.00000000E+0
35	12/06/2023	17:21:06.504	0.00000000E+0	-1.35559800E+3	5.00000000E+0	5.19852134E-1	0.00000000E+0
36	12/06/2023	17:21:08.358	0.00000000E+0	-1.34931481E+3	5.00000000E+0	6.28141062E-1	0.00000000E+0
37	12/06/2023	17:21:10.339	0.00000000E+0	-1.34303163E+3	5.00000000E+0	6.34314689E-1	0.00000000E+0
38	12/06/2023	17:21:12.105	0.00000000E+0	-1.33674844E+3	5.00000000E+0	3.94974834E-1	0.00000000E+0
39	12/06/2023	17:21:13.860	0.00000000E+0	-1.33046526E+3	5.00000000E+0	5.56960347E-1	0.00000000E+0
40	12/06/2023	17:21:15.637	0.00000000E+0	-1.32418207E+3	5.00000000E+0	3.65509870E-1	0.00000000E+0
41	12/06/2023	17:21:17.481	0.00000000E+0	-1.31789889E+3	5.00000000E+0	5.76161520E-1	0.00000000E+0
42	12/06/2023	17:21:19.611	0.00000000E+0	-1.31161570E+3	5.00000000E+0	6.57985848E-1	0.00000000E+0
43	12/06/2023	17:21:21.475	0.00000000E+0	-1.30533251E+3	5.00000000E+0	4.35403475E-1	0.00000000E+0
44	12/06/2023	17:21:23.398	0.00000000E+0	-1.29904933E+3	5.00000000E+0	3.15034660E-1	0.00000000E+0
45	12/06/2023	17:21:25.386	0.00000000E+0	-1.29276614E+3	5.00000000E+0	3.48337719E-1	0.00000000E+0
46	12/06/2023	17:21:27.307	0.00000000E+0	-1.28648296E+3	5.00000000E+0	3.29238722E-1	0.00000000E+0
47	12/06/2023	17:21:29.299	0.00000000E+0	-1.28019977E+3	5.00000000E+0	6.37365855E-1	0.00000000E+0
48	12/06/2023	17:21:31.208	0.00000000E+0	-1.27391659E+3	5.00000000E+0	5.24344485E-1	0.00000000E+0
49	12/06/2023	17:21:33.157	0.00000000E+0	-1.26763340E+3	5.00000000E+0	5.05059138E-1	0.00000000E+0
50	12/06/2023	17:21:35.154	0.00000000E+0	-1.26135022E+3	5.00000000E+0	3.72038931E-1	0.00000000E+0
51	12/06/2023	17:21:36.939	0.00000000E+0	-1.25506703E+3	5.00000000E+0	3.70777326E-1	0.00000000E+0
52	12/06/2023	17:21:38.705	0.00000000E+0	-1.24878385E+3	5.00000000E+0	3.87798788E-1	0.00000000E+0
53	12/06/2023	17:21:40.683	0.00000000E+0	-1.24250066E+3	5.00000000E+0	6.64872994E-1	0.00000000E+0
54	12/06/2023	17:21:42.591	0.00000000E+0	-1.23621748E+3	5.00000000E+0	3.51361777E-1	0.00000000E+0
55	12/06/2023	17:21:44.567	0.00000000E+0	-1.22993429E+3	5.00000000E+0	4.42508180E-1	0.00000000E+0
56	12/06/2023	17:21:46.458	0.00000000E+0	-1.22365111E+3	5.00000000E+0	5.17453061E-1	0.00000000E+0
57	12/06/2023	17:21:48.372	0.00000000E+0	-1.21736792E+3	5.00000000E+0	5.96374832E-1	0.00000000E+0
58	12/06/2023	17:21:50.382	0.00000000E+0	-1.21108473E+3	5.00000000E+0	6.20288477E-1	0.00000000E+0
59	12/06/2023	17:21:52.288	0.00000000E+0	-1.20480155E+3	5.00000000E+0	2.90703425E-1	0.00000000E+0
60	12/06/2023	17:21:54.285	0.00000000E+0	-1.19851836E+3	5.00000000E+0	3.27709797E-1	0.00000000E+0
61	12/06/2023	17:21:56.194	0.00000000E+0	-1.19223518E+3	5.00000000E+0	4.53905761E-1	0.00000000E+0
62	12/06/2023	17:21:58.069	0.00000000E+0	-1.18595199E+3	5.00000000E+0	6.86460203E-1	0.00000000E+0
63	12/06/2023	17:22:00.011	0.00000000E+0	-1.17966881E+3	5.00000000E+0	4.75234848E-1	0.00000000E+0
64	12/06/2023	17:22:01.735	0.00000000E+0	-1.17338562E+3	5.00000000E+0	3.11333039E-1	0.00000000E+0
65	12/06/2023	17:22:03.495	0.00000000E+0	-1.16710244E+3	5.00000000E+0	4.49774773E-1	0.00000000E+0
66	12/06/2023	17:22:05.578	0.00000000E+0	-1.16081925E+3	5.00000000E+0	5.49893462E-1	0.00000000E+0
67	12/06/2023	17:22:07.418	0.00000000E+0	-1.15453607E+3	5.00000000E+0	4.48552597E-1	0.00000000E+0
68	12/06/2023	17:22:09.368	0.00000000E+0	-1.14825288E+3	5.00000000E+0	4.60605467E-1	0.00000000E+0
69	12/06/2023	17:22:11.258	0.00000000E+0	-1.14196970E+3	5.00000000E+0	4.54872611E-1	0.00000000E+0
70	12/06/2023	17:22:13.176	0.00000000E+0	-1.13568651E+3	5.00000000E+0	5.65157787E-1	0.00000000E+0
71	12/06/2023	17:22:15.186	0.00000000E+0	-1.12940333E+3	5.00000000E+0	5.44130098E-1	0.00000000E+0
72	12/06/2023	17:22:17.038	0.00000000E+0	-1.12312014E+3	5.00000000E+0	5.24013958E-1	0.00000000E+0
73	12/06/2023	17:22:19.039	0.00000000E+0	-1.11683696E+3	5.00000000E+0	3.50576842E-1	0.00000000E+0
74	12/06/2023	17:22:20.994	0.00000000E+0	-1.11055377E+3	5.00000000E+0	5.91823833E-1	0.00000000E+0
75	12/06/2023	17:22:22.806	0.00000000E+0	-1.10427058E+3	5.00000000E+0	5.27751779E-1	0.00000000E+0
76	12/06/2023	17:22:24.621	0.00000000E+0	-1.09798740E+3	5.00000000E+0	6.58982273E-1	0.00000000E+0
77	12/06/2023	17:22:26.381	0.00000000E+0	-1.09170421E+3	5.00000000E+0	6.59928485E-1	0.00000000E+0
78	12/06/2023	17:22:28.305	0.00000000E+0	-1.08542103E+3	5.00000000E+0	6.41797666E-1	0.00000000E+0
79	12/06/2023	17:22:30.323	0.00000000E+0	-1.07913784E+3	5.00000000E+0	3.23192278E-1	0.00000000E+0
80	12/06/2023	17:22:32.230	0.00000000E+0	-1.07285466E+3	5.00000000E+0	2.95077132E-1	0.00000000E+0
81	12/06/2023	17:22:34.126	0.00000000E+0	-1.06657147E+3	5.00000000E+0	3.01115012E-1	0.00000000E+0
82	12/06/2023	17:22:36.071	0.00000000E+0	-1.06028829E+3	5.00000000E+0	3.02534742E-1	0.00000000E+0
83	12/06/2023	17:22:37.992	0.00000000E+0	-1.05400510E+3	5.00000000E+0	6.17075762E-1	0.00000000E+0
84	12/06/2023	17:22:39.866	0.00000000E+0	-1.04772192E+3	5.00000000E+0	4.05571349E-1	0.00000000E+0
85	12/06/2023	17:22:41.833	0.00000000E+0	-1.04143873E+3	5.00000000E+0	3.51248054E-1	0.00000000E+0
86	12/06/2023	17:22:43.691	0.00000000E+0	-1.03515555E+3	5.00000000E+0	3.69989790E-1	0.00000000E+0
87	12/06/2023	17:22:45.444	0.00000000E+0	-1.02887236E+3	5.00000000E+0	2.91547705E-1	0.00000000E+0
88	12/06/2023	17:22:47.159	0.00000000E+0	-1.02258918E+3	5.00000000E+0	4.24610332E-1	0.00000000E+0
89	12/06/2023	17:22:49.033	0.00000000E+0	-1.01630599E+3	5.00000000E+0	3.32460662E-1	0.00000000E+0
90	12/06/2023	17:22:50.939	0.00000000E+0	-1.01002281E+3	5.00000000E+0	4.07607460E-1	0.00000000E+0
91	12/06/2023	17:22:52.868	0.00000000E+0	-1.00373962E+3	5.00000000E+0	4.32493077E-1	0.00000000E+0
92	12/06/2023	17:22:54.868	0.00000000E+0	-9.97456435E+2	5.00000000E+0	4.47376005E-1	0.00000000E+0
93	12/06/2023	17:22:56.793	0.00000000E+0	-9.91173249E+2	5.00000000E+0	4.73381567E-1	0.00000000E+0
94	12/06/2023	17:22:58.799	0.00000000E+0	-9.84890064E+2	5.00000000E+0	4.37225458E-1	0.00000000E+0
95	12/06/2023	17:23:00.713	0.00000000E+0	-9.78606879E+2	5.00000000E+0	4.60672881E-1	0.00000000E+0
96	12/06/2023	17:23:02.590	0.00000000E+0	-9.72323693E+2	5.00000000E+0	6.40116282E-1	0.00000000E+0
97	12/06/2023	17:23:04.559	0.00000000E+0	-9.66040508E+2	5.00000000E+0	3.73694659E-1	0.00000000E+0
98	12/06/2023	17:23:06.343	0.00000000E+0	-9.59757323E+2	5.00000000E+0	3.25160099E-1	0.00000000E+0
99	12/06/2023	17:23:08.170	0.00000000E+0	-9.53474137E+2	5.00000000E+0	6.35255468E-1	0.00000000E+0
100	12/06/2023	17:23:09.981	0.00000000E+0	-9.47190952E+2	5.00000000E+0	6.58600745E-1	0.00000000E+0
101	12/06/2023	17:23:11.737	0.00000000E+0	-9.40907767E+2	5.00000000E+0	6.63422515E-1	0.00000000E+0
102	12/06/2023	17:23:13.697	0.00000000E+0	-9.34624581E+2	5.00000000E+0	6.13538430E-1	0.00000000E+0
103	12/06/2023	17:23:15.588	0.00000000E+0	-9.28341396E+2	5.00000000E+0	6.58076244E-1	0.00000000E+0
104	12/06/2023	17:23:17.510	0.00000000E+0	-9.22058211E+2	5.00000000E+0	6.43264514E-1	0.00000000E+0
105	12/06/2023	17:23:19.640	0.00000000E+0	-9.15775026E+2	5.00000000E+0	6.68178303E-1	0.00000000E+0
106	12/06/2023	17:23:21.519	0.00000000E+0	-9.09491840E+2	5.00000000E+0	6.66415522E-1	0.00000000E+0
107	12/06/2023	17:23:23.472	0.00000000E+0	-9.03208655E+2	5.00000000E+0	3.14768196E-1	0.00000000E+0
108	12/06/2023	17:23:25.372	0.00000000E+0	-8.96925470E+2	5.00000000E+0	5.99499678E-1	0.00000000E+0
109	12/06/2023	17:23:27.207	0.00000000E+0	-8.90642284E+2	5.00000000E+0	3.39801977E-1	0.00000000E+0
110	12/06/2023	17:23:29.232	0.00000000E+0	-8.84359099E+2	5.00000000E+0	3.85471918E-1	0.00000000E+0
111	12/06/2023	17:23:31.008	0.00000000E+0	-8.78075914E+2	5.00000000E+0	3.68954015E-1	0.00000000E+0
112	12/06/2023	17:23:32.792	0.00000000E+0	-8.71792728E+2	5.00000000E+0	3.41027063E-1	0.00000000E+0
113	12/06/2023	17:23:34.636	0.00000000E+0	-8.65509543E+2	5.00000000E+0	3.59906492E-1	0.00000000E+0
114	12/06/2023	17:23:36.536	0.00000000E+0	-8.59226358E+2	5.00000000E+0	3.31480156E-1	0.00000000E+0
115	12/06/2023	17:23:38.541	0.00000000E+0	-8.52943172E+2	5.00000000E+0	2.95945495E-1	0.00000000E+0
116	12/06/2023	17:23:40.444	0.00000000E+0	-8.46659987E+2	5.00000000E+0	4.40722766E-1	0.00000000E+0
117	12/06/2023	17:23:42.369	0.00000000E+0	-8.40376802E+2	5.00000000E+0	4.07251372E-1	0.00000000E+0
118	12/06/2023	17:23:44.309	0.00000000E+0	-8.34093617E+2	5.00000000E+0	4.69840378E-1	0.00000000E+0
119	12/06/2023	17:23:46.204	0.00000000E+0	-8.27810431E+2	5.00000000E+0	4.05033915E-1	0.00000000E+0
120	12/06/2023	17:23:48.196	0.00000000E+0	-8.21527246E+2	5.00000000E+0	3.92721085E-1	0.00000000E+0
121	12/06/2023	17:23:50.558	0.00000000E+0	-8.15244061E+2	5.00000000E+0	4.16417399E-1	0.00000000E+0
122	12/06/2023	17:23:52.262	0.00000000E+0	-8.08960875E+2	5.00000000E+0	5.91494734E-1	0.00000000E+0
123	12/06/2023	17:23:54.164	0.00000000E+0	-8.02677690E+2	5.00000000E+0	6.42676495E-1	0.00000000E+0
124	12/06/2023	17:23:55.885	0.00000000E+0	-7.96394505E+2	5.00000000E+0	5.07569711E-1	0.00000000E+0
125	12/06/2023	17:23:57.635	0.00000000E+0	-7.90111319E+2	5.00000000E+0	6.66232642E-1	0.00000000E+0
126	12/06/2023	17:23:59.673	0.00000000E+0	-7.83828134E+2	5.00000000E+0	6.57296658E-1	0.00000000E+0
127	12/06/2023	17:24:01.577	0.00000000E+0	-7.77544949E+2	5.00000000E+0	4.61195246E-1	0.00000000E+0
128	12/06/2023	17:24:03.574	0.00000000E+0	-7.71261763E+2	5.00000000E+0	3.65799525E-1	0.00000000E+0
129	12/06/2023	17:24:05.533	0.00000000E+0	-7.64978578E+2	5.00000000E+0	6.09140038E-1	0.00000000E+0
130	12/06/2023	17:24:07.449	0.00000000E+0	-7.58695393E+2	5.00000000E+0	3.74525483E-1	0.00000000E+0
131	12/06/2023	17:24:09.453	0.00000000E+0	-7.52412208E+2	5.00000000E+0	3.03871938E-1	0.00000000E+0
132	12/06/2023	17:24:11.361	0.00000000E+0	-7.46129022E+2	5.00000000E+0	3.63823890E-1	0.00000000E+0
133	12/06/2023	17:24:13.207	0.00000000E+0	-7.39845837E+2	5.00000000E+0	3.79779205E-1	0.00000000E+0
134	12/06/2023	17:24:15.167	0.00000000E+0	-7.33562652E+2	5.00000000E+0	4.62717967E-1	0.00000000E+0
135	12/06/2023	17:24:16.992	0.00000000E+0	-7.27279466E+2	5.00000000E+0	5.88305017E-1	0.00000000E+0
136	12/06/2023	17:24:18.828	0.00000000E+0	-7.20996281E+2	5.00000000E+0	6.21563548E-1	0.00000000E+0
137	12/06/2023	17:24:20.640	0.00000000E+0	-7.14713096E+2	5.00000000E+0	4.07164460E-1	0.00000000E+0
138	12/06/2023	17:24:22.562	0.00000000E+0	-7.08429910E+2	5.00000000E+0	5.87345794E-1	0.00000000E+0
139	12/06/2023	17:24:24.553	0.00000000E+0	-7.02146725E+2	5.00000000E+0	6.53766257E-1	0.00000000E+0
140	12/06/2023	17:24:26.486	0.00000000E+0	-6.95863540E+2	5.00000000E+0	6.36398530E-1	0.00000000E+0
141	12/06/2023	17:24:28.339	0.00000000E+0	-6.89580354E+2	5.00000000E+0	6.51198323E-1	0.00000000E+0
142	12/06/2023	17:24:30.234	0.00000000E+0	-6.83297169E+2	5.00000000E+0	6.61477292E-1	0.00000000E+0
143	12/06/2023	17:24:32.156	0.00000000E+0	-6.77013984E+2	5.00000000E+0	3.93515334E-1	0.00000000E+0
144	12/06/2023	17:24:34.139	0.00000000E+0	-6.70730799E+2	5.00000000E+0	5.41869174E-1	0.00000000E+0
145	12/06/2023	17:24:36.027	0.00000000E+0	-6.64447613E+2	5.00000000E+0	6.35605190E-1	0.00000000E+0
146	12/06/2023	17:24:37.796	0.00000000E+0	-6.58164428E+2	5.00000000E+0	2.92617150E-1	0.00000000E+0
147	12/06/2023	17:24:39.655	0.00000000E+0	-6.51881243E+2	5.00000000E+0	2.80026830E-1	0.00000000E+0
148	12/06/2023	17:24:41.446	0.00000000E+0	-6.45598057E+2	5.00000000E+0	2.97511461E-1	0.00000000E+0
149	12/06/2023	17:24:43.232	0.00000000E+0	-6.39314872E+2	5.00000000E+0	5.23316091E-1	0.00000000E+0
150	12/06/2023	17:24:45.118	0.00000000E+0	-6.33031687E+2	5.00000000E+0	3.87732776E-1	0.00000000E+0
151	12/06/2023	17:24:47.042	0.00000000E+0	-6.26748501E+2	5.00000000E+0	3.11212098E-1	0.00000000E+0
152	12/06/2023	17:24:48.981	0.00000000E+0	-6.20465316E+2	5.00000000E+0	3.60523151E-1	0.00000000E+0
153	12/06/2023	17:24:50.917	0.00000000E+0	-6.14182131E+2	5.00000000E+0	5.46525389E-1	0.00000000E+0
154	12/06/2023	17:24:52.800	0.00000000E+0	-6.07898945E+2	5.00000000E+0	3.34159259E-1	0.00000000E+0
155	12/06/2023	17:24:54.792	0.00000000E+0	-6.01615760E+2	5.00000000E+0	4.15859517E-1	0.00000000E+0
156	12/06/2023	17:24:56.671	0.00000000E+0	-5.95332575E+2	5.00000000E+0	6.35954425E-1	0.00000000E+0
157	12/06/2023	17:24:58.593	0.00000000E+0	-5.89049390E+2	5.00000000E+0	6.08356548E-1	0.00000000E+0
158	12/06/2023	17:25:00.553	0.00000000E+0	-5.82766204E+2	5.00000000E+0	5.62420267E-1	0.00000000E+0
159	12/06/2023	17:25:02.522	0.00000000E+0	-5.76483019E+2	5.00000000E+0	4.51441646E-1	0.00000000E+0
160	12/06/2023	17:25:04.331	0.00000000E+0	-5.70199834E+2	5.00000000E+0	5.39099435E-1	0.00000000E+0
161	12/06/2023	17:25:06.044	0.00000000E+0	-5.63916648E+2	5.00000000E+0	6.64775893E-1	0.00000000E+0
162	12/06/2023	17:25:07.948	0.00000000E+0	-5.57633463E+2	5.00000000E+0	6.34186977E-1	0.00000000E+0
163	12/06/2023	17:25:09.915	0.00000000E+0	-5.51350278E+2	5.00000000E+0	5.03884106E-1	0.00000000E+0
164	12/06/2023	17:25:11.854	0.00000000E+0	-5.45067092E+2	5.00000000E+0	6.79398800E-1	0.00000000E+0
165	12/06/2023	17:25:13.853	0.00000000E+0	-5.38783907E+2	5.00000000E+0	6.15675686E-1	0.00000000E+0
166	12/06/2023	17:25:15.749	0.00000000E+0	-5.32500722E+2	5.00000000E+0	3.52757094E-1	0.00000000E+0
167	12/06/2023	17:25:17.650	0.00000000E+0	-5.26217536E+2	5.00000000E+0	3.17230034E-1	0.00000000E+0
168	12/06/2023	17:25:19.651	0.00000000E+0	-5.19934351E+2	5.00000000E+0	3.24093253E-1	0.00000000E+0
169	12/06/2023	17:25:21.542	0.00000000E+0	-5.13651166E+2	5.00000000E+0	3.06635725E-1	0.00000000E+0
170	12/06/2023	17:25:23.432	0.00000000E+0	-5.07367981E+2	5.00000000E+0	3.52705864E-1	0.00000000E+0
171	12/06/2023	17:25:25.321	0.00000000E+0	-5.01084795E+2	5.00000000E+0	3.19146532E-1	0.00000000E+0
172	12/06/2023	17:25:27.054	0.00000000E+0	-4.94801610E+2	5.00000000E+0	3.14636640E-1	0.00000000E+0
173	12/06/2023	17:25:28.896	0.00000000E+0	-4.88518425E+2	5.00000000E+0	4.81249874E-1	0.00000000E+0
174	12/06/2023	17:25:30.749	0.00000000E+0	-4.82235239E+2	5.00000000E+0	4.61747761E-1	0.00000000E+0
175	12/06/2023	17:25:32.577	0.00000000E+0	-4.75952054E+2	5.00000000E+0	6.28897505E-1	0.00000000E+0
176	12/06/2023	17:25:34.586	0.00000000E+0	-4.69668869E+2	5.00000000E+0	3.15639310E-1	0.00000000E+0
177	12/06/2023	17:25:36.497	0.00000000E+0	-4.63385683E+2	5.00000000E+0	5.19609524E-1	0.00000000E+0
178	12/06/2023	17:25:38.503	0.00000000E+0	-4.57102498E+2	5.00000000E+0	4.97992008E-1	0.00000000E+0
179	12/06/2023	17:25:40.515	0.00000000E+0	-4.50819313E+2	5.00000000E+0	5.69262249E-1	0.00000000E+0
180	12/06/2023	17:25:42.393	0.00000000E+0	-4.44536127E+2	5.00000000E+0	2.85606738E-1	0.00000000E+0
181	12/06/2023	17:25:44.355	0.00000000E+0	-4.38252942E+2	5.00000000E+0	6.76944137E-1	0.00000000E+0
182	12/06/2023	17:25:46.133	0.00000000E+0	-4.31969757E+2	5.00000000E+0	3.03431666E-1	0.00000000E+0
183	12/06/2023	17:25:48.123	0.00000000E+0	-4.25686572E+2	5.00000000E+0	3.74289822E-1	0.00000000E+0
184	12/06/2023	17:25:49.866	0.00000000E+0	-4.19403386E+2	5.00000000E+0	2.86023982E-1	0.00000000E+0
185	12/06/2023	17:25:51.617	0.00000000E+0	-4.13120201E+2	5.00000000E+0	2.89441328E-1	0.00000000E+0
186	12/06/2023	17:25:53.637	0.00000000E+0	-4.06837016E+2	5.00000000E+0	4.15852518E-1	0.00000000E+0
187	12/06/2023	17:25:55.549	0.00000000E+0	-4.00553830E+2	5.00000000E+0	4.54625501E-1	0.00000000E+0
188	12/06/2023	17:25:57.467	0.00000000E+0	-3.94270645E+2	5.00000000E+0	4.25842571E-1	0.00000000E+0
189	12/06/2023	17:25:59.474	0.00000000E+0	-3.87987460E+2	5.00000000E+0	3.88813147E-1	0.00000000E+0
190	12/06/2023	17:26:01.378	0.00000000E+0	-3.81704274E+2	5.00000000E+0	4.31635045E-1	0.00000000E+0
191	12/06/2023	17:26:03.333	0.00000000E+0	-3.75421089E+2	5.00000000E+0	6.67393062E-1	0.00000000E+0
192	12/06/2023	17:26:05.222	0.00000000E+0	-3.69137904E+2	5.00000000E+0	2.98923016E-1	0.00000000E+0
193	12/06/2023	17:26:07.135	0.00000000E+0	-3.62854718E+2	5.00000000E+0	3.08864480E-1	0.00000000E+0
194	12/06/2023	17:26:09.132	0.00000000E+0	-3.56571533E+2	5.00000000E+0	3.63628258E-1	0.00000000E+0
195	12/06/2023	17:26:10.946	0.00000000E+0	-3.50288348E+2	5.00000000E+0	4.79813604E-1	0.00000000E+0
196	12/06/2023	17:26:12.689	0.00000000E+0	-3.44005163E+2	5.00000000E+0	2.85376876E-1	0.00000000E+0
197	12/06/2023	17:26:14.587	0.00000000E+0	-3.37721977E+2	5.00000000E+0	5.03302786E-1	0.00000000E+0
198	12/06/2023	17:26:16.434	0.00000000E+0	-3.31438792E+2	5.00000000E+0	3.33202350E-1	0.00000000E+0
199	12/06/2023	17:26:18.453	0.00000000E+0	-3.25155607E+2	5.00000000E+0	5.63611387E-1	0.00000000E+0
200	12/06/2023	17:26:20.449	0.00000000E+0	-3.18872421E+2	5.00000000E+0	5.52622418E-1	0.00000000E+0
201	12/06/2023	17:26:22.374	0.00000000E+0	-3.12589236E+2	5.00000000E+0	4.57527822E-1	0.00000000E+0
202	12/06/2023	17:26:24.385	0.00000000E+0	-3.06306051E+2	5.00000000E+0	2.98738262E-1	0.00000000E+0
203	12/06/2023	17:26:26.300	0.00000000E+0	-3.00022865E+2	5.00000000E+0	5.48505100E-1	0.00000000E+0
204	12/06/2023	17:26:28.305	0.00000000E+0	-2.93739680E+2	5.00000000E+0	3.40651221E-1	0.00000000E+0
205	12/06/2023	17:26:30.227	0.00000000E+0	-2.87456495E+2	5.00000000E+0	5.98111589E-1	0.00000000E+0
206	12/06/2023	17:26:32.011	0.00000000E+0	-2.81173309E+2	5.00000000E+0	3.38646724E-1	0.00000000E+0
207	12/06/2023	17:26:33.921	0.00000000E+0	-2.74890124E+2	5.00000000E+0	4.09531616E-1	0.00000000E+0
208	12/06/2023	17:26:35.846	0.00000000E+0	-2.68606939E+2	5.00000000E+0	4.04870282E-1	0.00000000E+0
209	12/06/2023	17:26:37.595	0.00000000E+0	-2.62323754E+2	5.00000000E+0	3.62813576E-1	0.00000000E+0
210	12/06/2023	17:26:39.616	0.00000000E+0	-2.56040568E+2	5.00000000E+0	4.56260343E-1	0.00000000E+0
211	12/06/2023	17:26:41.506	0.00000000E+0	-2.49757383E+2	5.00000000E+0	5.37450918E-1	0.00000000E+0
212	12/06/2023	17:26:43.455	0.00000000E+0	-2.43474198E+2	5.00000000E+0	6.49413218E-1	0.00000000E+0
213	12/06/2023	17:26:45.349	0.00000000E+0	-2.37191012E+2	5.00000000E+0	6.28405969E-1	0.00000000E+0
214	12/06/2023	17:26:47.358	0.00000000E+0	-2.30907827E+2	5.00000000E+0	5.68759868E-1	0.00000000E+0
215	12/06/2023	17:26:49.383	0.00000000E+0	-2.24624642E+2	5.00000000E+0	3.26220388E-1	0.00000000E+0
216	12/06/2023	17:26:51.282	0.00000000E+0	-2.18341456E+2	5.00000000E+0	4.87138794E-1	0.00000000E+0
217	12/06/2023	17:26:53.232	0.00000000E+0	-2.12058271E+2	5.00000000E+0	4.97082834E-1	0.00000000E+0
218	12/06/2023	17:26:55.214	0.00000000E+0	-2.05775086E+2	5.00000000E+0	5.30522725E-1	0.00000000E+0
219	12/06/2023	17:26:57.095	0.00000000E+0	-1.99491900E+2	5.00000000E+0	3.18734714E-1	0.00000000E+0
220	12/06/2023	17:26:59.011	0.00000000E+0	-1.93208715E+2	5.00000000E+0	5.25231459E-1	0.00000000E+0
221	12/06/2023	17:27:00.732	0.00000000E+0	-1.86925530E+2	5.00000000E+0	5.88653313E-1	0.00000000E+0
222	12/06/2023	17:27:02.608	0.00000000E+0	-1.80642345E+2	5.00000000E+0	5.19167037E-1	0.00000000E+0
223	12/06/2023	17:27:04.610	0.00000000E+0	-1.74359159E+2	5.00000000E+0	3.37680435E-1	0.00000000E+0
224	12/06/2023	17:27:06.506	0.00000000E+0	-1.68075974E+2	5.00000000E+0	3.93054839E-1	0.00000000E+0
225	12/06/2023	17:27:08.484	0.00000000E+0	-1.61792789E+2	5.00000000E+0	4.84440085E-1	0.00000000E+0
226	12/06/2023	17:27:10.427	0.00000000E+0	-1.55509603E+2	5.00000000E+0	6.74399350E-1	0.00000000E+0
227	12/06/2023	17:27:12.342	0.00000000E+0	-1.49226418E+2	5.00000000E+0	2.98053394E-1	0.00000000E+0
228	12/06/2023	17:27:14.354	0.00000000E+0	-1.42943233E+2	5.00000000E+0	3.80837085E-1	0.00000000E+0
229	12/06/2023	17:27:16.215	0.00000000E+0	-1.36660047E+2	5.00000000E+0	3.57365191E-1	0.00000000E+0
230	12/06/2023	17:27:18.110	0.00000000E+0	-1.30376862E+2	5.00000000E+0	6.66430233E-1	0.00000000E+0
231	12/06/2023	17:27:20.143	0.00000000E+0	-1.24093677E+2	5.00000000E+0	3.33405067E-1	0.00000000E+0
232	12/06/2023	17:27:21.879	0.00000000E+0	-1.17810492E+2	5.00000000E+0	3.22556900E-1	0.00000000E+0
233	12/06/2023	17:27:23.712	0.00000000E+0	-1.11527306E+2	5.00000000E+0	6.08606446E-1	0.00000000E+0
234	12/06/2023	17:27:25.598	0.00000000E+0	-1.05244121E+2	5.00000000E+0	6.69095957E-1	0.00000000E+0
235	12/06/2023	17:27:27.480	0.00000000E+0	-9.89609356E+1	5.00000000E+0	3.30811152E-1	0.00000000E+0
236	12/06/2023	17:27:29.469	0.00000000E+0	-9.26777503E+1	5.00000000E+0	3.22214825E-1	0.00000000E+0
237	12/06/2023	17:27:31.391	0.00000000E+0	-8.63945650E+1	5.00000000E+0	5.56935275E-1	0.00000000E+0
238	12/06/2023	17:27:33.412	0.00000000E+0	-8.01113797E+1	5.00000000E+0	6.64833731E-1	0.00000000E+0
239	12/06/2023	17:27:35.346	0.00000000E+0	-7.38281943E+1	5.00000000E+0	5.65137157E-1	0.00000000E+0
240	12/06/2023	17:27:37.251	0.00000000E+0	-6.75450090E+1	5.00000000E+0	3.30867387E-1	0.00000000E+0
241	12/06/2023	17:27:39.244	0.00000000E+0	-6.12618237E+1	5.00000000E+0	4.20375829E-1	0.00000000E+0
242	12/06/2023	17:27:41.120	0.00000000E+0	-5.49786384E+1	5.00000000E+0	6.44505059E-1	0.00000000E+0
243	12/06/2023	17:27:42.941	0.00000000E+0	-4.86954531E+1	5.00000000E+0	5.56893206E-1	0.00000000E+0
244	12/06/2023	17:27:44.774	0.00000000E+0	-4.24122678E+1	5.00000000E+0	2.96071738E-1	0.00000000E+0
245	12/06/2023	17:27:46.437	0.00000000E+0	-3.61290825E+1	5.00000000E+0	5.69453015E-1	0.00000000E+0
246	12/06/2023	17:27:48.454	0.00000000E+0	-2.98458972E+1	5.00000000E+0	5.31544726E-1	0.00000000E+0
247	12/06/2023	17:27:50.369	0.00000000E+0	-2.35627119E+1	5.00000000E+0	6.30235511E-1	0.00000000E+0
248	12/06/2023	17:27:52.291	0.00000000E+0	-1.72795266E+1	5.00000000E+0	3.40119948E-1	0.00000000E+0
249	12/06/2023	17:27:54.284	0.00000000E+0	-1.09963413E+1	5.00000000E+0	5.55998507E-1	0.00000000E+0
250	12/06/2023	17:27:56.132	0.00000000E+0	-4.71315597E+0	5.00000000E+0	4.41383300E-1	0.00000000E+0
251	12/06/2023	17:27:58.054	0.00000000E+0	1.57002934E+0	5.00000000E+0	6.28948887E-1	0.00000000E+0
252	12/06/2023	17:27:59.973	0.00000000E+0	7.85321464E+0	5.00000000E+0	3.00541176E-1	0.00000000E+0
253	12/06/2023	17:28:01.823	0.00000000E+0	1.41364000E+1	5.00000000E+0	4.53358037E-1	0.00000000E+0
254	12/06/2023	17:28:03.810	0.00000000E+0	2.04195853E+1	5.00000000E+0	4.85910883E-1	0.00000000E+0
255	12/06/2023	17:28:05.647	0.00000000E+0	2.67027706E+1	5.00000000E+0	4.55900774E-1	0.00000000E+0
256	12/06/2023	17:28:07.317	0.00000000E+0	3.29859559E+1	5.00000000E+0	3.73616897E-1	0.00000000E+0
257	12/06/2023	17:28:09.166	0.00000000E+0	3.92691412E+1	5.00000000E+0	3.26350540E-1	0.00000000E+0
258	12/06/2023	17:28:11.091	0.00000000E+0	4.55523265E+1	5.00000000E+0	4.40294886E-1	0.00000000E+0
259	12/06/2023	17:28:13.093	0.00000000E+0	5.18355118E+1	5.00000000E+0	6.74525726E-1	0.00000000E+0
260	12/06/2023	17:28:15.014	0.00000000E+0	5.81186971E+1	5.00000000E+0	2.93217231E-1	0.00000000E+0
261	12/06/2023	17:28:16.935	0.00000000E+0	6.44018824E+1	5.00000000E+0	5.35723413E-1	0.00000000E+0
262	12/06/2023	17:28:18.875	0.00000000E+0	7.06850677E+1	5.00000000E+0	6.08834698E-1	0.00000000E+0
263	12/06/2023	17:28:20.813	0.00000000E+0	7.69682530E+1	5.00000000E+0	6.35691365E-1	0.00000000E+0
264	12/06/2023	17:28:22.732	0.00000000E+0	8.32514383E+1	5.00000000E+0	3.20992653E-1	0.00000000E+0
265	12/06/2023	17:28:24.597	0.00000000E+0	8.95346236E+1	5.00000000E+0	6.78410196E-1	0.00000000E+0
266	12/06/2023	17:28:26.484	0.00000000E+0	9.58178089E+1	5.00000000E+0	2.86190546E-1	0.00000000E+0
267	12/06/2023	17:28:28.349	0.00000000E+0	1.02100994E+2	5.00000000E+0	6.31568943E-1	0.00000000E+0
268	12/06/2023	17:28:30.090	0.00000000E+0	1.08384180E+2	5.00000000E+0	2.95254821E-1	0.00000000E+0
269	12/06/2023	17:28:31.828	0.00000000E+0	1.14667365E+2	5.00000000E+0	5.38061412E-1	0.00000000E+0
270	12/06/2023	17:28:33.836	0.00000000E+0	1.20950550E+2	5.00000000E+0	3.81070691E-1	0.00000000E+0
271	12/06/2023	17:28:35.757	0.00000000E+0	1.27233735E+2	5.00000000E+0	4.97420233E-1	0.00000000E+0
272	12/06/2023	17:28:37.685	0.00000000E+0	1.33516921E+2	5.00000000E+0	4.03517531E-1	0.00000000E+0
273	12/06/2023	17:28:39.600	0.00000000E+0	1.39800106E+2	5.00000000E+0	4.97456021E-1	0.00000000E+0
274	12/06/2023	17:28:41.475	0.00000000E+0	1.46083291E+2	5.00000000E+0	3.72052238E-1	0.00000000E+0
275	12/06/2023	17:28:43.442	0.00000000E+0	1.52366477E+2	5.00000000E+0	4.77766647E-1	0.00000000E+0
276	12/06/2023	17:28:45.364	0.00000000E+0	1.58649662E+2	5.00000000E+0	6.54371161E-1	0.00000000E+0
277	12/06/2023	17:28:47.282	0.00000000E+0	1.64932847E+2	5.00000000E+0	3.42761083E-1	0.00000000E+0
278	12/06/2023	17:28:49.308	0.00000000E+0	1.71216033E+2	5.00000000E+0	5.62259685E-1	0.00000000E+0
279	12/06/2023	17:28:51.067	0.00000000E+0	1.77499218E+2	5.00000000E+0	5.05621831E-1	0.00000000E+0
280	12/06/2023	17:28:52.986	0.00000000E+0	1.83782403E+2	5.00000000E+0	4.07061883E-1	0.00000000E+0
281	12/06/2023	17:28:54.740	0.00000000E+0	1.90065589E+2	5.00000000E+0	6.27662976E-1	0.00000000E+0
282	12/06/2023	17:28:56.638	0.00000000E+0	1.96348774E+2	5.00000000E+0	3.44545861E-1	0.00000000E+0
283	12/06/2023	17:28:58.608	0.00000000E+0	2.02631959E+2	5.00000000E+0	6.13706498E-1	0.00000000E+0
284	12/06/2023	17:29:00.506	0.00000000E+0	2.08915144E+2	5.00000000E+0	3.09765252E-1	0.00000000E+0
285	12/06/2023	17:29:02.396	0.00000000E+0	2.15198330E+2	5.00000000E+0	3.03550805E-1	0.00000000E+0
286	12/06/2023	17:29:04.367	0.00000000E+0	2.21481515E+2	5.00000000E+0	4.22056836E-1	0.00000000E+0
287	12/06/2023	17:29:06.270	0.00000000E+0	2.27764700E+2	5.00000000E+0	4.80436182E-1	0.00000000E+0
288	12/06/2023	17:29:08.337	0.00000000E+0	2.34047886E+2	5.00000000E+0	4.33582973E-1	0.00000000E+0
289	12/06/2023	17:29:10.121	0.00000000E+0	2.40331071E+2	5.00000000E+0	5.24334704E-1	0.00000000E+0
290	12/06/2023	17:29:11.959	0.00000000E+0	2.46614256E+2	5.00000000E+0	5.04810186E-1	0.00000000E+0
291	12/06/2023	17:29:14.132	0.00000000E+0	2.52897442E+2	5.00000000E+0	3.66368317E-1	0.00000000E+0
292	12/06/2023	17:29:15.991	0.00000000E+0	2.59180627E+2	5.00000000E+0	4.34886565E-1	0.00000000E+0
293	12/06/2023	17:29:17.728	0.00000000E+0	2.65463812E+2	5.00000000E+0	6.41565277E-1	0.00000000E+0
294	12/06/2023	17:29:19.645	0.00000000E+0	2.71746998E+2	5.00000000E+0	6.54684375E-1	0.00000000E+0
295	12/06/2023	17:29:21.626	0.00000000E+0	2.78030183E+2	5.00000000E+0	3.19359852E-1	0.00000000E+0
296	12/06/2023	17:29:23.592	0.00000000E+0	2.84313368E+2	5.00000000E+0	3.37323685E-1	0.00000000E+0
297	12/06/2023	17:29:25.507	0.00000000E+0	2.90596553E+2	5.00000000E+0	3.40677429E-1	0.00000000E+0
298	12/06/2023	17:29:27.427	0.00000000E+0	2.96879739E+2	5.00000000E+0	6.02104939E-1	0.00000000E+0
299	12/06/2023	17:29:29.453	0.00000000E+0	3.03162924E+2	5.00000000E+0	3.86919010E-1	0.00000000E+0
300	12/06/2023	17:29:31.357	0.00000000E+0	3.09446109E+2	5.00000000E+0	5.41657080E-1	0.00000000E+0
301	12/06/2023	17:29:33.280	0.00000000E+0	3.15729295E+2	5.00000000E+0	3.18657401E-1	0.00000000E+0
302	12/06/2023	17:29:35.172	0.00000000E+0	3.22012480E+2	5.00000000E+0	3.07267476E-1	0.00000000E+0
303	12/06/2023	17:29:37.072	0.00000000E+0	3.28295665E+2	5.00000000E+0	3.69523070E-1	0.00000000E+0
304	12/06/2023	17:29:38.987	0.00000000E+0	3.34578851E+2	5.00000000E+0	6.83651782E-1	0.00000000E+0
305	12/06/2023	17:29:40.874	0.00000000E+0	3.40862036E+2	5.00000000E+0	6.10804314E-1	0.00000000E+0
306	12/06/2023	17:29:42.574	0.00000000E+0	3.47145221E+2	5.00000000E+0	3.27093044E-1	0.00000000E+0
307	12/06/2023	17:29:44.444	0.00000000E+0	3.53428407E+2	5.00000000E+0	4.16525217E-1	0.00000000E+0
308	12/06/2023	17:29:46.321	0.00000000E+0	3.59711592E+2	5.00000000E+0	4.51187030E-1	0.00000000E+0
309	12/06/2023	17:29:48.321	0.00000000E+0	3.65994777E+2	5.00000000E+0	4.89980295E-1	0.00000000E+0
310	12/06/2023	17:29:50.237	0.00000000E+0	3.72277962E+2	5.00000000E+0	6.37509898E-1	0.00000000E+0
311	12/06/2023	17:29:52.141	0.00000000E+0	3.78561148E+2	5.00000000E+0	2.80396389E-1	0.00000000E+0
312	12/06/2023	17:29:54.194	0.00000000E+0	3.84844333E+2	5.00000000E+0	5.31497426E-1	0.00000000E+0
313	12/06/2023	17:29:56.082	0.00000000E+0	3.91127518E+2	5.00000000E+0	3.34329415E-1	0.00000000E+0
314	12/06/2023	17:29:58.009	0.00000000E+0	3.97410704E+2	5.00000000E+0	4.89608960E-1	0.00000000E+0
315	12/06/2023	17:29:59.776	0.00000000E+0	4.03693889E+2	5.00000000E+0	4.91075798E-1	0.00000000E+0
316	12/06/2023	17:30:01.678	0.00000000E+0	4.09977074E+2	5.00000000E+0	4.31039186E-1	0.00000000E+0
317	12/06/2023	17:30:03.515	0.00000000E+0	4.16260260E+2	5.00000000E+0	2.85434544E-1	0.00000000E+0
318	12/06/2023	17:30:05.250	0.00000000E+0	4.22543445E+2	5.00000000E+0	5.37190958E-1	0.00000000E+0
319	12/06/2023	17:30:07.158	0.00000000E+0	4.28826630E+2	5.00000000E+0	6.42259257E-1	0.00000000E+0
320	12/06/2023	17:30:09.237	0.00000000E+0	4.35109816E+2	5.00000000E+0	3.71064293E-1	0.00000000E+0
321	12/06/2023	17:30:11.338	0.00000000E+0	4.41393001E+2	5.00000000E+0	6.63807357E-1	0.00000000E+0
322	12/06/2023	17:30:13.289	0.00000000E+0	4.47676186E+2	5.00000000E+0	5.92145517E-1	0.00000000E+0
323	12/06/2023	17:30:15.079	0.00000000E+0	4.53959371E+2	5.00000000E+0	4.96530593E-1	0.00000000E+0
324	12/06/2023	17:30:16.948	0.00000000E+0	4.60242557E+2	5.00000000E+0	3.49383157E-1	0.00000000E+0
325	12/06/2023	17:30:18.926	0.00000000E+0	4.66525742E+2	5.00000000E+0	4.56632566E-1	0.00000000E+0
326	12/06/2023	17:30:20.859	0.00000000E+0	4.72808927E+2	5.00000000E+0	3.13248276E-1	0.00000000E+0
327	12/06/2023	17:30:22.779	0.00000000E+0	4.79092113E+2	5.00000000E+0	3.88343934E-1	0.00000000E+0
328	12/06/2023	17:30:24.729	0.00000000E+0	4.85375298E+2	5.00000000E+0	3.47258692E-1	0.00000000E+0
329	12/06/2023	17:30:26.445	0.00000000E+0	4.91658483E+2	5.00000000E+0	4.14573726E-1	0.00000000E+0
330	12/06/2023	17:30:28.190	0.00000000E+0	4.97941669E+2	5.00000000E+0	4.67026921E-1	0.00000000E+0
331	12/06/2023	17:30:30.125	0.00000000E+0	5.04224854E+2	5.00000000E+0	6.10125297E-1	0.00000000E+0
332	12/06/2023	17:30:32.049	0.00000000E+0	5.10508039E+2	5.00000000E+0	3.20205203E-1	0.00000000E+0
333	12/06/2023	17:30:34.054	0.00000000E+0	5.16791225E+2	5.00000000E+0	5.26053751E-1	0.00000000E+0
334	12/06/2023	17:30:35.976	0.00000000E+0	5.23074410E+2	5.00000000E+0	4.96263958E-1	0.00000000E+0
335	12/06/2023	17:30:37.926	0.00000000E+0	5.29357595E+2	5.00000000E+0	4.58332371E-1	0.00000000E+0
336	12/06/2023	17:30:39.903	0.00000000E+0	5.35640780E+2	5.00000000E+0	4.27850806E-1	0.00000000E+0
337	12/06/2023	17:30:41.885	0.00000000E+0	5.41923966E+2	5.00000000E+0	3.06414510E-1	0.00000000E+0
338	12/06/2023	17:30:43.907	0.00000000E+0	5.48207151E+2	5.00000000E+0	5.85702569E-1	0.00000000E+0
339	12/06/2023	17:30:45.680	0.00000000E+0	5.54490336E+2	5.00000000E+0	2.89481970E-1	0.00000000E+0
340	12/06/2023	17:30:47.514	0.00000000E+0	5.60773522E+2	5.00000000E+0	3.58937475E-1	0.00000000E+0
341	12/06/2023	17:30:49.369	0.00000000E+0	5.67056707E+2	5.00000000E+0	4.57540075E-1	0.00000000E+0
342	12/06/2023	17:30:51.176	0.00000000E+0	5.73339892E+2	5.00000000E+0	5.48881557E-1	0.00000000E+0
343	12/06/2023	17:30:53.182	0.00000000E+0	5.79623078E+2	5.00000000E+0	3.80516619E-1	0.00000000E+0
344	12/06/2023	17:30:55.097	0.00000000E+0	5.85906263E+2	5.00000000E+0	3.51744815E-1	0.00000000E+0
345	12/06/2023	17:30:56.953	0.00000000E+0	5.92189448E+2	5.00000000E+0	6.60088932E-1	0.00000000E+0
346	12/06/2023	17:30:58.901	0.00000000E+0	5.98472634E+2	5.00000000E+0	3.75743163E-1	0.00000000E+0
347	12/06/2023	17:31:00.789	0.00000000E+0	6.04755819E+2	5.00000000E+0	4.43655393E-1	0.00000000E+0
348	12/06/2023	17:31:02.744	0.00000000E+0	6.11039004E+2	5.00000000E+0	6.16244981E-1	0.00000000E+0
349	12/06/2023	17:31:04.695	0.00000000E+0	6.17322189E+2	5.00000000E+0	5.28826263E-1	0.00000000E+0
350	12/06/2023	17:31:06.549	0.00000000E+0	6.23605375E+2	5.00000000E+0	4.36218612E-1	0.00000000E+0
351	12/06/2023	17:31:08.498	0.00000000E+0	6.29888560E+2	5.00000000E+0	6.01852069E-1	0.00000000E+0
352	12/06/2023	17:31:10.300	0.00000000E+0	6.36171745E+2	5.00000000E+0	4.83772678E-1	0.00000000E+0
353	12/06/2023	17:31:12.026	0.00000000E+0	6.42454931E+2	5.00000000E+0	3.54726662E-1	0.00000000E+0
354	12/06/2023	17:31:13.983	0.00000000E+0	6.48738116E+2	5.00000000E+0	5.69152205E-1	0.00000000E+0
355	12/06/2023	17:31:15.871	0.00000000E+0	6.55021301E+2	5.00000000E+0	6.09334941E-1	0.00000000E+0
356	12/06/2023	17:31:17.793	0.00000000E+0	6.61304487E+2	5.00000000E+0	6.29592001E-1	0.00000000E+0
357	12/06/2023	17:31:19.682	0.00000000E+0	6.67587672E+2	5.00000000E+0	3.28288632E-1	0.00000000E+0
358	12/06/2023	17:31:21.757	0.00000000E+0	6.73870857E+2	5.00000000E+0	6.68532044E-1	0.00000000E+0
359	12/06/2023	17:31:23.707	0.00000000E+0	6.80154043E+2	5.00000000E+0	5.63489605E-1	0.00000000E+0
360	12/06/2023	17:31:25.617	0.00000000E+0	6.86437228E+2	5.00000000E+0	3.37665901E-1	0.00000000E+0
361	12/06/2023	17:31:27.561	0.00000000E+0	6.92720413E+2	5.00000000E+0	4.68254665E-1	0.00000000E+0
362	12/06/2023	17:31:29.421	0.00000000E+0	6.99003598E+2	5.00000000E+0	3.48234712E-1	0.00000000E+0
363	12/06/2023	17:31:31.240	0.00000000E+0	7.05286784E+2	5.00000000E+0	5.90486735E-1	0.00000000E+0
364	12/06/2023	17:31:33.014	0.00000000E+0	7.11569969E+2	5.00000000E+0	4.66346840E-1	0.00000000E+0
365	12/06/2023	17:31:34.802	0.00000000E+0	7.17853154E+2	5.00000000E+0	6.00595949E-1	0.00000000E+0
366	12/06/2023	17:31:36.560	0.00000000E+0	7.24136340E+2	5.00000000E+0	6.46109821E-1	0.00000000E+0
367	12/06/2023	17:31:38.569	0.00000000E+0	7.30419525E+2	5.00000000E+0	3.32686858E-1	0.00000000E+0
368	12/06/2023	17:31:40.490	0.00000000E+0	7.36702710E+2	5.00000000E+0	6.18711371E-1	0.00000000E+0
369	12/06/2023	17:31:42.500	0.00000000E+0	7.42985896E+2	5.00000000E+0	4.78768054E-1	0.00000000E+0
370	12/06/2023	17:31:44.415	0.00000000E+0	7.49269081E+2	5.00000000E+0	4.75553076E-1	0.00000000E+0
371	12/06/2023	17:31:46.325	0.00000000E+0	7.55552266E+2	5.00000000E+0	6.33073021E-1	0.00000000E+0
372	12/06/2023	17:31:48.374	0.00000000E+0	7.61835452E+2	5.00000000E+0	3.40776224E-1	0.00000000E+0
373	12/06/2023	17:31:50.262	0.00000000E+0	7.68118637E+2	5.00000000E+0	4.91554594E-1	0.00000000E+0
374	12/06/2023	17:31:52.247	0.00000000E+0	7.74401822E+2	5.00000000E+0	6.37882235E-1	0.00000000E+0
375	12/06/2023	17:31:54.182	0.00000000E+0	7.80685007E+2	5.00000000E+0	5.87048278E-1	0.00000000E+0
376	12/06/2023	17:31:55.955	0.00000000E+0	7.86968193E+2	5.00000000E+0	5.72510487E-1	0.00000000E+0
377	12/06/2023	17:31:57.777	0.00000000E+0	7.93251378E+2	5.00000000E+0	5.96911197E-1	0.00000000E+0
378	12/06/2023	17:31:59.522	0.00000000E+0	7.99534563E+2	5.00000000E+0	6.05029836E-1	0.00000000E+0
379	12/06/2023	17:32:01.442	0.00000000E+0	8.05817749E+2	5.00000000E+0	3.07985956E-1	0.00000000E+0
380	12/06/2023	17:32:03.403	0.00000000E+0	8.12100934E+2	5.00000000E+0	3.31606441E-1	0.00000000E+0
381	12/06/2023	17:32:05.303	0.00000000E+0	8.18384119E+2	5.00000000E+0	3.10312087E-1	0.00000000E+0
382	12/06/2023	17:32:07.311	0.00000000E+0	8.24667305E+2	5.00000000E+0	6.50804107E-1	0.00000000E+0
383	12/06/2023	17:32:09.232	0.00000000E+0	8.30950490E+2	5.00000000E+0	6.28953716E-1	0.00000000E+0
384	12/06/2023	17:32:11.078	0.00000000E+0	8.37233675E+2	5.00000000E+0	3.05451546E-1	0.00000000E+0
385	12/06/2023	17:32:13.123	0.00000000E+0	8.43516860E+2	5.00000000E+0	5.20654679E-1	0.00000000E+0
386	12/06/2023	17:32:14.922	0.00000000E+0	8.49800046E+2	5.00000000E+0	4.71803009E-1	0.00000000E+0
387	12/06/2023	17:32:16.827	0.00000000E+0	8.56083231E+2	5.00000000E+0	5.50962427E-1	0.00000000E+0
388	12/06/2023	17:32:18.701	0.00000000E+0	8.62366416E+2	5.00000000E+0	5.41258002E-1	0.00000000E+0
389	12/06/2023	17:32:20.379	0.00000000E+0	8.68649602E+2	5.00000000E+0	3.19569669E-1	0.00000000E+0
390	12/06/2023	17:32:22.346	0.00000000E+0	8.74932787E+2	5.00000000E+0	2.96309607E-1	0.00000000E+0
391	12/06/2023	17:32:24.194	0.00000000E+0	8.81215972E+2	5.00000000E+0	2.95388208E-1	0.00000000E+0
392	12/06/2023	17:32:26.048	0.00000000E+0	8.87499158E+2	5.00000000E+0	3.97909306E-1	0.00000000E+0
393	12/06/2023	17:32:28.072	0.00000000E+0	8.93782343E+2	5.00000000E+0	5.16527106E-1	0.00000000E+0
394	12/06/2023	17:32:29.975	0.00000000E+0	9.00065528E+2	5.00000000E+0	4.04625124E-1	0.00000000E+0
395	12/06/2023	17:32:31.844	0.00000000E+0	9.06348714E+2	5.00000000E+0	6.46965216E-1	0.00000000E+0
396	12/06/2023	17:32:33.819	0.00000000E+0	9.12631899E+2	5.00000000E+0	6.59313108E-1	0.00000000E+0
397	12/06/2023	17:32:35.803	0.00000000E+0	9.18915084E+2	5.00000000E+0	4.06777274E-1	0.00000000E+0
398	12/06/2023	17:32:37.836	0.00000000E+0	9.25198269E+2	5.00000000E+0	4.45211601E-1	0.00000000E+0
399	12/06/2023	17:32:39.754	0.00000000E+0	9.31481455E+2	5.00000000E+0	6.42205171E-1	0.00000000E+0
400	12/06/2023	17:32:41.532	0.00000000E+0	9.37764640E+2	5.00000000E+0	3.01110417E-1	0.00000000E+0
401	12/06/2023	17:32:43.352	0.00000000E+0	9.44047825E+2	5.00000000E+0	3.19612112E-1	0.00000000E+0
402	12/06/2023	17:32:45.104	0.00000000E+0	9.50331011E+2	5.00000000E+0	5.32454350E-1	0.00000000E+0
403	12/06/2023	17:32:47.044	0.00000000E+0	9.56614196E+2	5.00000000E+0	4.60168046E-1	0.00000000E+0
404	12/06/2023	17:32:48.981	0.00000000E+0	9.62897381E+2	5.00000000E+0	3.16325613E-1	0.00000000E+0
405	12/06/2023	17:32:50.812	0.00000000E+0	9.69180567E+2	5.00000000E+0	3.10700062E-1	0.00000000E+0
406	12/06/2023	17:32:52.839	0.00000000E+0	9.75463752E+2	5.00000000E+0	5.60023905E-1	0.00000000E+0
407	12/06/2023	17:32:54.742	0.00000000E+0	9.81746937E+2	5.00000000E+0	3.08009982E-1	0.00000000E+0
408	12/06/2023	17:32:56.655	0.00000000E+0	9.88030123E+2	5.00000000E+0	3.21980699E-1	0.00000000E+0
409	12/06/2023	17:32:58.649	0.00000000E+0	9.94313308E+2	5.00000000E+0	5.96857128E-1	0.00000000E+0
410	12/06/2023	17:33:00.574	0.00000000E+0	1.00059649E+3	5.00000000E+0	3.51586731E-1	0.00000000E+0
411	12/06/2023	17:33:02.432	0.00000000E+0	1.00687968E+3	5.00000000E+0	4.19470567E-1	0.00000000E+0
412	12/06/2023	17:33:04.421	0.00000000E+0	1.01316286E+3	5.00000000E+0	5.11541662E-1	0.00000000E+0
413	12/06/2023	17:33:06.159	0.00000000E+0	1.01944605E+3	5.00000000E+0	6.52293611E-1	0.00000000E+0
414	12/06/2023	17:33:07.996	0.00000000E+0	1.02572923E+3	5.00000000E+0	6.57930788E-1	0.00000000E+0
415	12/06/2023	17:33:09.878	0.00000000E+0	1.03201242E+3	5.00000000E+0	3.35950284E-1	0.00000000E+0
416	12/06/2023	17:33:11.768	0.00000000E+0	1.03829561E+3	5.00000000E+0	3.94632021E-1	0.00000000E+0
417	12/06/2023	17:33:13.654	0.00000000E+0	1.04457879E+3	5.00000000E+0	5.58956927E-1	0.00000000E+0
418	12/06/2023	17:33:15.562	0.00000000E+0	1.05086198E+3	5.00000000E+0	6.52261307E-1	0.00000000E+0
419	12/06/2023	17:33:17.621	0.00000000E+0	1.05714516E+3	5.00000000E+0	5.26752756E-1	0.00000000E+0
420	12/06/2023	17:33:19.511	0.00000000E+0	1.06342835E+3	5.00000000E+0	4.82808018E-1	0.00000000E+0
421	12/06/2023	17:33:21.392	0.00000000E+0	1.06971153E+3	5.00000000E+0	5.63284892E-1	0.00000000E+0
422	12/06/2023	17:33:23.430	0.00000000E+0	1.07599472E+3	5.00000000E+0	6.02831533E-1	0.00000000E+0
423	12/06/2023	17:33:25.189	0.00000000E+0	1.08227790E+3	5.00000000E+0	6.21805787E-1	0.00000000E+0
424	12/06/2023	17:33:27.030	0.00000000E+0	1.08856109E+3	5.00000000E+0	3.27747152E-1	0.00000000E+0
425	12/06/2023	17:33:28.838	0.00000000E+0	1.09484427E+3	5.00000000E+0	3.24837253E-1	0.00000000E+0
426	12/06/2023	17:33:30.576	0.00000000E+0	1.10112746E+3	5.00000000E+0	4.33864349E-1	0.00000000E+0
427	12/06/2023	17:33:32.603	0.00000000E+0	1.10741064E+3	5.00000000E+0	3.10457308E-1	0.00000000E+0
428	12/06/2023	17:33:34.506	0.00000000E+0	1.11369383E+3	5.00000000E+0	4.62894004E-1	0.00000000E+0
429	12/06/2023	17:33:36.437	0.00000000E+0	1.11997701E+3	5.00000000E+0	3.96361455E-1	0.00000000E+0
430	12/06/2023	17:33:38.436	0.00000000E+0	1.12626020E+3	5.00000000E+0	3.75619197E-1	0.00000000E+0
431	12/06/2023	17:33:40.347	0.00000000E+0	1.13254338E+3	5.00000000E+0	5.91322638E-1	0.00000000E+0
432	12/06/2023	17:33:42.379	0.00000000E+0	1.13882657E+3	5.00000000E+0	6.07445421E-1	0.00000000E+0
433	12/06/2023	17:33:44.291	0.00000000E+0	1.14510976E+3	5.00000000E+0	3.07163317E-1	0.00000000E+0
434	12/06/2023	17:33:46.122	0.00000000E+0	1.15139294E+3	5.00000000E+0	3.67361734E-1	0.00000000E+0
435	12/06/2023	17:33:48.064	0.00000000E+0	1.15767613E+3	5.00000000E+0	3.73274967E-1	0.00000000E+0
436	12/06/2023	17:33:49.902	0.00000000E+0	1.16395931E+3	5.00000000E+0	4.67818153E-1	0.00000000E+0
437	12/06/2023	17:33:51.758	0.00000000E+0	1.17024250E+3	5.00000000E+0	4.08345297E-1	0.00000000E+0
438	12/06/2023	17:33:53.649	0.00000000E+0	1.17652568E+3	5.00000000E+0	5.65523606E-1	0.00000000E+0
439	12/06/2023	17:33:55.536	0.00000000E+0	1.18280887E+3	5.00000000E+0	6.66658607E-1	0.00000000E+0
440	12/06/2023	17:33:57.504	0.00000000E+0	1.18909205E+3	5.00000000E+0	5.34983950E-1	0.00000000E+0
441	12/06/2023	17:33:59.409	0.00000000E+0	1.19537524E+3	5.00000000E+0	6.34432994E-1	0.00000000E+0
442	12/06/2023	17:34:01.322	0.00000000E+0	1.20165842E+3	5.00000000E+0	4.68251793E-1	0.00000000E+0
443	12/06/2023	17:34:03.304	0.00000000E+0	1.20794161E+3	5.00000000E+0	5.43288834E-1	0.00000000E+0
444	12/06/2023	17:34:05.219	0.00000000E+0	1.21422479E+3	5.00000000E+0	4.11282769E-1	0.00000000E+0
445	12/06/2023	17:34:07.219	0.00000000E+0	1.22050798E+3	5.00000000E+0	6.47941006E-1	0.00000000E+0
446	12/06/2023	17:34:09.080	0.00000000E+0	1.22679116E+3	5.00000000E+0	3.52470930E-1	0.00000000E+0
447	12/06/2023	17:34:10.850	0.00000000E+0	1.23307435E+3	5.00000000E+0	6.49150146E-1	0.00000000E+0
448	12/06/2023	17:34:12.764	0.00000000E+0	1.23935753E+3	5.00000000E+0	4.91560977E-1	0.00000000E+0
449	12/06/2023	17:34:14.510	0.00000000E+0	1.24564072E+3	5.00000000E+0	3.42249822E-1	0.00000000E+0
450	12/06/2023	17:34:16.240	0.00000000E+0	1.25192391E+3	5.00000000E+0	3.12143074E-1	0.00000000E+0
451	12/06/2023	17:34:18.167	0.00000000E+0	1.25820709E+3	5.00000000E+0	5.33718785E-1	0.00000000E+0
452	12/06/2023	17:34:20.095	0.00000000E+0	1.26449028E+3	5.00000000E+0	3.11734364E-1	0.00000000E+0
453	12/06/2023	17:34:22.199	0.00000000E+0	1.27077346E+3	5.00000000E+0	6.10720010E-1	0.00000000E+0
454	12/06/2023	17:34:24.132	0.00000000E+0	1.27705665E+3	5.00000000E+0	5.07746479E-1	0.00000000E+0
455	12/06/2023	17:34:26.051	0.00000000E+0	1.28333983E+3	5.00000000E+0	5.72655174E-1	0.00000000E+0
456	12/06/2023	17:34:28.197	0.00000000E+0	1.28962302E+3	5.00000000E+0	3.32377664E-1	0.00000000E+0
457	12/06/2023	17:34:30.126	0.00000000E+0	1.29590620E+3	5.00000000E+0	3.04426495E-1	0.00000000E+0
458	12/06/2023	17:34:32.074	0.00000000E+0	1.30218939E+3	5.00000000E+0	5.91006791E-1	0.00000000E+0
459	12/06/2023	17:34:33.892	0.00000000E+0	1.30847257E+3	5.00000000E+0	4.56966943E-1	0.00000000E+0
460	12/06/2023	17:34:35.663	0.00000000E+0	1.31475576E+3	5.00000000E+0	2.99648648E-1	0.00000000E+0
461	12/06/2023	17:34:37.583	0.00000000E+0	1.32103894E+3	5.00000000E+0	5.27504582E-1	0.00000000E+0
462	12/06/2023	17:34:39.311	0.00000000E+0	1.32732213E+3	5.00000000E+0	6.26469398E-1	0.00000000E+0
463	12/06/2023	17:34:41.231	0.00000000E+0	1.33360531E+3	5.00000000E+0	5.44540355E-1	0.00000000E+0
464	12/06/2023	17:34:43.178	0.00000000E+0	1.33988850E+3	5.00000000E+0	2.90423918E-1	0.00000000E+0
465	12/06/2023	17:34:45.095	0.00000000E+0	1.34617169E+3	5.00000000E+0	5.55587259E-1	0.00000000E+0
466	12/06/2023	17:34:47.112	0.00000000E+0	1.35245487E+3	5.00000000E+0	4.38086673E-1	0.00000000E+0
467	12/06/2023	17:34:48.915	0.00000000E+0	1.35873806E+3	5.00000000E+0	4.53524829E-1	0.00000000E+0
468	12/06/2023	17:34:50.743	0.00000000E+0	1.36502124E+3	5.00000000E+0	6.26831321E-1	0.00000000E+0
469	12/06/2023	17:34:52.764	0.00000000E+0	1.37130443E+3	5.00000000E+0	4.25735962E-1	0.00000000E+0
470	12/06/2023	17:34:54.696	0.00000000E+0	1.37758761E+3	5.00000000E+0	6.74728057E-1	0.00000000E+0
471	12/06/2023	17:34:56.536	0.00000000E+0	1.38387080E+3	5.00000000E+0	5.60097149E-1	0.00000000E+0
472	12/06/2023	17:34:58.312	0.00000000E+0	1.39015398E+3	5.00000000E+0	6.36414072E-1	0.00000000E+0
473	12/06/2023	17:35:00.059	0.00000000E+0	1.39643717E+3	5.00000000E+0	3.38689662E-1	0.00000000E+0
474	12/06/2023	17:35:01.906	0.00000000E+0	1.40272035E+3	5.00000000E+0	5.97229198E-1	0.00000000E+0
475	12/06/2023	17:35:03.750	0.00000000E+0	1.40900354E+3	5.00000000E+0	2.86707381E-1	0.00000000E+0
476	12/06/2023	17:35:05.670	0.00000000E+0	1.41528672E+3	5.00000000E+0	6.54355927E-1	0.00000000E+0
477	12/06/2023	17:35:07.684	0.00000000E+0	1.42156991E+3	5.00000000E+0	6.07521233E-1	0.00000000E+0
478	12/06/2023	17:35:09.610	0.00000000E+0	1.42785309E+3	5.00000000E+0	6.43659935E-1	0.00000000E+0
479	12/06/2023	17:35:11.594	0.00000000E+0	1.43413628E+3	5.00000000E+0	6.33495188E-1	0.00000000E+0
480	12/06/2023	17:35:13.528	0.00000000E+0	1.44041946E+3	5.00000000E+0	3.96519737E-1	0.00000000E+0
481	12/06/2023	17:35:15.430	0.00000000E+0	1.44670265E+3	5.00000000E+0	4.52639335E-1	0.00000000E+0
482	12/06/2023	17:35:17.387	0.00000000E+0	1.45298584E+3	5.00000000E+0	5.13119968E-1	0.00000000E+0
483	12/06/2023	17:35:19.216	0.00000000E+0	1.45926902E+3	5.00000000E+0	4.80387020E-1	0.00000000E+0
484	12/06/2023	17:35:21.052	0.00000000E+0	1.46555221E+3	5.00000000E+0	3.07897042E-1	0.00000000E+0
485	12/06/2023	17:35:22.980	0.00000000E+0	1.47183539E+3	5.00000000E+0	2.89834420E-1	0.00000000E+0
486	12/06/2023	17:35:24.715	0.00000000E+0	1.47811858E+3	5.00000000E+0	3.28700263E-1	0.00000000E+0
487	12/06/2023	17:35:26.685	0.00000000E+0	1.48440176E+3	5.00000000E+0	3.15879478E-1	0.00000000E+0
488	12/06/2023	17:35:28.568	0.00000000E+0	1.49068495E+3	5.00000000E+0	4.07401576E-1	0.00000000E+0
489	12/06/2023	17:35:30.501	0.00000000E+0	1.49696813E+3	5.00000000E+0	3.47320863E-1	0.00000000E+0
490	12/06/2023	17:35:32.550	0.00000000E+0	1.50325132E+3	5.00000000E+0	4.89205887E-1	0.00000000E+0
491	12/06/2023	17:35:34.427	0.00000000E+0	1.50953450E+3	5.00000000E+0	6.49352644E-1	0.00000000E+0
492	12/06/2023	17:35:36.418	0.00000000E+0	1.51581769E+3	5.00000000E+0	6.43603448E-1	0.00000000E+0
493	12/06/2023	17:35:38.373	0.00000000E+0	1.52210087E+3	5.00000000E+0	3.21312547E-1	0.00000000E+0
494	12/06/2023	17:35:40.201	0.00000000E+0	1.52838406E+3	5.00000000E+0	4.80399913E-1	0.00000000E+0
495	12/06/2023	17:35:42.468	0.00000000E+0	1.53466724E+3	5.00000000E+0	4.48351260E-1	0.00000000E+0
496	12/06/2023	17:35:44.329	0.00000000E+0	1.54095043E+3	5.00000000E+0	6.60440913E-1	0.00000000E+0
497	12/06/2023	17:35:46.052	0.00000000E+0	1.54723361E+3	5.00000000E+0	3.52704701E-1	0.00000000E+0
498	12/06/2023	17:35:47.860	0.00000000E+0	1.55351680E+3	5.00000000E+0	5.36729218E-1	0.00000000E+0
499	12/06/2023	17:35:49.689	0.00000000E+0	1.55979999E+3	5.00000000E+0	5.60886004E-1	0.00000000E+0
500	12/06/2023	17:35:51.639	0.00000000E+0	1.56608317E+3	5.00000000E+0	3.88892523E-1	0.00000000E+0
