#Iteration	Date	Time	RTPhase	NFringe	AccelAxis	AccelMean	AccelTemp
1	12/06/2023	17:20:01.707	5.42837451E+0	-2.51400000E+3	2.00000000E+0	-9.80625433E+0	7.22169200E+6
2	12/06/2023	17:20:03.428	2.95329651E+0	-2.51500000E+3	2.00000000E+0	-9.80625433E+0	7.22169200E+6
3	12/06/2023	17:20:05.312	6.04388430E+0	-2.51900000E+3	2.00000000E+0	-9.80625433E+0	7.22169200E+6
4	12/06/2023	17:20:07.039	6.06267557E+0	-2.51700000E+3	2.00000000E+0	-9.80625433E+0	7.22169200E+6
5	12/06/2023	17:20:08.913	5.40306383E+0	-2.41600000E+3	2.00000000E+0	-9.80625433E+0	7.22169200E+6
6	12/06/2023	17:20:10.918	8.60946717E-1	-2.18600000E+3	2.00000000E+0	-9.80625433E+0	7.22169200E+6
7	12/06/2023	17:20:12.813	2.57708772E-1	-2.29500000E+3	2.00000000E+0	-9.80625433E+0	7.22169200E+6
8	12/06/2023	17:20:14.692	2.34123818E+0	-2.39900000E+3	2.00000000E+0	-9.80625433E+0	7.22169200E+6
9	12/06/2023	17:20:16.530	2.12954883E+0	-2.40300000E+3	2.00000000E+0	-9.80625433E+0	7.22169200E+6
10	12/06/2023	17:20:18.439	5.02417058E+0	-2.45200000E+3	2.00000000E+0	-9.80625433E+0	7.22169200E+6
11	12/06/2023	17:20:20.712	3.20755383E+0	-2.49600000E+3	2.00000000E+0	-9.80625433E+0	7.22169200E+6
12	12/06/2023	17:20:22.550	5.47132598E+0	-2.51200000E+3	2.00000000E+0	-9.80625433E+0	7.22169200E+6
13	12/06/2023	17:20:24.555	1.48949535E+0	-2.50900000E+3	2.00000000E+0	-9.80625433E+0	7.22169200E+6
14	12/06/2023	17:20:26.514	3.44186939E+0	-2.51200000E+3	2.00000000E+0	-9.80625433E+0	7.22169200E+6
15	12/06/2023	17:20:28.250	1.50368467E+0	-2.50600000E+3	2.00000000E+0	-9.80625433E+0	7.22169200E+6
16	12/06/2023	17:20:30.042	4.03206850E+0	-2.49500000E+3	2.00000000E+0	-9.80625433E+0	7.22169200E+6
17	12/06/2023	17:20:31.903	8.21830207E-1	-2.47100000E+3	2.00000000E+0	-9.80625433E+0	7.22169200E+6
18	12/06/2023	17:20:33.831	5.71791339E+0	-2.42900000E+3	2.00000000E+0	-9.80625433E+0	7.22169200E+6
19	12/06/2023	17:20:35.809	5.71407843E+0	-2.38700000E+3	2.00000000E+0	-9.80625433E+0	7.22169200E+6
20	12/06/2023	17:20:37.666	2.25034982E+0	-2.32100000E+3	2.00000000E+0	-9.80625433E+0	7.22169200E+6
21	12/06/2023	17:20:39.673	5.17948613E+0	-2.38400000E+3	2.00000000E+0	-9.80625433E+0	7.22169200E+6
22	12/06/2023	17:20:41.583	4.75227248E+0	-2.44500000E+3	2.00000000E+0	-9.80625433E+0	7.22169200E+6
23	12/06/2023	17:20:43.491	4.79982589E+0	-2.51100000E+3	2.00000000E+0	-9.80625433E+0	7.22169200E+6
24	12/06/2023	17:20:45.561	1.73493227E+0	-2.51100000E+3	2.00000000E+0	-9.80625433E+0	7.22169200E+6
25	12/06/2023	17:20:47.417	4.19313648E+0	-2.51100000E+3	2.00000000E+0	-9.80625433E+0	7.22169200E+6
26	12/06/2023	17:20:49.341	2.15102456E+0	-2.47400000E+3	2.00000000E+0	-9.80625433E+0	7.22169200E+6
27	12/06/2023	17:20:51.124	5.56221434E+0	-2.40300000E+3	2.00000000E+0	-9.80625433E+0	7.22169200E+6
28	12/06/2023	17:20:52.851	2.92951981E+0	-2.32700000E+3	2.00000000E+0	-9.80625433E+0	7.22169200E+6
29	12/06/2023	17:20:54.862	1.92629637E+0	-2.20300000E+3	2.00000000E+0	-9.80625433E+0	7.22169200E+6
30	12/06/2023	17:20:56.807	1.88986433E+0	-2.11500000E+3	2.00000000E+0	-9.80625433E+0	7.22169200E+6
31	12/06/2023	17:20:58.714	2.79951494E+0	-2.25900000E+3	2.00000000E+0	-9.80625433E+0	7.22169200E+6
32	12/06/2023	17:21:00.648	4.93443270E+0	-2.38300000E+3	2.00000000E+0	-9.80625433E+0	7.22169200E+6
33	12/06/2023	17:21:02.569	1.26553415E+0	-2.47100000E+3	2.00000000E+0	-9.80625433E+0	7.22169200E+6
34	12/06/2023	17:21:04.585	4.75035500E+0	-2.50000000E+3	2.00000000E+0	-9.80625433E+0	7.22169200E+6
35	12/06/2023	17:21:06.504	1.82735461E+0	-2.51600000E+3	2.00000000E+0	-9.80625433E+0	7.22169200E+6
36	12/06/2023	17:21:08.358	3.85412673E-1	-2.51400000E+3	2.00000000E+0	-9.80625433E+0	7.22169200E+6
37	12/06/2023	17:21:10.339	3.79161701E+0	-2.53800000E+3	2.00000000E+0	-9.80625433E+0	7.22169200E+6
38	12/06/2023	17:21:12.105	3.14466062E-2	-2.49200000E+3	2.00000000E+0	-9.80625433E+0	7.22169200E+6
39	12/06/2023	17:21:13.860	1.19458754E+0	-2.44100000E+3	2.00000000E+0	-9.80625433E+0	7.22169200E+6
40	12/06/2023	17:21:15.637	5.39922888E+0	-2.32300000E+3	2.00000000E+0	-9.80625433E+0	7.22169200E+6
41	12/06/2023	17:21:17.481	7.52801072E-1	-2.17100000E+3	2.00000000E+0	-9.80625433E+0	7.22169200E+6
42	12/06/2023	17:21:19.611	3.72757331E+0	-2.24800000E+3	2.00000000E+0	-9.80625433E+0	7.22169200E+6
43	12/06/2023	17:21:21.475	1.90328666E+0	-2.38500000E+3	2.00000000E+0	-9.80625433E+0	7.22169200E+6
44	12/06/2023	17:21:23.398	4.68017538E+0	-2.44800000E+3	2.00000000E+0	-9.80625433E+0	7.22169200E+6
45	12/06/2023	17:21:25.386	2.86087417E+0	-2.50400000E+3	2.00000000E+0	-9.80625433E+0	7.22169200E+6
46	12/06/2023	17:21:27.307	4.79790841E+0	-2.52200000E+3	2.00000000E+0	-9.80625433E+0	7.22169200E+6
47	12/06/2023	17:21:29.299	5.03529194E+0	-2.50700000E+3	2.00000000E+0	-9.80625433E+0	7.22169200E+6
48	12/06/2023	17:21:31.208	6.19498141E+0	-2.48700000E+3	2.00000000E+0	-9.80625433E+0	7.22169200E+6
49	12/06/2023	17:21:33.157	4.86348609E+0	-2.43100000E+3	2.00000000E+0	-9.80625433E+0	7.22169200E+6
50	12/06/2023	17:21:35.154	3.56113640E+0	-2.28000000E+3	2.00000000E+0	-9.80625433E+0	7.22169200E+6
51	12/06/2023	17:21:36.939	4.22189862E+0	-2.11700000E+3	2.00000000E+0	-9.80625433E+0	7.22169200E+6
52	12/06/2023	17:21:38.705	1.73071382E+0	-2.19100000E+3	2.00000000E+0	-9.80625433E+0	7.22169200E+6
53	12/06/2023	17:21:40.683	5.38657354E+0	-2.39700000E+3	2.00000000E+0	-9.80625433E+0	7.22169200E+6
54	12/06/2023	17:21:42.591	1.67280605E+0	-2.49200000E+3	2.00000000E+0	-9.80625433E+0	7.22169200E+6
55	12/06/2023	17:21:44.567	2.10577213E+0	-2.50900000E+3	2.00000000E+0	-9.80625433E+0	7.22169200E+6
56	12/06/2023	17:21:46.458	3.10554411E+0	-2.51500000E+3	2.00000000E+0	-9.80625433E+0	7.22169200E+6
57	12/06/2023	17:21:48.372	1.03773800E+0	-2.51200000E+3	2.00000000E+0	-9.80625433E+0	7.22169200E+6
58	12/06/2023	17:21:50.382	6.51941835E-1	-2.49800000E+3	2.00000000E+0	-9.80625433E+0	7.22169200E+6
59	12/06/2023	17:21:52.288	4.07386948E+0	-2.43400000E+3	2.00000000E+0	-9.80625433E+0	7.22169200E+6
60	12/06/2023	17:21:54.285	4.67787441E+0	-2.33600000E+3	2.00000000E+0	-9.80625433E+0	7.22169200E+6
61	12/06/2023	17:21:56.194	2.45436926E-2	-2.12500000E+3	2.00000000E+0	-9.80625433E+0	7.22169200E+6
62	12/06/2023	17:21:58.069	2.17019932E+0	-1.97900000E+3	2.00000000E+0	-9.80625433E+0	7.22169200E+6
63	12/06/2023	17:22:00.011	2.26338865E+0	-2.22500000E+3	2.00000000E+0	-9.80625433E+0	7.22169200E+6
64	12/06/2023	17:22:01.735	5.32137935E+0	-2.38700000E+3	2.00000000E+0	-9.80625433E+0	7.22169200E+6
65	12/06/2023	17:22:03.495	5.37583567E+0	-2.46300000E+3	2.00000000E+0	-9.80625433E+0	7.22169200E+6
66	12/06/2023	17:22:05.578	1.19267006E+0	-2.51300000E+3	2.00000000E+0	-9.80625433E+0	7.22169200E+6
67	12/06/2023	17:22:07.418	1.55353904E+0	-2.51500000E+3	2.00000000E+0	-9.80625433E+0	7.22169200E+6
68	12/06/2023	17:22:09.368	2.62157317E+0	-2.51400000E+3	2.00000000E+0	-9.80625433E+0	7.22169200E+6
69	12/06/2023	17:22:11.258	5.18753953E+0	-2.51300000E+3	2.00000000E+0	-9.80625433E+0	7.22169200E+6
70	12/06/2023	17:22:13.176	2.59626248E+0	-2.51200000E+3	2.00000000E+0	-9.80625433E+0	7.22169200E+6
71	12/06/2023	17:22:15.186	4.78065113E+0	-2.51400000E+3	2.00000000E+0	-9.80625433E+0	7.22169200E+6
72	12/06/2023	17:22:17.038	3.78087915E+0	-2.50800000E+3	2.00000000E+0	-9.80625433E+0	7.22169200E+6
73	12/06/2023	17:22:19.039	4.63837441E+0	-2.49100000E+3	2.00000000E+0	-9.80625433E+0	7.22169200E+6
74	12/06/2023	17:22:20.994	4.30856854E+0	-2.46800000E+3	2.00000000E+0	-9.80625433E+0	7.22169200E+6
75	12/06/2023	17:22:22.806	5.64083085E+0	-2.43400000E+3	2.00000000E+0	-9.80625433E+0	7.22169200E+6
76	12/06/2023	17:22:24.621	3.80350536E+0	-2.40300000E+3	2.00000000E+0	-9.80625433E+0	7.22169200E+6
77	12/06/2023	17:22:26.381	2.43020906E+0	-2.35500000E+3	2.00000000E+0	-9.80625433E+0	7.22169200E+6
78	12/06/2023	17:22:28.305	5.80419981E+0	-2.27100000E+3	2.00000000E+0	-9.80625433E+0	7.22169200E+6
79	12/06/2023	17:22:30.323	3.68155389E+0	-2.17800000E+3	2.00000000E+0	-9.80625433E+0	7.22169200E+6
80	12/06/2023	17:22:32.230	1.39592252E+0	-2.09200000E+3	2.00000000E+0	-9.80625433E+0	7.22169200E+6
81	12/06/2023	17:22:34.126	1.03888849E+0	-2.17200000E+3	2.00000000E+0	-9.80625433E+0	7.22169200E+6
82	12/06/2023	17:22:36.071	6.27321443E+0	-2.21500000E+3	2.00000000E+0	-9.80625433E+0	7.22169200E+6
83	12/06/2023	17:22:37.992	2.64189841E+0	-2.26500000E+3	2.00000000E+0	-9.80625433E+0	7.22169200E+6
84	12/06/2023	17:22:39.866	4.40597632E+0	-2.30100000E+3	2.00000000E+0	-9.80625433E+0	7.22169200E+6
85	12/06/2023	17:22:41.833	5.16414632E+0	-2.36800000E+3	2.00000000E+0	-9.80625433E+0	7.22169200E+6
86	12/06/2023	17:22:43.691	6.03276294E+0	-2.39400000E+3	2.00000000E+0	-9.80625433E+0	7.22169200E+6
87	12/06/2023	17:22:45.444	3.70993254E+0	-2.42200000E+3	2.00000000E+0	-9.80625433E+0	7.22169200E+6
88	12/06/2023	17:22:47.159	9.72543820E-1	-2.44000000E+3	2.00000000E+0	-9.80625433E+0	7.22169200E+6
89	12/06/2023	17:22:49.033	4.39293748E+0	-2.47000000E+3	2.00000000E+0	-9.80625433E+0	7.22169200E+6
90	12/06/2023	17:22:50.939	6.93742811E-1	-2.48100000E+3	2.00000000E+0	-9.80625433E+0	7.22169200E+6
91	12/06/2023	17:22:52.868	5.75281145E+0	-2.48500000E+3	2.00000000E+0	-9.80625433E+0	7.22169200E+6
92	12/06/2023	17:22:54.868	5.38810752E+0	-2.49000000E+3	2.00000000E+0	-9.80625433E+0	7.22169200E+6
93	12/06/2023	17:22:56.793	4.42591807E+0	-2.50200000E+3	2.00000000E+0	-9.80625433E+0	7.22169200E+6
94	12/06/2023	17:22:58.799	3.11973343E+0	-2.51600000E+3	2.00000000E+0	-9.80625433E+0	7.22169200E+6
95	12/06/2023	17:23:00.713	2.73470425E+0	-2.51800000E+3	2.00000000E+0	-9.80625433E+0	7.22169200E+6
96	12/06/2023	17:23:02.590	4.64105887E+0	-2.50800000E+3	2.00000000E+0	-9.80625433E+0	7.22169200E+6
97	12/06/2023	17:23:04.559	1.28931085E+0	-2.51300000E+3	2.00000000E+0	-9.80625433E+0	7.22169200E+6
98	12/06/2023	17:23:06.343	1.52899535E+0	-2.51500000E+3	2.00000000E+0	-9.80625433E+0	7.22169200E+6
99	12/06/2023	17:23:08.170	3.93849567E+0	-2.53800000E+3	2.00000000E+0	-9.80625433E+0	7.22169200E+6
100	12/06/2023	17:23:09.981	1.47262156E-1	-2.48900000E+3	2.00000000E+0	-9.80625433E+0	7.22169200E+6
101	12/06/2023	17:23:11.737	1.91364103E-1	-2.46800000E+3	2.00000000E+0	-9.80625433E+0	7.22169200E+6
102	12/06/2023	17:23:13.697	1.11060209E+0	-2.43200000E+3	2.00000000E+0	-9.80625433E+0	7.22169200E+6
103	12/06/2023	17:23:15.588	1.98765561E+0	-2.39600000E+3	2.00000000E+0	-9.80625433E+0	7.22169200E+6
104	12/06/2023	17:23:17.510	5.64466580E+0	-2.35700000E+3	2.00000000E+0	-9.80625433E+0	7.22169200E+6
105	12/06/2023	17:23:19.640	5.27651042E+0	-2.28400000E+3	2.00000000E+0	-9.80625433E+0	7.22169200E+6
106	12/06/2023	17:23:21.519	7.79645735E-1	-2.21200000E+3	2.00000000E+0	-9.80625433E+0	7.22169200E+6
107	12/06/2023	17:23:23.472	5.01266572E+0	-2.11000000E+3	2.00000000E+0	-9.80625433E+0	7.22169200E+6
108	12/06/2023	17:23:25.372	5.51964637E+0	-2.15400000E+3	2.00000000E+0	-9.80625433E+0	7.22169200E+6
109	12/06/2023	17:23:27.207	4.33694718E+0	-2.21300000E+3	2.00000000E+0	-9.80625433E+0	7.22169200E+6
110	12/06/2023	17:23:29.232	3.78548109E+0	-2.27800000E+3	2.00000000E+0	-9.80625433E+0	7.22169200E+6
111	12/06/2023	17:23:31.008	4.16284036E+0	-2.33400000E+3	2.00000000E+0	-9.80625433E+0	7.22169200E+6
112	12/06/2023	17:23:32.792	4.20310736E-1	-2.38400000E+3	2.00000000E+0	-9.80625433E+0	7.22169200E+6
113	12/06/2023	17:23:34.636	4.50146662E+0	-2.41300000E+3	2.00000000E+0	-9.80625433E+0	7.22169200E+6
114	12/06/2023	17:23:36.536	4.81018026E+0	-2.44600000E+3	2.00000000E+0	-9.80625433E+0	7.22169200E+6
115	12/06/2023	17:23:38.541	3.36210239E+0	-2.47500000E+3	2.00000000E+0	-9.80625433E+0	7.22169200E+6
116	12/06/2023	17:23:40.444	3.38702958E+0	-2.49500000E+3	2.00000000E+0	-9.80625433E+0	7.22169200E+6
117	12/06/2023	17:23:42.369	4.05431122E+0	-2.51000000E+3	2.00000000E+0	-9.80625433E+0	7.22169200E+6
118	12/06/2023	17:23:44.309	3.41694221E-1	-2.51100000E+3	2.00000000E+0	-9.80625433E+0	7.22169200E+6
119	12/06/2023	17:23:46.204	4.44240836E+0	-2.50000000E+3	2.00000000E+0	-9.80625433E+0	7.22169200E+6
120	12/06/2023	17:23:48.196	3.58721407E+0	-2.51800000E+3	2.00000000E+0	-9.80625433E+0	7.22169200E+6
121	12/06/2023	17:23:50.558	4.29131125E-1	-2.50400000E+3	2.00000000E+0	-9.80625433E+0	7.22169200E+6
122	12/06/2023	17:23:52.262	6.17810762E+0	-2.48300000E+3	2.00000000E+0	-9.80625433E+0	7.22169200E+6
123	12/06/2023	17:23:54.164	1.99264104E+0	-2.45900000E+3	2.00000000E+0	-9.80625433E+0	7.22169200E+6
124	12/06/2023	17:23:55.885	5.49702015E+0	-2.39300000E+3	2.00000000E+0	-9.80625433E+0	7.22169200E+6
125	12/06/2023	17:23:57.635	8.31034092E-1	-2.36700000E+3	2.00000000E+0	-9.80625433E+0	7.22169200E+6
126	12/06/2023	17:23:59.673	3.47561697E+0	-2.26600000E+3	2.00000000E+0	-9.80625433E+0	7.22169200E+6
127	12/06/2023	17:24:01.577	4.87997638E+0	-2.18500000E+3	2.00000000E+0	-9.80625433E+0	7.22169200E+6
128	12/06/2023	17:24:03.574	2.80986931E+0	-2.11100000E+3	2.00000000E+0	-9.80625433E+0	7.22169200E+6
129	12/06/2023	17:24:05.533	4.39562195E+0	-2.25900000E+3	2.00000000E+0	-9.80625433E+0	7.22169200E+6
130	12/06/2023	17:24:07.449	1.45689825E+0	-2.34100000E+3	2.00000000E+0	-9.80625433E+0	7.22169200E+6
131	12/06/2023	17:24:09.453	4.55362197E+0	-2.42900000E+3	2.00000000E+0	-9.80625433E+0	7.22169200E+6
132	12/06/2023	17:24:11.361	5.38350558E+0	-2.45400000E+3	2.00000000E+0	-9.80625433E+0	7.22169200E+6
133	12/06/2023	17:24:13.207	2.23385952E+0	-2.49200000E+3	2.00000000E+0	-9.80625433E+0	7.22169200E+6
134	12/06/2023	17:24:15.167	3.35941793E+0	-2.51100000E+3	2.00000000E+0	-9.80625433E+0	7.22169200E+6
135	12/06/2023	17:24:16.992	1.87759248E+0	-2.51900000E+3	2.00000000E+0	-9.80625433E+0	7.22169200E+6
136	12/06/2023	17:24:18.828	3.25740820E+0	-2.53600000E+3	2.00000000E+0	-9.80625433E+0	7.22169200E+6
137	12/06/2023	17:24:20.640	2.98589360E+0	-2.50100000E+3	2.00000000E+0	-9.80625433E+0	7.22169200E+6
138	12/06/2023	17:24:22.562	3.95306849E+0	-2.51200000E+3	2.00000000E+0	-9.80625433E+0	7.22169200E+6
139	12/06/2023	17:24:24.553	2.41410226E+0	-2.49000000E+3	2.00000000E+0	-9.80625433E+0	7.22169200E+6
140	12/06/2023	17:24:26.486	1.39400504E+0	-2.46100000E+3	2.00000000E+0	-9.80625433E+0	7.22169200E+6
141	12/06/2023	17:24:28.339	1.80242743E-2	-2.42600000E+3	2.00000000E+0	-9.80625433E+0	7.22169200E+6
142	12/06/2023	17:24:30.234	4.19160250E-1	-2.36800000E+3	2.00000000E+0	-9.80625433E+0	7.22169200E+6
143	12/06/2023	17:24:32.156	2.10807310E+0	-2.33100000E+3	2.00000000E+0	-9.80625433E+0	7.22169200E+6
144	12/06/2023	17:24:34.139	8.32951568E-1	-2.25900000E+3	2.00000000E+0	-9.80625433E+0	7.22169200E+6
145	12/06/2023	17:24:36.027	1.06458267E+0	-2.18400000E+3	2.00000000E+0	-9.80625433E+0	7.22169200E+6
146	12/06/2023	17:24:37.796	3.25740820E+0	-2.08500000E+3	2.00000000E+0	-9.80625433E+0	7.22169200E+6
147	12/06/2023	17:24:39.655	1.50790311E+0	-2.05200000E+3	2.00000000E+0	-9.80625433E+0	7.22169200E+6
148	12/06/2023	17:24:41.446	9.56053526E-1	-2.08300000E+3	2.00000000E+0	-9.80625433E+0	7.22169200E+6
149	12/06/2023	17:24:43.232	4.33081126E+0	-2.17000000E+3	2.00000000E+0	-9.80625433E+0	7.22169200E+6
150	12/06/2023	17:24:45.118	3.26507811E+0	-2.27800000E+3	2.00000000E+0	-9.80625433E+0	7.22169200E+6
151	12/06/2023	17:24:47.042	9.26524396E-1	-2.40700000E+3	2.00000000E+0	-9.80625433E+0	7.22169200E+6
152	12/06/2023	17:24:48.981	3.97952966E+0	-2.47200000E+3	2.00000000E+0	-9.80625433E+0	7.22169200E+6
153	12/06/2023	17:24:50.917	1.59265555E+0	-2.49500000E+3	2.00000000E+0	-9.80625433E+0	7.22169200E+6
154	12/06/2023	17:24:52.800	9.11568083E-1	-2.50600000E+3	2.00000000E+0	-9.80625433E+0	7.22169200E+6
155	12/06/2023	17:24:54.792	4.88879677E+0	-2.52300000E+3	2.00000000E+0	-9.80625433E+0	7.22169200E+6
156	12/06/2023	17:24:56.671	3.48175289E+0	-2.50800000E+3	2.00000000E+0	-9.80625433E+0	7.22169200E+6
157	12/06/2023	17:24:58.593	1.92284492E+0	-2.51400000E+3	2.00000000E+0	-9.80625433E+0	7.22169200E+6
158	12/06/2023	17:25:00.553	4.36916078E+0	-2.50100000E+3	2.00000000E+0	-9.80625433E+0	7.22169200E+6
159	12/06/2023	17:25:02.522	1.00935936E+0	-2.50500000E+3	2.00000000E+0	-9.80625433E+0	7.22169200E+6
160	12/06/2023	17:25:04.331	3.28041791E+0	-2.46600000E+3	2.00000000E+0	-9.80625433E+0	7.22169200E+6
161	12/06/2023	17:25:06.044	5.48628229E+0	-2.43600000E+3	2.00000000E+0	-9.80625433E+0	7.22169200E+6
162	12/06/2023	17:25:07.948	1.95812648E+0	-2.38200000E+3	2.00000000E+0	-9.80625433E+0	7.22169200E+6
163	12/06/2023	17:25:09.915	3.84415585E+0	-2.31100000E+3	2.00000000E+0	-9.80625433E+0	7.22169200E+6
164	12/06/2023	17:25:11.854	3.71721894E+0	-2.26800000E+3	2.00000000E+0	-9.80625433E+0	7.22169200E+6
165	12/06/2023	17:25:13.853	7.30174855E-1	-2.20000000E+3	2.00000000E+0	-9.80625433E+0	7.22169200E+6
166	12/06/2023	17:25:15.749	1.26821862E+0	-2.16400000E+3	2.00000000E+0	-9.80625433E+0	7.22169200E+6
167	12/06/2023	17:25:17.650	4.43473846E+0	-2.22400000E+3	2.00000000E+0	-9.80625433E+0	7.22169200E+6
168	12/06/2023	17:25:19.651	4.62686955E+0	-2.29300000E+3	2.00000000E+0	-9.80625433E+0	7.22169200E+6
169	12/06/2023	17:25:21.542	2.89615573E+0	-2.35800000E+3	2.00000000E+0	-9.80625433E+0	7.22169200E+6
170	12/06/2023	17:25:23.432	4.74038413E+0	-2.40300000E+3	2.00000000E+0	-9.80625433E+0	7.22169200E+6
171	12/06/2023	17:25:25.321	2.72550036E+0	-2.44500000E+3	2.00000000E+0	-9.80625433E+0	7.22169200E+6
172	12/06/2023	17:25:27.054	3.91548596E-1	-2.48800000E+3	2.00000000E+0	-9.80625433E+0	7.22169200E+6
173	12/06/2023	17:25:28.896	2.90497612E+0	-2.50900000E+3	2.00000000E+0	-9.80625433E+0	7.22169200E+6
174	12/06/2023	17:25:30.749	4.38910253E+0	-2.51700000E+3	2.00000000E+0	-9.80625433E+0	7.22169200E+6
175	12/06/2023	17:25:32.577	3.94578208E+0	-2.51600000E+3	2.00000000E+0	-9.80625433E+0	7.22169200E+6
176	12/06/2023	17:25:34.586	1.25901473E+0	-2.51300000E+3	2.00000000E+0	-9.80625433E+0	7.22169200E+6
177	12/06/2023	17:25:36.497	5.75971436E+0	-2.51800000E+3	2.00000000E+0	-9.80625433E+0	7.22169200E+6
178	12/06/2023	17:25:38.503	1.40589339E+0	-2.47800000E+3	2.00000000E+0	-9.80625433E+0	7.22169200E+6
179	12/06/2023	17:25:40.515	5.48513180E+0	-2.41700000E+3	2.00000000E+0	-9.80625433E+0	7.22169200E+6
180	12/06/2023	17:25:42.393	1.72726237E+0	-2.32600000E+3	2.00000000E+0	-9.80625433E+0	7.22169200E+6
181	12/06/2023	17:25:44.355	1.98420415E+0	-2.23800000E+3	2.00000000E+0	-9.80625433E+0	7.22169200E+6
182	12/06/2023	17:25:46.133	6.25940860E+0	-2.26000000E+3	2.00000000E+0	-9.80625433E+0	7.22169200E+6
183	12/06/2023	17:25:48.123	3.52853931E+0	-2.32700000E+3	2.00000000E+0	-9.80625433E+0	7.22169200E+6
184	12/06/2023	17:25:49.866	5.48666578E+0	-2.40600000E+3	2.00000000E+0	-9.80625433E+0	7.22169200E+6
185	12/06/2023	17:25:51.617	1.96502939E+0	-2.46300000E+3	2.00000000E+0	-9.80625433E+0	7.22169200E+6
186	12/06/2023	17:25:53.637	3.10055867E+0	-2.51700000E+3	2.00000000E+0	-9.80625433E+0	7.22169200E+6
187	12/06/2023	17:25:55.549	9.32276824E-1	-2.49800000E+3	2.00000000E+0	-9.80625433E+0	7.22169200E+6
188	12/06/2023	17:25:57.467	1.14818462E+0	-2.49600000E+3	2.00000000E+0	-9.80625433E+0	7.22169200E+6
189	12/06/2023	17:25:59.474	9.94403046E-1	-2.51600000E+3	2.00000000E+0	-9.80625433E+0	7.22169200E+6
190	12/06/2023	17:26:01.378	1.04425742E+0	-2.52200000E+3	2.00000000E+0	-9.80625433E+0	7.22169200E+6
191	12/06/2023	17:26:03.333	6.54242806E-1	-2.47800000E+3	2.00000000E+0	-9.80625433E+0	7.22169200E+6
192	12/06/2023	17:26:05.222	4.24797630E+0	-2.41900000E+3	2.00000000E+0	-9.80625433E+0	7.22169200E+6
193	12/06/2023	17:26:07.135	2.22810709E-1	-2.27000000E+3	2.00000000E+0	-9.80625433E+0	7.22169200E+6
194	12/06/2023	17:26:09.132	3.17955868E+0	-2.30200000E+3	2.00000000E+0	-9.80625433E+0	7.22169200E+6
195	12/06/2023	17:26:10.946	1.05116033E+0	-2.43800000E+3	2.00000000E+0	-9.80625433E+0	7.22169200E+6
196	12/06/2023	17:26:12.689	1.18960210E+0	-2.50700000E+3	2.00000000E+0	-9.80625433E+0	7.22169200E+6
197	12/06/2023	17:26:14.587	3.80964129E+0	-2.51700000E+3	2.00000000E+0	-9.80625433E+0	7.22169200E+6
198	12/06/2023	17:26:16.434	4.74306860E+0	-2.52000000E+3	2.00000000E+0	-9.80625433E+0	7.22169200E+6
199	12/06/2023	17:26:18.453	5.49548617E+0	-2.52100000E+3	2.00000000E+0	-9.80625433E+0	7.22169200E+6
200	12/06/2023	17:26:20.449	1.45958272E+0	-2.47500000E+3	2.00000000E+0	-9.80625433E+0	7.22169200E+6
201	12/06/2023	17:26:22.374	4.36417534E-1	-2.40500000E+3	2.00000000E+0	-9.80625433E+0	7.22169200E+6
202	12/06/2023	17:26:24.385	3.37552472E+0	-2.26400000E+3	2.00000000E+0	-9.80625433E+0	7.22169200E+6
203	12/06/2023	17:26:26.300	2.06205367E+0	-2.15800000E+3	2.00000000E+0	-9.80625433E+0	7.22169200E+6
204	12/06/2023	17:26:28.305	2.48274791E+0	-2.15800000E+3	2.00000000E+0	-9.80625433E+0	7.22169200E+6
205	12/06/2023	17:26:30.227	3.12893731E+0	-2.35800000E+3	2.00000000E+0	-9.80625433E+0	7.22169200E+6
206	12/06/2023	17:26:32.011	3.69420923E+0	-2.43500000E+3	2.00000000E+0	-9.80625433E+0	7.22169200E+6
207	12/06/2023	17:26:33.921	3.55078203E+0	-2.47700000E+3	2.00000000E+0	-9.80625433E+0	7.22169200E+6
208	12/06/2023	17:26:35.846	3.95958791E+0	-2.50200000E+3	2.00000000E+0	-9.80625433E+0	7.22169200E+6
209	12/06/2023	17:26:37.595	3.63706845E+0	-2.51600000E+3	2.00000000E+0	-9.80625433E+0	7.22169200E+6
210	12/06/2023	17:26:39.616	5.09204923E+0	-2.52300000E+3	2.00000000E+0	-9.80625433E+0	7.22169200E+6
211	12/06/2023	17:26:41.506	2.42867508E+0	-2.52400000E+3	2.00000000E+0	-9.80625433E+0	7.22169200E+6
212	12/06/2023	17:26:43.455	1.07148558E+0	-2.49700000E+3	2.00000000E+0	-9.80625433E+0	7.22169200E+6
213	12/06/2023	17:26:45.349	9.58737992E-1	-2.43200000E+3	2.00000000E+0	-9.80625433E+0	7.22169200E+6
214	12/06/2023	17:26:47.358	1.22718463E+0	-2.33200000E+3	2.00000000E+0	-9.80625433E+0	7.22169200E+6
215	12/06/2023	17:26:49.383	6.31616589E-1	-2.15500000E+3	2.00000000E+0	-9.80625433E+0	7.22169200E+6
216	12/06/2023	17:26:51.282	3.97301024E+0	-2.06100000E+3	2.00000000E+0	-9.80625433E+0	7.22169200E+6
217	12/06/2023	17:26:53.232	2.00529638E+0	-2.20500000E+3	2.00000000E+0	-9.80625433E+0	7.22169200E+6
218	12/06/2023	17:26:55.214	4.81938414E+0	-2.38900000E+3	2.00000000E+0	-9.80625433E+0	7.22169200E+6
219	12/06/2023	17:26:57.095	3.36171890E+0	-2.49600000E+3	2.00000000E+0	-9.80625433E+0	7.22169200E+6
220	12/06/2023	17:26:59.011	5.15417545E-1	-2.50900000E+3	2.00000000E+0	-9.80625433E+0	7.22169200E+6
221	12/06/2023	17:27:00.732	1.25939823E+0	-2.51200000E+3	2.00000000E+0	-9.80625433E+0	7.22169200E+6
222	12/06/2023	17:27:02.608	4.07348598E+0	-2.47300000E+3	2.00000000E+0	-9.80625433E+0	7.22169200E+6
223	12/06/2023	17:27:04.610	5.12311234E+0	-2.37000000E+3	2.00000000E+0	-9.80625433E+0	7.22169200E+6
224	12/06/2023	17:27:06.506	2.88426738E+0	-2.20400000E+3	2.00000000E+0	-9.80625433E+0	7.22169200E+6
225	12/06/2023	17:27:08.484	1.82236918E+0	-2.15500000E+3	2.00000000E+0	-9.80625433E+0	7.22169200E+6
226	12/06/2023	17:27:10.427	5.43642791E+0	-2.33400000E+3	2.00000000E+0	-9.80625433E+0	7.22169200E+6
227	12/06/2023	17:27:12.342	1.63177206E+0	-2.45400000E+3	2.00000000E+0	-9.80625433E+0	7.22169200E+6
228	12/06/2023	17:27:14.354	2.96671884E+0	-2.50900000E+3	2.00000000E+0	-9.80625433E+0	7.22169200E+6
229	12/06/2023	17:27:16.215	3.88250537E+0	-2.51300000E+3	2.00000000E+0	-9.80625433E+0	7.22169200E+6
230	12/06/2023	17:27:18.110	5.16606380E+0	-2.50200000E+3	2.00000000E+0	-9.80625433E+0	7.22169200E+6
231	12/06/2023	17:27:20.143	6.19344743E+0	-2.39600000E+3	2.00000000E+0	-9.80625433E+0	7.22169200E+6
232	12/06/2023	17:27:21.879	2.51381102E+0	-2.23900000E+3	2.00000000E+0	-9.80625433E+0	7.22169200E+6
233	12/06/2023	17:27:23.712	1.42775262E+0	-2.11900000E+3	2.00000000E+0	-9.80625433E+0	7.22169200E+6
234	12/06/2023	17:27:25.598	1.47223806E+0	-2.28500000E+3	2.00000000E+0	-9.80625433E+0	7.22169200E+6
235	12/06/2023	17:27:27.480	2.39684498E+0	-2.43600000E+3	2.00000000E+0	-9.80625433E+0	7.22169200E+6
236	12/06/2023	17:27:29.469	3.76400536E+0	-2.49600000E+3	2.00000000E+0	-9.80625433E+0	7.22169200E+6
237	12/06/2023	17:27:31.391	1.43388854E+0	-2.52100000E+3	2.00000000E+0	-9.80625433E+0	7.22169200E+6
238	12/06/2023	17:27:33.412	3.24436937E+0	-2.51000000E+3	2.00000000E+0	-9.80625433E+0	7.22169200E+6
239	12/06/2023	17:27:35.346	3.67925292E+0	-2.46900000E+3	2.00000000E+0	-9.80625433E+0	7.22169200E+6
240	12/06/2023	17:27:37.251	4.77719967E+0	-2.35400000E+3	2.00000000E+0	-9.80625433E+0	7.22169200E+6
241	12/06/2023	17:27:39.244	1.41701475E+0	-2.15400000E+3	2.00000000E+0	-9.80625433E+0	7.22169200E+6
242	12/06/2023	17:27:41.120	6.04656877E+0	-2.23000000E+3	2.00000000E+0	-9.80625433E+0	7.22169200E+6
243	12/06/2023	17:27:42.941	3.28885481E+0	-2.37800000E+3	2.00000000E+0	-9.80625433E+0	7.22169200E+6
244	12/06/2023	17:27:44.774	1.05231082E+0	-2.48600000E+3	2.00000000E+0	-9.80625433E+0	7.22169200E+6
245	12/06/2023	17:27:46.437	2.82520912E+0	-2.51400000E+3	2.00000000E+0	-9.80625433E+0	7.22169200E+6
246	12/06/2023	17:27:48.454	1.46725262E+0	-2.51200000E+3	2.00000000E+0	-9.80625433E+0	7.22169200E+6
247	12/06/2023	17:27:50.369	6.22911248E+0	-2.51100000E+3	2.00000000E+0	-9.80625433E+0	7.22169200E+6
248	12/06/2023	17:27:52.291	3.92699082E-1	-2.42000000E+3	2.00000000E+0	-9.80625433E+0	7.22169200E+6
249	12/06/2023	17:27:54.284	2.99893244E+0	-2.22600000E+3	2.00000000E+0	-9.80625433E+0	7.22169200E+6
250	12/06/2023	17:27:56.132	5.48436481E+0	-2.11300000E+3	2.00000000E+0	-9.80625433E+0	7.22169200E+6
251	12/06/2023	17:27:58.054	2.71016056E+0	-2.36500000E+3	2.00000000E+0	-9.80625433E+0	7.22169200E+6
252	12/06/2023	17:27:59.973	4.69973364E+0	-2.48700000E+3	2.00000000E+0	-9.80625433E+0	7.22169200E+6
253	12/06/2023	17:28:01.823	4.12870929E+0	-2.50500000E+3	2.00000000E+0	-9.80625433E+0	7.22169200E+6
254	12/06/2023	17:28:03.810	3.36977230E+0	-2.51500000E+3	2.00000000E+0	-9.80625433E+0	7.22169200E+6
255	12/06/2023	17:28:05.647	4.50108313E+0	-2.50000000E+3	2.00000000E+0	-9.80625433E+0	7.22169200E+6
256	12/06/2023	17:28:07.317	5.47094248E+0	-2.47700000E+3	2.00000000E+0	-9.80625433E+0	7.22169200E+6
257	12/06/2023	17:28:09.166	5.17181623E+0	-2.50200000E+3	2.00000000E+0	-9.80625433E+0	7.22169200E+6
258	12/06/2023	17:28:11.091	1.95544201E+0	-2.37100000E+3	2.00000000E+0	-9.80625433E+0	7.22169200E+6
259	12/06/2023	17:28:13.093	3.62901505E+0	-2.14500000E+3	2.00000000E+0	-9.80625433E+0	7.22169200E+6
260	12/06/2023	17:28:15.014	5.09089874E+0	-2.23000000E+3	2.00000000E+0	-9.80625433E+0	7.22169200E+6
261	12/06/2023	17:28:16.935	1.19765550E+0	-2.45100000E+3	2.00000000E+0	-9.80625433E+0	7.22169200E+6
262	12/06/2023	17:28:18.875	1.71537402E+0	-2.51200000E+3	2.00000000E+0	-9.80625433E+0	7.22169200E+6
263	12/06/2023	17:28:20.813	6.03813188E+0	-2.51200000E+3	2.00000000E+0	-9.80625433E+0	7.22169200E+6
264	12/06/2023	17:28:22.732	5.26193760E+0	-2.44600000E+3	2.00000000E+0	-9.80625433E+0	7.22169200E+6
265	12/06/2023	17:28:24.597	2.12724786E+0	-2.28000000E+3	2.00000000E+0	-9.80625433E+0	7.22169200E+6
266	12/06/2023	17:28:26.484	2.98589360E+0	-2.09400000E+3	2.00000000E+0	-9.80625433E+0	7.22169200E+6
267	12/06/2023	17:28:28.349	5.01151523E+0	-2.33800000E+3	2.00000000E+0	-9.80625433E+0	7.22169200E+6
268	12/06/2023	17:28:30.090	6.23985035E+0	-2.48200000E+3	2.00000000E+0	-9.80625433E+0	7.22169200E+6
269	12/06/2023	17:28:31.828	5.88665127E+0	-2.51600000E+3	2.00000000E+0	-9.80625433E+0	7.22169200E+6
270	12/06/2023	17:28:33.836	2.10385465E+0	-2.51800000E+3	2.00000000E+0	-9.80625433E+0	7.22169200E+6
271	12/06/2023	17:28:35.757	1.76024295E-1	-2.52000000E+3	2.00000000E+0	-9.80625433E+0	7.22169200E+6
272	12/06/2023	17:28:37.685	1.28202444E+0	-2.46700000E+3	2.00000000E+0	-9.80625433E+0	7.22169200E+6
273	12/06/2023	17:28:39.600	2.41601974E-2	-2.32300000E+3	2.00000000E+0	-9.80625433E+0	7.22169200E+6
274	12/06/2023	17:28:41.475	6.12940373E+0	-2.15100000E+3	2.00000000E+0	-9.80625433E+0	7.22169200E+6
275	12/06/2023	17:28:43.442	1.38825261E-1	-2.11600000E+3	2.00000000E+0	-9.80625433E+0	7.22169200E+6
276	12/06/2023	17:28:45.364	2.75349551E+0	-2.39000000E+3	2.00000000E+0	-9.80625433E+0	7.22169200E+6
277	12/06/2023	17:28:47.282	9.65640906E-1	-2.50400000E+3	2.00000000E+0	-9.80625433E+0	7.22169200E+6
278	12/06/2023	17:28:49.308	4.06696656E+0	-2.51400000E+3	2.00000000E+0	-9.80625433E+0	7.22169200E+6
279	12/06/2023	17:28:51.067	4.00407335E+0	-2.50600000E+3	2.00000000E+0	-9.80625433E+0	7.22169200E+6
280	12/06/2023	17:28:52.986	3.13507324E+0	-2.50800000E+3	2.00000000E+0	-9.80625433E+0	7.22169200E+6
281	12/06/2023	17:28:54.740	4.40597632E+0	-2.46700000E+3	2.00000000E+0	-9.80625433E+0	7.22169200E+6
282	12/06/2023	17:28:56.638	2.21851971E+0	-2.39100000E+3	2.00000000E+0	-9.80625433E+0	7.22169200E+6
283	12/06/2023	17:28:58.608	1.40550990E+0	-2.27300000E+3	2.00000000E+0	-9.80625433E+0	7.22169200E+6
284	12/06/2023	17:29:00.506	2.70249065E+0	-2.36900000E+3	2.00000000E+0	-9.80625433E+0	7.22169200E+6
285	12/06/2023	17:29:02.396	1.86762161E-1	-2.46100000E+3	2.00000000E+0	-9.80625433E+0	7.22169200E+6
286	12/06/2023	17:29:04.367	2.68139842E+0	-2.47100000E+3	2.00000000E+0	-9.80625433E+0	7.22169200E+6
287	12/06/2023	17:29:06.270	3.14466062E-2	-2.50700000E+3	2.00000000E+0	-9.80625433E+0	7.22169200E+6
288	12/06/2023	17:29:08.337	3.80427235E+0	-2.51400000E+3	2.00000000E+0	-9.80625433E+0	7.22169200E+6
289	12/06/2023	17:29:10.121	1.91747598E-2	-2.50500000E+3	2.00000000E+0	-9.80625433E+0	7.22169200E+6
290	12/06/2023	17:29:11.959	2.70632561E+0	-2.46200000E+3	2.00000000E+0	-9.80625433E+0	7.22169200E+6
291	12/06/2023	17:29:14.132	2.56750034E+0	-2.34000000E+3	2.00000000E+0	-9.80625433E+0	7.22169200E+6
292	12/06/2023	17:29:15.991	6.65747662E-1	-2.17900000E+3	2.00000000E+0	-9.80625433E+0	7.22169200E+6
293	12/06/2023	17:29:17.728	1.55315555E+0	-2.06200000E+3	2.00000000E+0	-9.80625433E+0	7.22169200E+6
294	12/06/2023	17:29:19.645	7.45131168E-1	-2.26800000E+3	2.00000000E+0	-9.80625433E+0	7.22169200E+6
295	12/06/2023	17:29:21.626	3.24475286E+0	-2.40100000E+3	2.00000000E+0	-9.80625433E+0	7.22169200E+6
296	12/06/2023	17:29:23.592	5.06980650E-1	-2.48000000E+3	2.00000000E+0	-9.80625433E+0	7.22169200E+6
297	12/06/2023	17:29:25.507	1.91134006E+0	-2.51000000E+3	2.00000000E+0	-9.80625433E+0	7.22169200E+6
298	12/06/2023	17:29:27.427	1.99417502E-1	-2.50800000E+3	2.00000000E+0	-9.80625433E+0	7.22169200E+6
299	12/06/2023	17:29:29.453	4.52716080E+0	-2.51100000E+3	2.00000000E+0	-9.80625433E+0	7.22169200E+6
300	12/06/2023	17:29:31.357	2.18553913E+0	-2.50900000E+3	2.00000000E+0	-9.80625433E+0	7.22169200E+6
301	12/06/2023	17:29:33.280	2.03827697E+0	-2.45200000E+3	2.00000000E+0	-9.80625433E+0	7.22169200E+6
302	12/06/2023	17:29:35.172	1.41049533E+0	-2.33200000E+3	2.00000000E+0	-9.80625433E+0	7.22169200E+6
303	12/06/2023	17:29:37.072	2.57977219E+0	-2.17400000E+3	2.00000000E+0	-9.80625433E+0	7.22169200E+6
304	12/06/2023	17:29:38.987	5.83066097E+0	-2.15700000E+3	2.00000000E+0	-9.80625433E+0	7.22169200E+6
305	12/06/2023	17:29:40.874	5.00346183E+0	-2.34300000E+3	2.00000000E+0	-9.80625433E+0	7.22169200E+6
306	12/06/2023	17:29:42.574	5.06213660E-1	-2.44300000E+3	2.00000000E+0	-9.80625433E+0	7.22169200E+6
307	12/06/2023	17:29:44.444	1.93281579E-1	-2.49900000E+3	2.00000000E+0	-9.80625433E+0	7.22169200E+6
308	12/06/2023	17:29:46.321	2.06358765E+0	-2.52100000E+3	2.00000000E+0	-9.80625433E+0	7.22169200E+6
309	12/06/2023	17:29:48.321	4.84507832E+0	-2.51200000E+3	2.00000000E+0	-9.80625433E+0	7.22169200E+6
310	12/06/2023	17:29:50.237	5.53652016E+0	-2.49200000E+3	2.00000000E+0	-9.80625433E+0	7.22169200E+6
311	12/06/2023	17:29:52.141	4.16053939E+0	-2.40000000E+3	2.00000000E+0	-9.80625433E+0	7.22169200E+6
312	12/06/2023	17:29:54.194	9.93252560E-1	-2.21500000E+3	2.00000000E+0	-9.80625433E+0	7.22169200E+6
313	12/06/2023	17:29:56.082	2.93450525E+0	-2.17200000E+3	2.00000000E+0	-9.80625433E+0	7.22169200E+6
314	12/06/2023	17:29:58.009	8.64014679E-1	-2.38900000E+3	2.00000000E+0	-9.80625433E+0	7.22169200E+6
315	12/06/2023	17:29:59.776	2.55983044E+0	-2.47600000E+3	2.00000000E+0	-9.80625433E+0	7.22169200E+6
316	12/06/2023	17:30:01.678	1.49831573E+0	-2.51400000E+3	2.00000000E+0	-9.80625433E+0	7.22169200E+6
317	12/06/2023	17:30:03.515	3.93466072E-1	-2.51800000E+3	2.00000000E+0	-9.80625433E+0	7.22169200E+6
318	12/06/2023	17:30:05.250	6.06305906E-1	-2.51200000E+3	2.00000000E+0	-9.80625433E+0	7.22169200E+6
319	12/06/2023	17:30:07.158	4.29514621E+0	-2.46600000E+3	2.00000000E+0	-9.80625433E+0	7.22169200E+6
320	12/06/2023	17:30:09.237	8.53276813E-1	-2.37800000E+3	2.00000000E+0	-9.80625433E+0	7.22169200E+6
321	12/06/2023	17:30:11.338	9.33043814E-1	-2.16100000E+3	2.00000000E+0	-9.80625433E+0	7.22169200E+6
322	12/06/2023	17:30:13.289	1.49601476E+0	-2.10600000E+3	2.00000000E+0	-9.80625433E+0	7.22169200E+6
323	12/06/2023	17:30:15.079	3.84875780E+0	-2.31800000E+3	2.00000000E+0	-9.80625433E+0	7.22169200E+6
324	12/06/2023	17:30:16.948	2.63384501E+0	-2.46200000E+3	2.00000000E+0	-9.80625433E+0	7.22169200E+6
325	12/06/2023	17:30:18.926	4.01366073E+0	-2.51400000E+3	2.00000000E+0	-9.80625433E+0	7.22169200E+6
326	12/06/2023	17:30:20.859	5.26232109E+0	-2.50100000E+3	2.00000000E+0	-9.80625433E+0	7.22169200E+6
327	12/06/2023	17:30:22.779	3.70954904E+0	-2.51800000E+3	2.00000000E+0	-9.80625433E+0	7.22169200E+6
328	12/06/2023	17:30:24.729	5.97102022E-1	-2.47600000E+3	2.00000000E+0	-9.80625433E+0	7.22169200E+6
329	12/06/2023	17:30:26.445	2.60316540E+0	-2.34600000E+3	2.00000000E+0	-9.80625433E+0	7.22169200E+6
330	12/06/2023	17:30:28.190	4.33272874E+0	-2.15100000E+3	2.00000000E+0	-9.80625433E+0	7.22169200E+6
331	12/06/2023	17:30:30.125	4.25948115E+0	-2.30800000E+3	2.00000000E+0	-9.80625433E+0	7.22169200E+6
332	12/06/2023	17:30:32.049	1.33839824E-1	-2.45900000E+3	2.00000000E+0	-9.80625433E+0	7.22169200E+6
333	12/06/2023	17:30:34.054	6.14014160E+0	-2.50800000E+3	2.00000000E+0	-9.80625433E+0	7.22169200E+6
334	12/06/2023	17:30:35.976	2.28371390E+0	-2.51900000E+3	2.00000000E+0	-9.80625433E+0	7.22169200E+6
335	12/06/2023	17:30:37.926	3.01734021E+0	-2.46100000E+3	2.00000000E+0	-9.80625433E+0	7.22169200E+6
336	12/06/2023	17:30:39.903	4.21691319E+0	-2.35400000E+3	2.00000000E+0	-9.80625433E+0	7.22169200E+6
337	12/06/2023	17:30:41.885	1.45728175E-2	-2.14500000E+3	2.00000000E+0	-9.80625433E+0	7.22169200E+6
338	12/06/2023	17:30:43.907	5.58023861E+0	-2.30900000E+3	2.00000000E+0	-9.80625433E+0	7.22169200E+6
339	12/06/2023	17:30:45.680	1.97883522E-1	-2.44200000E+3	2.00000000E+0	-9.80625433E+0	7.22169200E+6
340	12/06/2023	17:30:47.514	6.01090372E+0	-2.51000000E+3	2.00000000E+0	-9.80625433E+0	7.22169200E+6
341	12/06/2023	17:30:49.369	5.66000561E+0	-2.51900000E+3	2.00000000E+0	-9.80625433E+0	7.22169200E+6
342	12/06/2023	17:30:51.176	6.14742801E+0	-2.49400000E+3	2.00000000E+0	-9.80625433E+0	7.22169200E+6
343	12/06/2023	17:30:53.182	5.44409782E+0	-2.37700000E+3	2.00000000E+0	-9.80625433E+0	7.22169200E+6
344	12/06/2023	17:30:55.097	9.36878766E-1	-2.21700000E+3	2.00000000E+0	-9.80625433E+0	7.22169200E+6
345	12/06/2023	17:30:56.953	3.27159753E+0	-2.25500000E+3	2.00000000E+0	-9.80625433E+0	7.22169200E+6
346	12/06/2023	17:30:58.901	1.48911185E+0	-2.47100000E+3	2.00000000E+0	-9.80625433E+0	7.22169200E+6
347	12/06/2023	17:31:00.789	2.68830133E-1	-2.50900000E+3	2.00000000E+0	-9.80625433E+0	7.22169200E+6
348	12/06/2023	17:31:02.744	2.87506349E+0	-2.48700000E+3	2.00000000E+0	-9.80625433E+0	7.22169200E+6
349	12/06/2023	17:31:04.695	1.50905360E+0	-2.16200000E+3	2.00000000E+0	-9.80625433E+0	7.22169200E+6
350	12/06/2023	17:31:06.549	5.75281145E+0	-2.28900000E+3	2.00000000E+0	-9.80625433E+0	7.22169200E+6
351	12/06/2023	17:31:08.498	6.03468042E+0	-2.51600000E+3	2.00000000E+0	-9.80625433E+0	7.22169200E+6
352	12/06/2023	17:31:10.300	2.87659747E+0	-2.51300000E+3	2.00000000E+0	-9.80625433E+0	7.22169200E+6
353	12/06/2023	17:31:12.026	2.09234979E+0	-2.29000000E+3	2.00000000E+0	-9.80625433E+0	7.22169200E+6
354	12/06/2023	17:31:13.983	1.92514589E+0	-2.10000000E+3	2.00000000E+0	-9.80625433E+0	7.22169200E+6
355	12/06/2023	17:31:15.871	6.81087470E-1	-2.49600000E+3	2.00000000E+0	-9.80625433E+0	7.22169200E+6
356	12/06/2023	17:31:17.793	5.18753953E+0	-2.51300000E+3	2.00000000E+0	-9.80625433E+0	7.22169200E+6
357	12/06/2023	17:31:19.682	2.66797609E+0	-2.32100000E+3	2.00000000E+0	-9.80625433E+0	7.22169200E+6
358	12/06/2023	17:31:21.757	2.38265566E+0	-2.22400000E+3	2.00000000E+0	-9.80625433E+0	7.22169200E+6
359	12/06/2023	17:31:23.707	1.51710700E+0	-2.51400000E+3	2.00000000E+0	-9.80625433E+0	7.22169200E+6
360	12/06/2023	17:31:25.617	3.95767043E-1	-2.51300000E+3	2.00000000E+0	-9.80625433E+0	7.22169200E+6
361	12/06/2023	17:31:27.561	3.72335487E+0	-2.41000000E+3	2.00000000E+0	-9.80625433E+0	7.22169200E+6
362	12/06/2023	17:31:29.421	5.21054924E+0	-2.07800000E+3	2.00000000E+0	-9.80625433E+0	7.22169200E+6
363	12/06/2023	17:31:31.240	5.01688417E+0	-2.40100000E+3	2.00000000E+0	-9.80625433E+0	7.22169200E+6
364	12/06/2023	17:31:33.014	6.13362218E+0	-2.51000000E+3	2.00000000E+0	-9.80625433E+0	7.22169200E+6
365	12/06/2023	17:31:34.802	5.99748139E+0	-2.51400000E+3	2.00000000E+0	-9.80625433E+0	7.22169200E+6
366	12/06/2023	17:31:36.560	4.70395209E+0	-2.43900000E+3	2.00000000E+0	-9.80625433E+0	7.22169200E+6
367	12/06/2023	17:31:38.569	5.92423380E+0	-2.12400000E+3	2.00000000E+0	-9.80625433E+0	7.22169200E+6
368	12/06/2023	17:31:40.490	4.80481132E+0	-2.45600000E+3	2.00000000E+0	-9.80625433E+0	7.22169200E+6
369	12/06/2023	17:31:42.500	6.52708825E-1	-2.51000000E+3	2.00000000E+0	-9.80625433E+0	7.22169200E+6
370	12/06/2023	17:31:44.415	4.28440834E+0	-2.47300000E+3	2.00000000E+0	-9.80625433E+0	7.22169200E+6
371	12/06/2023	17:31:46.325	4.28095688E+0	-2.16400000E+3	2.00000000E+0	-9.80625433E+0	7.22169200E+6
372	12/06/2023	17:31:48.374	6.05500566E+0	-2.29900000E+3	2.00000000E+0	-9.80625433E+0	7.22169200E+6
373	12/06/2023	17:31:50.262	4.43703943E-1	-2.50900000E+3	2.00000000E+0	-9.80625433E+0	7.22169200E+6
374	12/06/2023	17:31:52.247	2.29138380E+0	-2.51600000E+3	2.00000000E+0	-9.80625433E+0	7.22169200E+6
375	12/06/2023	17:31:54.182	3.70302962E+0	-2.34000000E+3	2.00000000E+0	-9.80625433E+0	7.22169200E+6
376	12/06/2023	17:31:55.955	1.20877686E+0	-2.12400000E+3	2.00000000E+0	-9.80625433E+0	7.22169200E+6
377	12/06/2023	17:31:57.777	4.35880641E+0	-2.43300000E+3	2.00000000E+0	-9.80625433E+0	7.22169200E+6
378	12/06/2023	17:31:59.522	4.67557344E+0	-2.52000000E+3	2.00000000E+0	-9.80625433E+0	7.22169200E+6
379	12/06/2023	17:32:01.442	2.55292753E+0	-2.49600000E+3	2.00000000E+0	-9.80625433E+0	7.22169200E+6
380	12/06/2023	17:32:03.403	5.16299584E+0	-2.21800000E+3	2.00000000E+0	-9.80625433E+0	7.22169200E+6
381	12/06/2023	17:32:05.303	1.18653414E+0	-2.06400000E+3	2.00000000E+0	-9.80625433E+0	7.22169200E+6
382	12/06/2023	17:32:07.311	3.07831595E+0	-2.44500000E+3	2.00000000E+0	-9.80625433E+0	7.22169200E+6
383	12/06/2023	17:32:09.232	4.20310736E+0	-2.50500000E+3	2.00000000E+0	-9.80625433E+0	7.22169200E+6
384	12/06/2023	17:32:11.078	4.23800542E+0	-2.49900000E+3	2.00000000E+0	-9.80625433E+0	7.22169200E+6
385	12/06/2023	17:32:13.123	2.92990330E-1	-2.27000000E+3	2.00000000E+0	-9.80625433E+0	7.22169200E+6
386	12/06/2023	17:32:14.922	1.38825261E-1	-2.15000000E+3	2.00000000E+0	-9.80625433E+0	7.22169200E+6
387	12/06/2023	17:32:16.827	2.04556338E+0	-2.44800000E+3	2.00000000E+0	-9.80625433E+0	7.22169200E+6
388	12/06/2023	17:32:18.701	1.72572839E-1	-2.50200000E+3	2.00000000E+0	-9.80625433E+0	7.22169200E+6
389	12/06/2023	17:32:20.379	3.13085479E+0	-2.49600000E+3	2.00000000E+0	-9.80625433E+0	7.22169200E+6
390	12/06/2023	17:32:22.346	5.78617553E+0	-2.49500000E+3	2.00000000E+0	-9.80625433E+0	7.22169200E+6
391	12/06/2023	17:32:24.194	1.84959733E+0	-2.29400000E+3	2.00000000E+0	-9.80625433E+0	7.22169200E+6
392	12/06/2023	17:32:26.048	3.50668008E+0	-2.27000000E+3	2.00000000E+0	-9.80625433E+0	7.22169200E+6
393	12/06/2023	17:32:28.072	1.13706326E+0	-2.51700000E+3	2.00000000E+0	-9.80625433E+0	7.22169200E+6
394	12/06/2023	17:32:29.975	2.64189841E+0	-2.50800000E+3	2.00000000E+0	-9.80625433E+0	7.22169200E+6
395	12/06/2023	17:32:31.844	8.24514673E-2	-2.45700000E+3	2.00000000E+0	-9.80625433E+0	7.22169200E+6
396	12/06/2023	17:32:33.819	1.72266042E+0	-2.22100000E+3	2.00000000E+0	-9.80625433E+0	7.22169200E+6
397	12/06/2023	17:32:35.803	8.76670020E-1	-2.46800000E+3	2.00000000E+0	-9.80625433E+0	7.22169200E+6
398	12/06/2023	17:32:37.836	5.72558329E+0	-2.48900000E+3	2.00000000E+0	-9.80625433E+0	7.22169200E+6
399	12/06/2023	17:32:39.754	1.41241281E+0	-2.48900000E+3	2.00000000E+0	-9.80625433E+0	7.22169200E+6
400	12/06/2023	17:32:41.532	9.13485559E-1	-2.16500000E+3	2.00000000E+0	-9.80625433E+0	7.22169200E+6
401	12/06/2023	17:32:43.352	3.12395187E+0	-2.29900000E+3	2.00000000E+0	-9.80625433E+0	7.22169200E+6
402	12/06/2023	17:32:45.104	2.16943233E+0	-2.52000000E+3	2.00000000E+0	-9.80625433E+0	7.22169200E+6
403	12/06/2023	17:32:47.044	1.60684488E-1	-2.46100000E+3	2.00000000E+0	-9.80625433E+0	7.22169200E+6
404	12/06/2023	17:32:48.981	5.93957361E+0	-2.50200000E+3	2.00000000E+0	-9.80625433E+0	7.22169200E+6
405	12/06/2023	17:32:50.812	1.47185457E+0	-2.49200000E+3	2.00000000E+0	-9.80625433E+0	7.22169200E+6
406	12/06/2023	17:32:52.839	3.10707809E+0	-2.21400000E+3	2.00000000E+0	-9.80625433E+0	7.22169200E+6
407	12/06/2023	17:32:54.742	3.98489859E+0	-2.31300000E+3	2.00000000E+0	-9.80625433E+0	7.22169200E+6
408	12/06/2023	17:32:56.655	4.03705394E+0	-2.50200000E+3	2.00000000E+0	-9.80625433E+0	7.22169200E+6
409	12/06/2023	17:32:58.649	5.60478230E+0	-2.49600000E+3	2.00000000E+0	-9.80625433E+0	7.22169200E+6
410	12/06/2023	17:33:00.574	1.68546139E+0	-2.46100000E+3	2.00000000E+0	-9.80625433E+0	7.22169200E+6
411	12/06/2023	17:33:02.432	6.56543777E-1	-2.51400000E+3	2.00000000E+0	-9.80625433E+0	7.22169200E+6
412	12/06/2023	17:33:04.421	4.03091802E+0	-2.49300000E+3	2.00000000E+0	-9.80625433E+0	7.22169200E+6
413	12/06/2023	17:33:06.159	6.96427278E-1	-2.36700000E+3	2.00000000E+0	-9.80625433E+0	7.22169200E+6
414	12/06/2023	17:33:07.996	1.67050508E+0	-2.14000000E+3	2.00000000E+0	-9.80625433E+0	7.22169200E+6
415	12/06/2023	17:33:09.878	5.05293272E+0	-2.23400000E+3	2.00000000E+0	-9.80625433E+0	7.22169200E+6
416	12/06/2023	17:33:11.768	8.87791381E-1	-2.46100000E+3	2.00000000E+0	-9.80625433E+0	7.22169200E+6
417	12/06/2023	17:33:13.654	2.92261690E+0	-2.51500000E+3	2.00000000E+0	-9.80625433E+0	7.22169200E+6
418	12/06/2023	17:33:15.562	4.80826278E+0	-2.51700000E+3	2.00000000E+0	-9.80625433E+0	7.22169200E+6
419	12/06/2023	17:33:17.621	1.92284492E+0	-2.40800000E+3	2.00000000E+0	-9.80625433E+0	7.22169200E+6
420	12/06/2023	17:33:19.511	4.25066076E+0	-2.18500000E+3	2.00000000E+0	-9.80625433E+0	7.22169200E+6
421	12/06/2023	17:33:21.392	8.81271963E-1	-2.15700000E+3	2.00000000E+0	-9.80625433E+0	7.22169200E+6
422	12/06/2023	17:33:23.430	4.25679669E+0	-2.40700000E+3	2.00000000E+0	-9.80625433E+0	7.22169200E+6
423	12/06/2023	17:33:25.189	1.40857786E+0	-2.51600000E+3	2.00000000E+0	-9.80625433E+0	7.22169200E+6
424	12/06/2023	17:33:27.030	2.21391777E+0	-2.51300000E+3	2.00000000E+0	-9.80625433E+0	7.22169200E+6
425	12/06/2023	17:33:28.838	5.97753964E+0	-2.48500000E+3	2.00000000E+0	-9.80625433E+0	7.22169200E+6
426	12/06/2023	17:33:30.576	1.78517014E+0	-2.32300000E+3	2.00000000E+0	-9.80625433E+0	7.22169200E+6
427	12/06/2023	17:33:32.603	5.04296184E-1	-2.04600000E+3	2.00000000E+0	-9.80625433E+0	7.22169200E+6
428	12/06/2023	17:33:34.506	4.12985978E+0	-2.36200000E+3	2.00000000E+0	-9.80625433E+0	7.22169200E+6
429	12/06/2023	17:33:36.437	5.14190360E+0	-2.50500000E+3	2.00000000E+0	-9.80625433E+0	7.22169200E+6
430	12/06/2023	17:33:38.436	2.48121392E-1	-2.50300000E+3	2.00000000E+0	-9.80625433E+0	7.22169200E+6
431	12/06/2023	17:33:40.347	5.08437932E+0	-2.50300000E+3	2.00000000E+0	-9.80625433E+0	7.22169200E+6
432	12/06/2023	17:33:42.379	1.21874774E+0	-2.37000000E+3	2.00000000E+0	-9.80625433E+0	7.22169200E+6
433	12/06/2023	17:33:44.291	3.78893255E-1	-2.11800000E+3	2.00000000E+0	-9.80625433E+0	7.22169200E+6
434	12/06/2023	17:33:46.122	6.27206395E+0	-2.28300000E+3	2.00000000E+0	-9.80625433E+0	7.22169200E+6
435	12/06/2023	17:33:48.064	4.70011713E+0	-2.46600000E+3	2.00000000E+0	-9.80625433E+0	7.22169200E+6
436	12/06/2023	17:33:49.902	6.27129696E+0	-2.51400000E+3	2.00000000E+0	-9.80625433E+0	7.22169200E+6
437	12/06/2023	17:33:51.758	3.49594222E+0	-2.52000000E+3	2.00000000E+0	-9.80625433E+0	7.22169200E+6
438	12/06/2023	17:33:53.649	1.42698563E+0	-2.47400000E+3	2.00000000E+0	-9.80625433E+0	7.22169200E+6
439	12/06/2023	17:33:55.536	9.02364198E-1	-2.32100000E+3	2.00000000E+0	-9.80625433E+0	7.22169200E+6
440	12/06/2023	17:33:57.504	1.91057307E+0	-2.15400000E+3	2.00000000E+0	-9.80625433E+0	7.22169200E+6
441	12/06/2023	17:33:59.409	4.71622393E+0	-2.39500000E+3	2.00000000E+0	-9.80625433E+0	7.22169200E+6
442	12/06/2023	17:34:01.322	4.34921903E+0	-2.51300000E+3	2.00000000E+0	-9.80625433E+0	7.22169200E+6
443	12/06/2023	17:34:03.304	4.55438896E+0	-2.51800000E+3	2.00000000E+0	-9.80625433E+0	7.22169200E+6
444	12/06/2023	17:34:05.219	2.61850520E+0	-2.48600000E+3	2.00000000E+0	-9.80625433E+0	7.22169200E+6
445	12/06/2023	17:34:07.219	3.26354413E-1	-2.24100000E+3	2.00000000E+0	-9.80625433E+0	7.22169200E+6
446	12/06/2023	17:34:09.080	3.07793245E+0	-2.10800000E+3	2.00000000E+0	-9.80625433E+0	7.22169200E+6
447	12/06/2023	17:34:10.850	1.15853899E+0	-2.40300000E+3	2.00000000E+0	-9.80625433E+0	7.22169200E+6
448	12/06/2023	17:34:12.764	2.33088381E+0	-2.51500000E+3	2.00000000E+0	-9.80625433E+0	7.22169200E+6
449	12/06/2023	17:34:14.510	1.34530115E+0	-2.51500000E+3	2.00000000E+0	-9.80625433E+0	7.22169200E+6
450	12/06/2023	17:34:16.240	1.17042734E+0	-2.47000000E+3	2.00000000E+0	-9.80625433E+0	7.22169200E+6
451	12/06/2023	17:34:18.167	5.03605893E+0	-2.22900000E+3	2.00000000E+0	-9.80625433E+0	7.22169200E+6
452	12/06/2023	17:34:20.095	2.99816545E+0	-2.10400000E+3	2.00000000E+0	-9.80625433E+0	7.22169200E+6
453	12/06/2023	17:34:22.199	4.15670444E+0	-2.44600000E+3	2.00000000E+0	-9.80625433E+0	7.22169200E+6
454	12/06/2023	17:34:24.132	1.49563127E-2	-2.50900000E+3	2.00000000E+0	-9.80625433E+0	7.22169200E+6
455	12/06/2023	17:34:26.051	4.30128213E+0	-2.52000000E+3	2.00000000E+0	-9.80625433E+0	7.22169200E+6
456	12/06/2023	17:34:28.197	2.70364114E+0	-2.45300000E+3	2.00000000E+0	-9.80625433E+0	7.22169200E+6
457	12/06/2023	17:34:30.126	4.95782591E+0	-2.24500000E+3	2.00000000E+0	-9.80625433E+0	7.22169200E+6
458	12/06/2023	17:34:32.074	2.49118480E+0	-2.08900000E+3	2.00000000E+0	-9.80625433E+0	7.22169200E+6
459	12/06/2023	17:34:33.892	2.73623823E+0	-2.32200000E+3	2.00000000E+0	-9.80625433E+0	7.22169200E+6
460	12/06/2023	17:34:35.663	4.03053452E+0	-2.49000000E+3	2.00000000E+0	-9.80625433E+0	7.22169200E+6
461	12/06/2023	17:34:37.583	2.18592262E-2	-2.51700000E+3	2.00000000E+0	-9.80625433E+0	7.22169200E+6
462	12/06/2023	17:34:39.311	2.52263141E+0	-2.50800000E+3	2.00000000E+0	-9.80625433E+0	7.22169200E+6
463	12/06/2023	17:34:41.231	5.61053473E+0	-2.45400000E+3	2.00000000E+0	-9.80625433E+0	7.22169200E+6
464	12/06/2023	17:34:43.178	5.86862700E+0	-2.34000000E+3	2.00000000E+0	-9.80625433E+0	7.22169200E+6
465	12/06/2023	17:34:45.095	5.90620953E+0	-2.25100000E+3	2.00000000E+0	-9.80625433E+0	7.22169200E+6
466	12/06/2023	17:34:47.112	1.88679637E+0	-2.45700000E+3	2.00000000E+0	-9.80625433E+0	7.22169200E+6
467	12/06/2023	17:34:48.915	6.20725326E+0	-2.51200000E+3	2.00000000E+0	-9.80625433E+0	7.22169200E+6
468	12/06/2023	17:34:50.743	4.74728704E+0	-2.51200000E+3	2.00000000E+0	-9.80625433E+0	7.22169200E+6
469	12/06/2023	17:34:52.764	9.19621482E-1	-2.40500000E+3	2.00000000E+0	-9.80625433E+0	7.22169200E+6
470	12/06/2023	17:34:54.696	1.43043708E-1	-2.16100000E+3	2.00000000E+0	-9.80625433E+0	7.22169200E+6
471	12/06/2023	17:34:56.536	5.50890850E+0	-2.17700000E+3	2.00000000E+0	-9.80625433E+0	7.22169200E+6
472	12/06/2023	17:34:58.312	5.74169009E+0	-2.37200000E+3	2.00000000E+0	-9.80625433E+0	7.22169200E+6
473	12/06/2023	17:35:00.059	4.01020927E+0	-2.49100000E+3	2.00000000E+0	-9.80625433E+0	7.22169200E+6
474	12/06/2023	17:35:01.906	6.84922422E-1	-2.51600000E+3	2.00000000E+0	-9.80625433E+0	7.22169200E+6
475	12/06/2023	17:35:03.750	4.15555395E+0	-2.52000000E+3	2.00000000E+0	-9.80625433E+0	7.22169200E+6
476	12/06/2023	17:35:05.670	3.10592760E+0	-2.50500000E+3	2.00000000E+0	-9.80625433E+0	7.22169200E+6
477	12/06/2023	17:35:07.684	2.65110230E+0	-2.48100000E+3	2.00000000E+0	-9.80625433E+0	7.22169200E+6
478	12/06/2023	17:35:09.610	2.09810222E+0	-2.45400000E+3	2.00000000E+0	-9.80625433E+0	7.22169200E+6
479	12/06/2023	17:35:11.594	2.78187416E+0	-2.37600000E+3	2.00000000E+0	-9.80625433E+0	7.22169200E+6
480	12/06/2023	17:35:13.528	6.19037947E+0	-2.29300000E+3	2.00000000E+0	-9.80625433E+0	7.22169200E+6
481	12/06/2023	17:35:15.430	2.06818960E+0	-2.18300000E+3	2.00000000E+0	-9.80625433E+0	7.22169200E+6
482	12/06/2023	17:35:17.387	3.35251501E+0	-2.19000000E+3	2.00000000E+0	-9.80625433E+0	7.22169200E+6
483	12/06/2023	17:35:19.216	5.25963663E+0	-2.31000000E+3	2.00000000E+0	-9.80625433E+0	7.22169200E+6
484	12/06/2023	17:35:21.052	5.66422406E+0	-2.38800000E+3	2.00000000E+0	-9.80625433E+0	7.22169200E+6
485	12/06/2023	17:35:22.980	4.60577732E+0	-2.43600000E+3	2.00000000E+0	-9.80625433E+0	7.22169200E+6
486	12/06/2023	17:35:24.715	5.79844738E-1	-2.48100000E+3	2.00000000E+0	-9.80625433E+0	7.22169200E+6
487	12/06/2023	17:35:26.685	5.92308332E+0	-2.50800000E+3	2.00000000E+0	-9.80625433E+0	7.22169200E+6
488	12/06/2023	17:35:28.568	4.00675782E+0	-2.50900000E+3	2.00000000E+0	-9.80625433E+0	7.22169200E+6
489	12/06/2023	17:35:30.501	3.80388886E+0	-2.51300000E+3	2.00000000E+0	-9.80625433E+0	7.22169200E+6
490	12/06/2023	17:35:32.550	2.15217505E+0	-2.51200000E+3	2.00000000E+0	-9.80625433E+0	7.22169200E+6
491	12/06/2023	17:35:34.427	2.29790322E+0	-2.50900000E+3	2.00000000E+0	-9.80625433E+0	7.22169200E+6
492	12/06/2023	17:35:36.418	1.58191769E+0	-2.49200000E+3	2.00000000E+0	-9.80625433E+0	7.22169200E+6
493	12/06/2023	17:35:38.373	3.02385963E+0	-2.36700000E+3	2.00000000E+0	-9.80625433E+0	7.22169200E+6
494	12/06/2023	17:35:40.201	3.58913155E+0	-2.20000000E+3	2.00000000E+0	-9.80625433E+0	7.22169200E+6
495	12/06/2023	17:35:42.468	2.44248091E+0	-2.10900000E+3	2.00000000E+0	-9.80625433E+0	7.22169200E+6
496	12/06/2023	17:35:44.329	1.77174781E+0	-2.32400000E+3	2.00000000E+0	-9.80625433E+0	7.22169200E+6
497	12/06/2023	17:35:46.052	3.52317037E+0	-2.47800000E+3	2.00000000E+0	-9.80625433E+0	7.22169200E+6
498	12/06/2023	17:35:47.860	5.15417545E+0	-2.51500000E+3	2.00000000E+0	-9.80625433E+0	7.22169200E+6
499	12/06/2023	17:35:49.689	2.00414590E+0	-2.49000000E+3	2.00000000E+0	-9.80625433E+0	7.22169200E+6
500	12/06/2023	17:35:51.639	4.79637443E+0	-2.51000000E+3	2.00000000E+0	-9.80625433E+0	7.22169200E+6
