#Iteration	Date	Time	STSX	STSY	RotationRateX	RotationRateY	FrCntX	FrCntY	TiptiltCmd1	TiptiltCmd2	TiptiltMonitor1	TiptiltMonitor2
1	15/03/2023	18:06:33.305	0.00000E+0	0.00000E+0	1.53370E-1	-9.59433E-2	0.00000E+0	0.00000E+0	2.12546E+1	1.36986E+1	2.12542E+1	1.36984E+1
2	15/03/2023	18:06:34.811	0.00000E+0	0.00000E+0	-6.75509E-1	1.64533E-1	0.00000E+0	0.00000E+0	2.12403E+1	1.37097E+1	2.12426E+1	1.37108E+1
3	15/03/2023	18:06:36.325	0.00000E+0	0.00000E+0	3.18109E+0	4.96785E-1	0.00000E+0	0.00000E+0	2.12523E+1	1.36728E+1	2.12528E+1	1.36733E+1
4	15/03/2023	18:06:37.816	0.00000E+0	0.00000E+0	4.58145E+1	-2.35239E+0	0.00000E+0	0.00000E+0	2.19033E+1	1.30845E+1	2.19039E+1	1.30846E+1
5	15/03/2023	18:06:39.354	0.00000E+0	0.00000E+0	2.12956E+1	8.23497E-1	0.00000E+0	0.00000E+0	2.15554E+1	1.34155E+1	2.15567E+1	1.34154E+1
6	15/03/2023	18:06:40.834	0.00000E+0	0.00000E+0	2.96495E+1	2.13547E+0	0.00000E+0	0.00000E+0	2.16939E+1	1.33098E+1	2.16938E+1	1.33079E+1
7	15/03/2023	18:06:42.385	0.00000E+0	0.00000E+0	2.41989E+1	4.89410E-1	0.00000E+0	0.00000E+0	2.15599E+1	1.33348E+1	2.15591E+1	1.33344E+1
8	15/03/2023	18:06:43.849	0.00000E+0	0.00000E+0	-1.54287E+1	2.81849E-1	0.00000E+0	0.00000E+0	2.10750E+1	1.39307E+1	2.10735E+1	1.39312E+1
9	15/03/2023	18:06:45.319	0.00000E+0	0.00000E+0	-2.14146E+1	-1.08893E+0	0.00000E+0	0.00000E+0	2.09396E+1	1.39798E+1	2.09386E+1	1.39796E+1
10	15/03/2023	18:06:46.770	0.00000E+0	0.00000E+0	-1.33723E+1	3.96357E-1	0.00000E+0	0.00000E+0	2.10765E+1	1.38815E+1	2.10787E+1	1.38841E+1
11	15/03/2023	18:06:48.305	0.00000E+0	0.00000E+0	-1.55481E+1	3.50050E-2	0.00000E+0	0.00000E+0	2.10052E+1	1.39455E+1	2.10039E+1	1.39435E+1
12	15/03/2023	18:06:49.797	0.00000E+0	0.00000E+0	-4.50831E+1	-2.14391E-1	0.00000E+0	0.00000E+0	2.06293E+1	1.43172E+1	2.06302E+1	1.43150E+1
13	15/03/2023	18:06:51.278	0.00000E+0	0.00000E+0	-2.71137E+1	-5.41892E-1	0.00000E+0	0.00000E+0	2.08871E+1	1.40583E+1	2.08877E+1	1.40580E+1
14	15/03/2023	18:06:52.753	0.00000E+0	0.00000E+0	-2.02615E+1	-9.64883E-1	0.00000E+0	0.00000E+0	2.09605E+1	1.39673E+1	2.09620E+1	1.39663E+1
15	15/03/2023	18:06:54.212	0.00000E+0	0.00000E+0	-1.37918E+1	4.74396E-1	0.00000E+0	0.00000E+0	2.10459E+1	1.39150E+1	2.10444E+1	1.39142E+1
16	15/03/2023	18:06:55.703	0.00000E+0	0.00000E+0	-2.78876E+1	5.64849E-2	0.00000E+0	0.00000E+0	2.08744E+1	1.40723E+1	2.08734E+1	1.40702E+1
17	15/03/2023	18:06:57.217	0.00000E+0	0.00000E+0	-3.47391E+1	-3.51641E-1	0.00000E+0	0.00000E+0	2.07255E+1	1.42304E+1	2.07259E+1	1.42299E+1
18	15/03/2023	18:06:58.701	0.00000E+0	0.00000E+0	2.72320E+1	9.63628E-1	0.00000E+0	0.00000E+0	2.16221E+1	1.33223E+1	2.16220E+1	1.33213E+1
19	15/03/2023	18:07:00.213	0.00000E+0	0.00000E+0	1.50303E+1	1.28626E-1	0.00000E+0	0.00000E+0	2.14829E+1	1.34670E+1	2.14809E+1	1.34663E+1
20	15/03/2023	18:07:01.674	0.00000E+0	0.00000E+0	2.39294E+1	9.81161E-2	0.00000E+0	0.00000E+0	2.15941E+1	1.33708E+1	2.15954E+1	1.33709E+1
21	15/03/2023	18:07:03.188	0.00000E+0	0.00000E+0	2.20866E+1	6.24736E-1	0.00000E+0	0.00000E+0	2.15662E+1	1.34038E+1	2.15676E+1	1.34055E+1
22	15/03/2023	18:07:04.699	0.00000E+0	0.00000E+0	2.42011E+1	5.31673E-1	0.00000E+0	0.00000E+0	2.15764E+1	1.33847E+1	2.15766E+1	1.33841E+1
23	15/03/2023	18:07:06.199	0.00000E+0	0.00000E+0	3.44426E+1	1.29608E+0	0.00000E+0	0.00000E+0	2.17342E+1	1.32511E+1	2.17321E+1	1.32520E+1
24	15/03/2023	18:07:07.705	0.00000E+0	0.00000E+0	1.74473E+1	-4.52834E-1	0.00000E+0	0.00000E+0	2.15139E+1	1.34410E+1	2.15130E+1	1.34386E+1
25	15/03/2023	18:07:09.210	0.00000E+0	0.00000E+0	2.89388E+1	2.55026E+0	0.00000E+0	0.00000E+0	2.16611E+1	1.33217E+1	2.16633E+1	1.33190E+1
26	15/03/2023	18:07:10.719	0.00000E+0	0.00000E+0	1.86298E+1	4.37302E-1	0.00000E+0	0.00000E+0	2.15269E+1	1.34472E+1	2.15245E+1	1.34461E+1
27	15/03/2023	18:07:12.238	0.00000E+0	0.00000E+0	5.68906E+0	7.05288E-1	0.00000E+0	0.00000E+0	2.14184E+1	1.35748E+1	2.14175E+1	1.35740E+1
28	15/03/2023	18:07:13.749	0.00000E+0	0.00000E+0	-1.58051E+1	9.48460E-1	0.00000E+0	0.00000E+0	2.10386E+1	1.39251E+1	2.10422E+1	1.39246E+1
29	15/03/2023	18:07:15.223	0.00000E+0	0.00000E+0	-7.11214E+0	-5.39650E-1	0.00000E+0	0.00000E+0	2.11438E+1	1.38045E+1	2.11455E+1	1.38044E+1
30	15/03/2023	18:07:16.741	0.00000E+0	0.00000E+0	-3.17395E+1	8.75902E-1	0.00000E+0	0.00000E+0	2.08347E+1	1.41529E+1	2.08366E+1	1.41547E+1
31	15/03/2023	18:07:18.224	0.00000E+0	0.00000E+0	-1.21176E+1	-1.13617E+0	0.00000E+0	0.00000E+0	2.10884E+1	1.38580E+1	2.10881E+1	1.38558E+1
32	15/03/2023	18:07:19.723	0.00000E+0	0.00000E+0	-3.53845E+1	-1.19756E+0	0.00000E+0	0.00000E+0	2.07540E+1	1.41728E+1	2.07533E+1	1.41735E+1
33	15/03/2023	18:07:21.218	0.00000E+0	0.00000E+0	-2.61699E+1	-1.52752E+0	0.00000E+0	0.00000E+0	2.08857E+1	1.40416E+1	2.08875E+1	1.40412E+1
34	15/03/2023	18:07:22.715	0.00000E+0	0.00000E+0	-1.59549E+1	-7.82409E-1	0.00000E+0	0.00000E+0	2.10320E+1	1.39119E+1	2.10279E+1	1.39134E+1
35	15/03/2023	18:07:24.262	0.00000E+0	0.00000E+0	-4.37245E+1	-5.02708E-1	0.00000E+0	0.00000E+0	2.06320E+1	1.43296E+1	2.06307E+1	1.43291E+1
36	15/03/2023	18:07:25.744	0.00000E+0	0.00000E+0	-3.00159E+1	3.87309E-1	0.00000E+0	0.00000E+0	2.08178E+1	1.41362E+1	2.08168E+1	1.41366E+1
37	15/03/2023	18:07:27.241	0.00000E+0	0.00000E+0	-5.49293E+0	-3.96031E-1	0.00000E+0	0.00000E+0	2.11031E+1	1.38371E+1	2.11031E+1	1.38370E+1
38	15/03/2023	18:07:28.715	0.00000E+0	0.00000E+0	3.13344E+1	5.12092E-1	0.00000E+0	0.00000E+0	2.16872E+1	1.32870E+1	2.16894E+1	1.32874E+1
39	15/03/2023	18:07:30.196	0.00000E+0	0.00000E+0	1.24346E+1	1.51196E-1	0.00000E+0	0.00000E+0	2.14339E+1	1.35279E+1	2.14349E+1	1.35273E+1
40	15/03/2023	18:07:31.699	0.00000E+0	0.00000E+0	2.14767E+1	-1.07856E-1	0.00000E+0	0.00000E+0	2.15519E+1	1.33868E+1	2.15502E+1	1.33887E+1
41	15/03/2023	18:07:33.183	0.00000E+0	0.00000E+0	1.04613E+1	3.37178E-1	0.00000E+0	0.00000E+0	2.14315E+1	1.35505E+1	2.14311E+1	1.35523E+1
42	15/03/2023	18:07:34.646	0.00000E+0	0.00000E+0	1.95025E+1	-1.79633E-1	0.00000E+0	0.00000E+0	2.15025E+1	1.34430E+1	2.15034E+1	1.34431E+1
43	15/03/2023	18:07:36.127	0.00000E+0	0.00000E+0	2.35459E+1	-1.69586E-1	0.00000E+0	0.00000E+0	2.15795E+1	1.33497E+1	2.15816E+1	1.33491E+1
44	15/03/2023	18:07:37.622	0.00000E+0	0.00000E+0	3.11084E+1	-8.51226E-3	0.00000E+0	0.00000E+0	2.17097E+1	1.32249E+1	2.17118E+1	1.32257E+1
45	15/03/2023	18:07:39.154	0.00000E+0	0.00000E+0	9.98884E+0	-3.05849E-1	0.00000E+0	0.00000E+0	2.13895E+1	1.35519E+1	2.13893E+1	1.35509E+1
46	15/03/2023	18:07:40.642	0.00000E+0	0.00000E+0	1.95718E+1	3.22862E-1	0.00000E+0	0.00000E+0	2.15385E+1	1.34105E+1	2.15392E+1	1.34084E+1
47	15/03/2023	18:07:42.120	0.00000E+0	0.00000E+0	1.63327E+1	-1.55927E-1	0.00000E+0	0.00000E+0	2.14934E+1	1.34554E+1	2.14891E+1	1.34539E+1
48	15/03/2023	18:07:43.621	0.00000E+0	0.00000E+0	1.49975E+1	-1.21443E-1	0.00000E+0	0.00000E+0	2.14535E+1	1.34864E+1	2.14523E+1	1.34881E+1
49	15/03/2023	18:07:45.123	0.00000E+0	0.00000E+0	9.37595E+0	1.96310E-1	0.00000E+0	0.00000E+0	2.14400E+1	1.34962E+1	2.14396E+1	1.34963E+1
50	15/03/2023	18:07:46.644	0.00000E+0	0.00000E+0	-2.21295E+1	3.63726E-1	0.00000E+0	0.00000E+0	2.09263E+1	1.39982E+1	2.09271E+1	1.39996E+1
51	15/03/2023	18:07:48.154	0.00000E+0	0.00000E+0	-1.23846E+1	-3.71111E-1	0.00000E+0	0.00000E+0	2.10430E+1	1.38728E+1	2.10423E+1	1.38748E+1
52	15/03/2023	18:07:49.659	0.00000E+0	0.00000E+0	-2.94502E+1	-6.38037E-1	0.00000E+0	0.00000E+0	2.08058E+1	1.40932E+1	2.08061E+1	1.40923E+1
53	15/03/2023	18:07:51.153	0.00000E+0	0.00000E+0	-1.21463E+1	-1.24822E+0	0.00000E+0	0.00000E+0	2.10666E+1	1.38466E+1	2.10660E+1	1.38481E+1
54	15/03/2023	18:07:52.629	0.00000E+0	0.00000E+0	-2.46582E+1	7.68233E-1	0.00000E+0	0.00000E+0	2.08855E+1	1.40553E+1	2.08867E+1	1.40561E+1
55	15/03/2023	18:07:54.143	0.00000E+0	0.00000E+0	-2.08586E+1	-1.03191E+0	0.00000E+0	0.00000E+0	2.09556E+1	1.39907E+1	2.09538E+1	1.39908E+1
56	15/03/2023	18:07:55.685	0.00000E+0	0.00000E+0	-1.58577E+1	7.38422E-2	0.00000E+0	0.00000E+0	2.10266E+1	1.39259E+1	2.10257E+1	1.39267E+1
57	15/03/2023	18:07:57.149	0.00000E+0	0.00000E+0	-7.66596E+0	-2.26227E-1	0.00000E+0	0.00000E+0	2.11542E+1	1.37978E+1	2.11523E+1	1.37969E+1
58	15/03/2023	18:07:58.694	0.00000E+0	0.00000E+0	-1.14686E+1	-6.84396E-2	0.00000E+0	0.00000E+0	2.10915E+1	1.38551E+1	2.10907E+1	1.38571E+1
59	15/03/2023	18:08:00.172	0.00000E+0	0.00000E+0	-1.83565E+1	-6.42886E-1	0.00000E+0	0.00000E+0	2.09663E+1	1.39562E+1	2.09661E+1	1.39552E+1
60	15/03/2023	18:08:01.702	0.00000E+0	0.00000E+0	-3.09724E+1	7.31723E-1	0.00000E+0	0.00000E+0	2.08240E+1	1.41303E+1	2.08261E+1	1.41302E+1
61	15/03/2023	18:08:03.200	0.00000E+0	0.00000E+0	-3.63109E+1	2.40748E-1	0.00000E+0	0.00000E+0	2.07123E+1	1.42499E+1	2.07099E+1	1.42493E+1
62	15/03/2023	18:08:04.682	0.00000E+0	0.00000E+0	4.57475E+1	-1.65156E+0	0.00000E+0	0.00000E+0	2.19016E+1	1.30798E+1	2.19018E+1	1.30788E+1
63	15/03/2023	18:08:06.210	0.00000E+0	0.00000E+0	1.20182E+1	5.00768E-1	0.00000E+0	0.00000E+0	2.14353E+1	1.35373E+1	2.14375E+1	1.35395E+1
64	15/03/2023	18:08:07.693	0.00000E+0	0.00000E+0	3.34010E+1	1.85649E-1	0.00000E+0	0.00000E+0	2.17369E+1	1.32143E+1	2.17385E+1	1.32132E+1
65	15/03/2023	18:08:09.168	0.00000E+0	0.00000E+0	1.99969E+1	7.74560E-1	0.00000E+0	0.00000E+0	2.15223E+1	1.34386E+1	2.15224E+1	1.34384E+1
66	15/03/2023	18:08:10.674	0.00000E+0	0.00000E+0	2.10403E+1	8.55251E-1	0.00000E+0	0.00000E+0	2.15583E+1	1.34126E+1	2.15560E+1	1.34131E+1
67	15/03/2023	18:08:12.176	0.00000E+0	0.00000E+0	3.54283E+1	-7.58538E-1	0.00000E+0	0.00000E+0	2.17465E+1	1.31989E+1	2.17454E+1	1.31986E+1
68	15/03/2023	18:08:13.707	0.00000E+0	0.00000E+0	9.61857E+0	2.00402E-1	0.00000E+0	0.00000E+0	2.14038E+1	1.35628E+1	2.14037E+1	1.35635E+1
69	15/03/2023	18:08:15.206	0.00000E+0	0.00000E+0	2.67018E+1	-9.19553E-1	0.00000E+0	0.00000E+0	2.16489E+1	1.33291E+1	2.16485E+1	1.33292E+1
70	15/03/2023	18:08:16.671	0.00000E+0	0.00000E+0	1.56433E+1	-1.43189E+0	0.00000E+0	0.00000E+0	2.14635E+1	1.34197E+1	2.14656E+1	1.34189E+1
71	15/03/2023	18:08:18.177	0.00000E+0	0.00000E+0	1.77434E+1	-9.46969E-1	0.00000E+0	0.00000E+0	2.14646E+1	1.34599E+1	2.14647E+1	1.34614E+1
72	15/03/2023	18:08:19.700	0.00000E+0	0.00000E+0	6.25080E+0	2.34383E-1	0.00000E+0	0.00000E+0	2.14419E+1	1.35114E+1	2.14453E+1	1.35121E+1
73	15/03/2023	18:08:21.192	0.00000E+0	0.00000E+0	-1.75848E+1	1.36422E-1	0.00000E+0	0.00000E+0	2.09953E+1	1.39551E+1	2.09951E+1	1.39540E+1
74	15/03/2023	18:08:22.708	0.00000E+0	0.00000E+0	-6.37928E+0	-6.04486E-1	0.00000E+0	0.00000E+0	2.11557E+1	1.38096E+1	2.11577E+1	1.38098E+1
75	15/03/2023	18:08:24.205	0.00000E+0	0.00000E+0	-3.29540E+1	2.21539E-1	0.00000E+0	0.00000E+0	2.07958E+1	1.41766E+1	2.07953E+1	1.41775E+1
76	15/03/2023	18:08:25.705	0.00000E+0	0.00000E+0	-2.58131E+1	1.03931E+0	0.00000E+0	0.00000E+0	2.09111E+1	1.40860E+1	2.09116E+1	1.40837E+1
77	15/03/2023	18:08:27.188	0.00000E+0	0.00000E+0	-4.97430E+1	-3.06041E-1	0.00000E+0	0.00000E+0	2.05262E+1	1.44033E+1	2.05269E+1	1.44017E+1
78	15/03/2023	18:08:28.663	0.00000E+0	0.00000E+0	-7.48427E+0	1.28141E-1	0.00000E+0	0.00000E+0	2.11233E+1	1.38353E+1	2.11243E+1	1.38352E+1
79	15/03/2023	18:08:30.154	0.00000E+0	0.00000E+0	-3.57181E+1	4.86593E-1	0.00000E+0	0.00000E+0	2.07447E+1	1.41914E+1	2.07427E+1	1.41934E+1
80	15/03/2023	18:08:31.630	0.00000E+0	0.00000E+0	-1.53714E+1	1.06487E-1	0.00000E+0	0.00000E+0	2.10958E+1	1.38844E+1	2.10965E+1	1.38833E+1
81	15/03/2023	18:08:33.147	0.00000E+0	0.00000E+0	9.86073E-1	-1.21982E+0	0.00000E+0	0.00000E+0	2.12578E+1	1.37124E+1	2.12544E+1	1.37132E+1
82	15/03/2023	18:08:34.633	0.00000E+0	0.00000E+0	-1.48683E+1	-1.15126E+0	0.00000E+0	0.00000E+0	2.10715E+1	1.38686E+1	2.10689E+1	1.38685E+1
83	15/03/2023	18:08:36.146	0.00000E+0	0.00000E+0	7.25738E+0	-2.68523E-1	0.00000E+0	0.00000E+0	2.13406E+1	1.36110E+1	2.13419E+1	1.36105E+1
84	15/03/2023	18:08:37.663	0.00000E+0	0.00000E+0	-3.23160E-1	-1.31695E-1	0.00000E+0	0.00000E+0	2.12463E+1	1.37078E+1	2.12464E+1	1.37076E+1
85	15/03/2023	18:08:39.145	0.00000E+0	0.00000E+0	1.22768E+1	-4.57739E-1	0.00000E+0	0.00000E+0	2.14146E+1	1.35592E+1	2.14134E+1	1.35579E+1
86	15/03/2023	18:08:40.626	0.00000E+0	0.00000E+0	9.13395E+1	-4.50103E-1	0.00000E+0	0.00000E+0	2.25654E+1	1.24489E+1	2.25662E+1	1.24504E+1
87	15/03/2023	18:08:42.145	0.00000E+0	0.00000E+0	3.83368E-1	-8.90917E-1	0.00000E+0	0.00000E+0	2.12371E+1	1.37105E+1	2.12387E+1	1.37096E+1
88	15/03/2023	18:08:43.632	0.00000E+0	0.00000E+0	2.28629E+1	1.39794E-1	0.00000E+0	0.00000E+0	2.15475E+1	1.33996E+1	2.15468E+1	1.33971E+1
89	15/03/2023	18:08:45.092	0.00000E+0	0.00000E+0	2.81149E+1	2.31881E+0	0.00000E+0	0.00000E+0	2.16557E+1	1.33321E+1	2.16555E+1	1.33332E+1
90	15/03/2023	18:08:46.572	0.00000E+0	0.00000E+0	1.61382E+1	4.60154E-1	0.00000E+0	0.00000E+0	2.14836E+1	1.35037E+1	2.14847E+1	1.35018E+1
91	15/03/2023	18:08:48.071	0.00000E+0	0.00000E+0	1.94344E+1	-2.31013E-2	0.00000E+0	0.00000E+0	2.15321E+1	1.34361E+1	2.15301E+1	1.34351E+1
92	15/03/2023	18:08:49.587	0.00000E+0	0.00000E+0	-4.12592E+1	-5.38088E-1	0.00000E+0	0.00000E+0	2.07057E+1	1.42900E+1	2.07044E+1	1.42896E+1
93	15/03/2023	18:08:51.120	0.00000E+0	0.00000E+0	-6.47785E+1	1.11928E+0	0.00000E+0	0.00000E+0	2.02915E+1	1.46483E+1	2.02923E+1	1.46485E+1
94	15/03/2023	18:08:52.620	0.00000E+0	0.00000E+0	-3.97778E+1	-1.74697E+0	0.00000E+0	0.00000E+0	2.06344E+1	1.43143E+1	2.06333E+1	1.43147E+1
95	15/03/2023	18:08:54.148	0.00000E+0	0.00000E+0	-1.77742E-1	8.33639E-2	0.00000E+0	0.00000E+0	2.12447E+1	1.37240E+1	2.12439E+1	1.37225E+1
96	15/03/2023	18:08:55.619	0.00000E+0	0.00000E+0	9.21392E+0	7.62010E-2	0.00000E+0	0.00000E+0	2.13610E+1	1.36282E+1	2.13619E+1	1.36278E+1
97	15/03/2023	18:08:57.176	0.00000E+0	0.00000E+0	7.61144E+1	-1.48730E+0	0.00000E+0	0.00000E+0	2.22783E+1	1.26720E+1	2.22787E+1	1.26708E+1
98	15/03/2023	18:08:58.686	0.00000E+0	0.00000E+0	2.07302E+1	1.17172E+0	0.00000E+0	0.00000E+0	2.15724E+1	1.33965E+1	2.15730E+1	1.33945E+1
99	15/03/2023	18:09:00.171	0.00000E+0	0.00000E+0	7.53884E+1	-2.67342E-1	0.00000E+0	0.00000E+0	2.24016E+1	1.25983E+1	2.23998E+1	1.25975E+1
100	15/03/2023	18:09:01.659	0.00000E+0	0.00000E+0	-3.49487E+1	-1.06420E+0	0.00000E+0	0.00000E+0	2.08207E+1	1.41401E+1	2.08198E+1	1.41396E+1
101	15/03/2023	18:09:03.144	0.00000E+0	0.00000E+0	-9.80403E+1	-2.77406E-1	0.00000E+0	0.00000E+0	1.97837E+1	1.50889E+1	1.97832E+1	1.50892E+1
102	15/03/2023	18:09:04.674	0.00000E+0	0.00000E+0	-5.80271E+1	-6.63438E-1	0.00000E+0	0.00000E+0	2.03897E+1	1.45673E+1	2.03885E+1	1.45676E+1
103	15/03/2023	18:09:06.139	0.00000E+0	0.00000E+0	-1.84692E+1	-4.79939E-1	0.00000E+0	0.00000E+0	2.09771E+1	1.39528E+1	2.09768E+1	1.39555E+1
104	15/03/2023	18:09:07.650	0.00000E+0	0.00000E+0	-2.03745E+1	5.45652E-1	0.00000E+0	0.00000E+0	2.09605E+1	1.39967E+1	2.09603E+1	1.39967E+1
105	15/03/2023	18:09:09.134	0.00000E+0	0.00000E+0	-4.66400E+1	-1.21380E-1	0.00000E+0	0.00000E+0	2.05924E+1	1.43439E+1	2.05902E+1	1.43422E+1
106	15/03/2023	18:09:10.612	0.00000E+0	0.00000E+0	-9.92047E-1	-3.03870E+0	0.00000E+0	0.00000E+0	2.12368E+1	1.37799E+1	2.12365E+1	1.37789E+1
107	15/03/2023	18:09:12.113	0.00000E+0	0.00000E+0	7.49917E+1	-1.91312E+0	0.00000E+0	0.00000E+0	2.23156E+1	1.26428E+1	2.23163E+1	1.26446E+1
108	15/03/2023	18:09:13.627	0.00000E+0	0.00000E+0	1.21243E+1	4.57990E-1	0.00000E+0	0.00000E+0	2.14431E+1	1.35026E+1	2.14433E+1	1.35022E+1
109	15/03/2023	18:09:15.150	0.00000E+0	0.00000E+0	-4.99117E+0	-1.00749E-1	0.00000E+0	0.00000E+0	2.12013E+1	1.37642E+1	2.12005E+1	1.37652E+1
110	15/03/2023	18:09:16.622	0.00000E+0	0.00000E+0	2.28242E+1	1.76829E+0	0.00000E+0	0.00000E+0	2.15405E+1	1.33882E+1	2.15397E+1	1.33855E+1
111	15/03/2023	18:09:18.113	0.00000E+0	0.00000E+0	1.17113E+1	1.80350E+0	0.00000E+0	0.00000E+0	2.13546E+1	1.35378E+1	2.13566E+1	1.35380E+1
112	15/03/2023	18:09:19.582	0.00000E+0	0.00000E+0	3.11929E+1	3.00832E-1	0.00000E+0	0.00000E+0	2.17133E+1	1.32659E+1	2.17131E+1	1.32638E+1
113	15/03/2023	18:09:21.109	0.00000E+0	0.00000E+0	1.78680E+1	-2.39343E-2	0.00000E+0	0.00000E+0	2.15196E+1	1.35027E+1	2.15189E+1	1.35034E+1
114	15/03/2023	18:09:22.614	0.00000E+0	0.00000E+0	3.93260E+1	1.07747E-1	0.00000E+0	0.00000E+0	2.18267E+1	1.31589E+1	2.18268E+1	1.31573E+1
115	15/03/2023	18:09:24.171	0.00000E+0	0.00000E+0	2.54319E+1	3.57814E-1	0.00000E+0	0.00000E+0	2.16295E+1	1.33297E+1	2.16326E+1	1.33293E+1
116	15/03/2023	18:09:25.652	0.00000E+0	0.00000E+0	-3.41750E+1	-1.85578E-1	0.00000E+0	0.00000E+0	2.07555E+1	1.41784E+1	2.07518E+1	1.41773E+1
117	15/03/2023	18:09:27.138	0.00000E+0	0.00000E+0	-4.07974E+1	-3.86036E-1	0.00000E+0	0.00000E+0	2.06854E+1	1.42677E+1	2.06844E+1	1.42681E+1
118	15/03/2023	18:09:28.612	0.00000E+0	0.00000E+0	-5.80471E+1	-1.81673E+0	0.00000E+0	0.00000E+0	2.04550E+1	1.45137E+1	2.04528E+1	1.45113E+1
119	15/03/2023	18:09:30.064	0.00000E+0	0.00000E+0	-3.74983E+1	1.50320E+0	0.00000E+0	0.00000E+0	2.06588E+1	1.42579E+1	2.06589E+1	1.42579E+1
120	15/03/2023	18:09:31.593	0.00000E+0	0.00000E+0	-3.61187E+1	-6.22988E-1	0.00000E+0	0.00000E+0	2.07267E+1	1.42479E+1	2.07257E+1	1.42475E+1
121	15/03/2023	18:09:33.074	0.00000E+0	0.00000E+0	-3.17960E+1	-1.50731E+0	0.00000E+0	0.00000E+0	2.07832E+1	1.41234E+1	2.07826E+1	1.41218E+1
122	15/03/2023	18:09:34.534	0.00000E+0	0.00000E+0	-5.16632E+0	-4.21002E-1	0.00000E+0	0.00000E+0	2.11021E+1	1.38502E+1	2.11031E+1	1.38513E+1
123	15/03/2023	18:09:36.022	0.00000E+0	0.00000E+0	4.92785E+1	2.29562E+0	0.00000E+0	0.00000E+0	2.19190E+1	1.30265E+1	2.19190E+1	1.30259E+1
124	15/03/2023	18:09:37.552	0.00000E+0	0.00000E+0	5.18763E+1	-1.41522E+0	0.00000E+0	0.00000E+0	2.19302E+1	1.29771E+1	2.19281E+1	1.29759E+1
125	15/03/2023	18:09:39.064	0.00000E+0	0.00000E+0	5.21880E+1	2.25732E+0	0.00000E+0	0.00000E+0	2.20707E+1	1.28653E+1	2.20722E+1	1.28657E+1
126	15/03/2023	18:09:40.535	0.00000E+0	0.00000E+0	2.07429E+1	2.20253E-1	0.00000E+0	0.00000E+0	2.15383E+1	1.34059E+1	2.15364E+1	1.34051E+1
127	15/03/2023	18:09:42.022	0.00000E+0	0.00000E+0	2.28847E+1	-1.34388E+0	0.00000E+0	0.00000E+0	2.15813E+1	1.33960E+1	2.15803E+1	1.33985E+1
128	15/03/2023	18:09:43.510	0.00000E+0	0.00000E+0	2.17730E+1	-2.11523E-1	0.00000E+0	0.00000E+0	2.15280E+1	1.33994E+1	2.15303E+1	1.33990E+1
129	15/03/2023	18:09:44.974	0.00000E+0	0.00000E+0	2.97138E+1	-1.40062E-1	0.00000E+0	0.00000E+0	2.16683E+1	1.32732E+1	2.16690E+1	1.32733E+1
130	15/03/2023	18:09:46.419	0.00000E+0	0.00000E+0	-2.40216E+1	-6.61275E-1	0.00000E+0	0.00000E+0	2.09391E+1	1.40096E+1	2.09388E+1	1.40082E+1
131	15/03/2023	18:09:47.938	0.00000E+0	0.00000E+0	-4.78074E+1	-2.59685E+0	0.00000E+0	0.00000E+0	2.06068E+1	1.43659E+1	2.06073E+1	1.43639E+1
132	15/03/2023	18:09:49.471	0.00000E+0	0.00000E+0	-4.30351E+1	2.02276E-2	0.00000E+0	0.00000E+0	2.06384E+1	1.42726E+1	2.06375E+1	1.42718E+1
133	15/03/2023	18:09:50.958	0.00000E+0	0.00000E+0	-3.45577E+1	-5.62613E-1	0.00000E+0	0.00000E+0	2.07647E+1	1.41717E+1	2.07640E+1	1.41709E+1
134	15/03/2023	18:09:52.457	0.00000E+0	0.00000E+0	-3.26478E+1	5.14687E-1	0.00000E+0	0.00000E+0	2.08191E+1	1.41386E+1	2.08200E+1	1.41402E+1
135	15/03/2023	18:09:53.927	0.00000E+0	0.00000E+0	-3.44989E+1	-1.95306E-1	0.00000E+0	0.00000E+0	2.07827E+1	1.41754E+1	2.07814E+1	1.41748E+1
136	15/03/2023	18:09:55.452	0.00000E+0	0.00000E+0	-1.25757E+1	-5.74886E-1	0.00000E+0	0.00000E+0	2.10080E+1	1.39487E+1	2.10068E+1	1.39479E+1
137	15/03/2023	18:09:56.925	0.00000E+0	0.00000E+0	2.27944E+1	-1.20981E+0	0.00000E+0	0.00000E+0	2.15736E+1	1.33773E+1	2.15725E+1	1.33751E+1
138	15/03/2023	18:09:58.406	0.00000E+0	0.00000E+0	2.23440E+1	-7.86906E-1	0.00000E+0	0.00000E+0	2.15507E+1	1.33680E+1	2.15498E+1	1.33673E+1
139	15/03/2023	18:09:59.932	0.00000E+0	0.00000E+0	2.83139E+1	-1.12265E+0	0.00000E+0	0.00000E+0	2.16562E+1	1.32781E+1	2.16550E+1	1.32790E+1
140	15/03/2023	18:10:01.434	0.00000E+0	0.00000E+0	3.74421E+1	1.99222E-1	0.00000E+0	0.00000E+0	2.17640E+1	1.31730E+1	2.17635E+1	1.31735E+1
141	15/03/2023	18:10:02.929	0.00000E+0	0.00000E+0	6.36965E+1	-9.26563E-1	0.00000E+0	0.00000E+0	2.21663E+1	1.28172E+1	2.21673E+1	1.28182E+1
142	15/03/2023	18:10:04.446	0.00000E+0	0.00000E+0	4.52774E+1	-1.50325E+0	0.00000E+0	0.00000E+0	2.19307E+1	1.30876E+1	2.19329E+1	1.30869E+1
143	15/03/2023	18:10:05.907	0.00000E+0	0.00000E+0	1.75018E+1	1.24967E-1	0.00000E+0	0.00000E+0	2.15737E+1	1.34018E+1	2.15734E+1	1.34020E+1
144	15/03/2023	18:10:07.406	0.00000E+0	0.00000E+0	-3.36394E+1	3.93219E-1	0.00000E+0	0.00000E+0	2.07896E+1	1.41717E+1	2.07895E+1	1.41715E+1
145	15/03/2023	18:10:08.888	0.00000E+0	0.00000E+0	-2.09573E+1	1.18535E-3	0.00000E+0	0.00000E+0	2.09671E+1	1.39795E+1	2.09670E+1	1.39792E+1
146	15/03/2023	18:10:10.432	0.00000E+0	0.00000E+0	-1.08846E+1	-3.16083E-1	0.00000E+0	0.00000E+0	2.10740E+1	1.38638E+1	2.10751E+1	1.38650E+1
147	15/03/2023	18:10:11.910	0.00000E+0	0.00000E+0	-2.67466E+1	8.47182E-1	0.00000E+0	0.00000E+0	2.08708E+1	1.40720E+1	2.08717E+1	1.40721E+1
148	15/03/2023	18:10:13.412	0.00000E+0	0.00000E+0	-2.38703E+1	1.71517E-1	0.00000E+0	0.00000E+0	2.08863E+1	1.40533E+1	2.08862E+1	1.40528E+1
149	15/03/2023	18:10:14.911	0.00000E+0	0.00000E+0	-2.05129E+1	4.95257E-1	0.00000E+0	0.00000E+0	2.09540E+1	1.39814E+1	2.09548E+1	1.39834E+1
150	15/03/2023	18:10:16.438	0.00000E+0	0.00000E+0	-1.04037E+1	9.98409E-2	0.00000E+0	0.00000E+0	2.11189E+1	1.38276E+1	2.11182E+1	1.38258E+1
151	15/03/2023	18:10:17.932	0.00000E+0	0.00000E+0	-3.51009E+1	4.29506E-1	0.00000E+0	0.00000E+0	2.07438E+1	1.42082E+1	2.07455E+1	1.42070E+1
152	15/03/2023	18:10:19.388	0.00000E+0	0.00000E+0	-2.56491E+1	-1.92038E+0	0.00000E+0	0.00000E+0	2.08983E+1	1.40439E+1	2.08968E+1	1.40452E+1
153	15/03/2023	18:10:20.911	0.00000E+0	0.00000E+0	-4.83791E+1	-3.60053E-1	0.00000E+0	0.00000E+0	2.05497E+1	1.43867E+1	2.05482E+1	1.43861E+1
154	15/03/2023	18:10:22.396	0.00000E+0	0.00000E+0	4.56561E+1	-2.35559E+0	0.00000E+0	0.00000E+0	2.18879E+1	1.30720E+1	2.18880E+1	1.30726E+1
155	15/03/2023	18:10:23.889	0.00000E+0	0.00000E+0	3.20784E+1	1.45328E+0	0.00000E+0	0.00000E+0	2.16802E+1	1.32604E+1	2.16794E+1	1.32592E+1
156	15/03/2023	18:10:25.370	0.00000E+0	0.00000E+0	1.82530E+1	-1.72605E+0	0.00000E+0	0.00000E+0	2.15191E+1	1.34247E+1	2.15175E+1	1.34240E+1
157	15/03/2023	18:10:26.909	0.00000E+0	0.00000E+0	2.33791E+1	4.77186E-1	0.00000E+0	0.00000E+0	2.15801E+1	1.33861E+1	2.15789E+1	1.33869E+1
158	15/03/2023	18:10:28.421	0.00000E+0	0.00000E+0	5.36268E+1	8.75198E-1	0.00000E+0	0.00000E+0	2.20220E+1	1.29339E+1	2.20227E+1	1.29329E+1
159	15/03/2023	18:10:29.882	0.00000E+0	0.00000E+0	2.87453E+1	-1.92490E+0	0.00000E+0	0.00000E+0	2.16574E+1	1.33002E+1	2.16570E+1	1.33004E+1
160	15/03/2023	18:10:31.382	0.00000E+0	0.00000E+0	3.34400E+1	3.05926E-2	0.00000E+0	0.00000E+0	2.17430E+1	1.32001E+1	2.17410E+1	1.32011E+1
161	15/03/2023	18:10:32.843	0.00000E+0	0.00000E+0	3.00183E+1	1.06571E+0	0.00000E+0	0.00000E+0	2.16515E+1	1.32677E+1	2.16510E+1	1.32680E+1
162	15/03/2023	18:10:34.301	0.00000E+0	0.00000E+0	-2.20523E+1	-1.23524E-1	0.00000E+0	0.00000E+0	2.09375E+1	1.40198E+1	2.09373E+1	1.40194E+1
163	15/03/2023	18:10:35.828	0.00000E+0	0.00000E+0	-1.56577E+1	-9.15619E-1	0.00000E+0	0.00000E+0	2.10248E+1	1.39154E+1	2.10271E+1	1.39138E+1
164	15/03/2023	18:10:37.325	0.00000E+0	0.00000E+0	-2.89192E+1	-1.33788E+0	0.00000E+0	0.00000E+0	2.07743E+1	1.41249E+1	2.07757E+1	1.41234E+1
165	15/03/2023	18:10:38.782	0.00000E+0	0.00000E+0	-4.28762E+1	-2.47712E-1	0.00000E+0	0.00000E+0	2.06771E+1	1.42991E+1	2.06763E+1	1.42975E+1
166	15/03/2023	18:10:40.282	0.00000E+0	0.00000E+0	-2.21100E+1	-6.55613E-1	0.00000E+0	0.00000E+0	2.09359E+1	1.40055E+1	2.09351E+1	1.40067E+1
167	15/03/2023	18:10:41.753	0.00000E+0	0.00000E+0	-1.93735E+1	2.38254E-1	0.00000E+0	0.00000E+0	2.09917E+1	1.39619E+1	2.09940E+1	1.39630E+1
168	15/03/2023	18:10:43.233	0.00000E+0	0.00000E+0	-2.99340E+1	-1.89967E+0	0.00000E+0	0.00000E+0	2.08063E+1	1.40974E+1	2.08053E+1	1.40966E+1
169	15/03/2023	18:10:44.764	0.00000E+0	0.00000E+0	-3.60096E+1	-6.45632E-1	0.00000E+0	0.00000E+0	2.07476E+1	1.42110E+1	2.07491E+1	1.42118E+1
170	15/03/2023	18:10:46.269	0.00000E+0	0.00000E+0	-1.59898E+1	3.53420E-1	0.00000E+0	0.00000E+0	2.09785E+1	1.39651E+1	2.09800E+1	1.39680E+1
171	15/03/2023	18:10:47.741	0.00000E+0	0.00000E+0	4.14301E+1	1.25753E+0	0.00000E+0	0.00000E+0	2.18744E+1	1.30614E+1	2.18747E+1	1.30605E+1
172	15/03/2023	18:10:49.234	0.00000E+0	0.00000E+0	2.01334E+1	-1.18150E+0	0.00000E+0	0.00000E+0	2.15184E+1	1.34318E+1	2.15180E+1	1.34304E+1
173	15/03/2023	18:10:50.730	0.00000E+0	0.00000E+0	2.46297E+1	-4.35144E-1	0.00000E+0	0.00000E+0	2.16020E+1	1.33533E+1	2.16045E+1	1.33526E+1
174	15/03/2023	18:10:52.184	0.00000E+0	0.00000E+0	2.95191E+1	1.18090E-1	0.00000E+0	0.00000E+0	2.16527E+1	1.32813E+1	2.16553E+1	1.32852E+1
175	15/03/2023	18:10:53.690	0.00000E+0	0.00000E+0	4.95333E+1	-8.24924E-1	0.00000E+0	0.00000E+0	2.19462E+1	1.30292E+1	2.19443E+1	1.30295E+1
176	15/03/2023	18:10:55.227	0.00000E+0	0.00000E+0	1.75680E+1	9.23437E-1	0.00000E+0	0.00000E+0	2.14881E+1	1.34562E+1	2.14876E+1	1.34592E+1
177	15/03/2023	18:10:56.711	0.00000E+0	0.00000E+0	2.76200E+1	8.88483E-1	0.00000E+0	0.00000E+0	2.16829E+1	1.32953E+1	2.16846E+1	1.32937E+1
178	15/03/2023	18:10:58.259	0.00000E+0	0.00000E+0	3.00198E+1	-3.38417E-2	0.00000E+0	0.00000E+0	2.16478E+1	1.32972E+1	2.16451E+1	1.32976E+1
179	15/03/2023	18:10:59.805	0.00000E+0	0.00000E+0	-1.78454E+1	-1.35850E-1	0.00000E+0	0.00000E+0	2.10187E+1	1.39217E+1	2.10191E+1	1.39215E+1
180	15/03/2023	18:11:01.298	0.00000E+0	0.00000E+0	-2.16872E+1	-1.60214E+0	0.00000E+0	0.00000E+0	2.09287E+1	1.40045E+1	2.09296E+1	1.40052E+1
181	15/03/2023	18:11:02.818	0.00000E+0	0.00000E+0	-4.14347E+1	-2.74776E+0	0.00000E+0	0.00000E+0	2.06357E+1	1.43402E+1	2.06365E+1	1.43449E+1
182	15/03/2023	18:11:04.300	0.00000E+0	0.00000E+0	-4.41200E+1	-3.30239E-1	0.00000E+0	0.00000E+0	2.06576E+1	1.42827E+1	2.06584E+1	1.42818E+1
183	15/03/2023	18:11:06.159	0.00000E+0	0.00000E+0	-3.11759E+1	-6.06354E-1	0.00000E+0	0.00000E+0	2.07882E+1	1.41269E+1	2.07895E+1	1.41270E+1
184	15/03/2023	18:11:07.755	0.00000E+0	0.00000E+0	-2.84759E+1	-3.44864E-1	0.00000E+0	0.00000E+0	2.08680E+1	1.40869E+1	2.08673E+1	1.40886E+1
185	15/03/2023	18:11:09.249	0.00000E+0	0.00000E+0	-1.82366E+1	8.84284E-3	0.00000E+0	0.00000E+0	2.10109E+1	1.39499E+1	2.10100E+1	1.39486E+1
186	15/03/2023	18:11:10.734	0.00000E+0	0.00000E+0	-4.62097E+1	-1.29291E-1	0.00000E+0	0.00000E+0	2.05948E+1	1.43634E+1	2.05957E+1	1.43648E+1
187	15/03/2023	18:11:12.248	0.00000E+0	0.00000E+0	3.55595E+1	9.79966E-1	0.00000E+0	0.00000E+0	2.17713E+1	1.31824E+1	2.17701E+1	1.31845E+1
188	15/03/2023	18:11:13.735	0.00000E+0	0.00000E+0	4.89393E+1	-2.92634E+0	0.00000E+0	0.00000E+0	2.19536E+1	1.30522E+1	2.19552E+1	1.30540E+1
189	15/03/2023	18:11:15.218	0.00000E+0	0.00000E+0	3.75134E+1	1.17421E+0	0.00000E+0	0.00000E+0	2.17795E+1	1.31833E+1	2.17796E+1	1.31829E+1
190	15/03/2023	18:11:16.688	0.00000E+0	0.00000E+0	4.12364E+1	-1.00321E+0	0.00000E+0	0.00000E+0	2.18760E+1	1.30991E+1	2.18738E+1	1.31017E+1
191	15/03/2023	18:11:18.232	0.00000E+0	0.00000E+0	4.49821E+1	-2.02115E+0	0.00000E+0	0.00000E+0	2.19080E+1	1.30769E+1	2.19076E+1	1.30768E+1
192	15/03/2023	18:11:19.686	0.00000E+0	0.00000E+0	4.44381E+1	-8.38172E-1	0.00000E+0	0.00000E+0	2.19021E+1	1.30698E+1	2.19024E+1	1.30686E+1
193	15/03/2023	18:11:21.149	0.00000E+0	0.00000E+0	-1.14410E+1	-1.24636E+0	0.00000E+0	0.00000E+0	2.11038E+1	1.38588E+1	2.11038E+1	1.38572E+1
194	15/03/2023	18:11:22.612	0.00000E+0	0.00000E+0	-3.27634E+1	-6.16079E-1	0.00000E+0	0.00000E+0	2.07666E+1	1.41310E+1	2.07670E+1	1.41307E+1
195	15/03/2023	18:11:24.109	0.00000E+0	0.00000E+0	-2.17721E+1	8.73755E-1	0.00000E+0	0.00000E+0	2.09318E+1	1.39824E+1	2.09317E+1	1.39859E+1
196	15/03/2023	18:11:25.602	0.00000E+0	0.00000E+0	-1.46587E+1	-2.62476E-1	0.00000E+0	0.00000E+0	2.10229E+1	1.39002E+1	2.10224E+1	1.38989E+1
197	15/03/2023	18:11:27.083	0.00000E+0	0.00000E+0	-3.08575E+1	7.24728E-2	0.00000E+0	0.00000E+0	2.08372E+1	1.41332E+1	2.08358E+1	1.41335E+1
198	15/03/2023	18:11:28.581	0.00000E+0	0.00000E+0	-2.09607E+1	8.21089E-1	0.00000E+0	0.00000E+0	2.09624E+1	1.40263E+1	2.09637E+1	1.40274E+1
199	15/03/2023	18:11:30.080	0.00000E+0	0.00000E+0	-1.35048E+1	-2.21242E-1	0.00000E+0	0.00000E+0	2.10473E+1	1.38928E+1	2.10444E+1	1.38927E+1
200	15/03/2023	18:11:31.616	0.00000E+0	0.00000E+0	-3.27528E+1	-6.98242E-1	0.00000E+0	0.00000E+0	2.08146E+1	1.41217E+1	2.08147E+1	1.41210E+1
201	15/03/2023	18:11:33.086	0.00000E+0	0.00000E+0	-1.77088E+1	1.16917E+0	0.00000E+0	0.00000E+0	2.09984E+1	1.39450E+1	2.09993E+1	1.39461E+1
202	15/03/2023	18:11:34.567	0.00000E+0	0.00000E+0	-4.37228E+1	7.31348E-1	0.00000E+0	0.00000E+0	2.06125E+1	1.43083E+1	2.06106E+1	1.43093E+1
203	15/03/2023	18:11:36.096	0.00000E+0	0.00000E+0	1.68802E+1	-3.14987E-1	0.00000E+0	0.00000E+0	2.14916E+1	1.34654E+1	2.14902E+1	1.34638E+1
204	15/03/2023	18:11:37.589	0.00000E+0	0.00000E+0	4.24863E+1	2.43921E+0	0.00000E+0	0.00000E+0	2.18582E+1	1.30829E+1	2.18586E+1	1.30833E+1
205	15/03/2023	18:11:39.086	0.00000E+0	0.00000E+0	2.11055E+1	4.68508E-1	0.00000E+0	0.00000E+0	2.15369E+1	1.34407E+1	2.15371E+1	1.34385E+1
206	15/03/2023	18:11:40.587	0.00000E+0	0.00000E+0	3.44026E+1	6.56972E-1	0.00000E+0	0.00000E+0	2.17372E+1	1.32010E+1	2.17359E+1	1.31997E+1
207	15/03/2023	18:11:42.085	0.00000E+0	0.00000E+0	5.91550E+1	1.24431E+0	0.00000E+0	0.00000E+0	2.20840E+1	1.28774E+1	2.20861E+1	1.28792E+1
208	15/03/2023	18:11:43.571	0.00000E+0	0.00000E+0	4.37418E+1	6.35789E-1	0.00000E+0	0.00000E+0	2.18092E+1	1.31367E+1	2.18104E+1	1.31374E+1
209	15/03/2023	18:11:45.076	0.00000E+0	0.00000E+0	2.64022E+1	-9.65201E-1	0.00000E+0	0.00000E+0	2.16068E+1	1.33028E+1	2.16095E+1	1.33048E+1
210	15/03/2023	18:11:46.566	0.00000E+0	0.00000E+0	-8.46618E+0	5.21126E-1	0.00000E+0	0.00000E+0	2.11128E+1	1.37714E+1	2.11120E+1	1.37703E+1
211	15/03/2023	18:11:48.025	0.00000E+0	0.00000E+0	-3.77775E+1	-6.37496E-1	0.00000E+0	0.00000E+0	2.07134E+1	1.42598E+1	2.07161E+1	1.42590E+1
212	15/03/2023	18:11:49.568	0.00000E+0	0.00000E+0	-3.61357E+1	5.10362E-1	0.00000E+0	0.00000E+0	2.07418E+1	1.42383E+1	2.07428E+1	1.42400E+1
213	15/03/2023	18:11:51.058	0.00000E+0	0.00000E+0	-4.16347E+1	4.45757E-1	0.00000E+0	0.00000E+0	2.06824E+1	1.42712E+1	2.06821E+1	1.42709E+1
214	15/03/2023	18:11:52.552	0.00000E+0	0.00000E+0	-2.98222E+1	5.07107E-1	0.00000E+0	0.00000E+0	2.08371E+1	1.41330E+1	2.08366E+1	1.41346E+1
215	15/03/2023	18:11:54.070	0.00000E+0	0.00000E+0	-2.28434E+1	-2.39144E-1	0.00000E+0	0.00000E+0	2.09404E+1	1.40105E+1	2.09382E+1	1.40096E+1
216	15/03/2023	18:11:55.601	0.00000E+0	0.00000E+0	-2.77514E+1	5.95998E-1	0.00000E+0	0.00000E+0	2.08483E+1	1.41177E+1	2.08485E+1	1.41204E+1
217	15/03/2023	18:11:57.056	0.00000E+0	0.00000E+0	-4.64184E+1	-4.44661E-1	0.00000E+0	0.00000E+0	2.05553E+1	1.43827E+1	2.05551E+1	1.43842E+1
218	15/03/2023	18:11:58.527	0.00000E+0	0.00000E+0	2.70878E+1	-5.01805E-2	0.00000E+0	0.00000E+0	2.16402E+1	1.33203E+1	2.16393E+1	1.33185E+1
219	15/03/2023	18:12:00.044	0.00000E+0	0.00000E+0	3.11366E+1	-7.06365E-1	0.00000E+0	0.00000E+0	2.17287E+1	1.32501E+1	2.17267E+1	1.32494E+1
220	15/03/2023	18:12:01.520	0.00000E+0	0.00000E+0	3.58027E+1	-3.64877E-1	0.00000E+0	0.00000E+0	2.17758E+1	1.31751E+1	2.17761E+1	1.31762E+1
221	15/03/2023	18:12:03.011	0.00000E+0	0.00000E+0	3.18506E+1	-9.25342E-3	0.00000E+0	0.00000E+0	2.16741E+1	1.32601E+1	2.16761E+1	1.32603E+1
222	15/03/2023	18:12:04.504	0.00000E+0	0.00000E+0	5.20761E+1	-1.53214E+0	0.00000E+0	0.00000E+0	2.20332E+1	1.29173E+1	2.20326E+1	1.29190E+1
223	15/03/2023	18:12:05.998	0.00000E+0	0.00000E+0	4.72440E+1	-6.06000E-1	0.00000E+0	0.00000E+0	2.19243E+1	1.30377E+1	2.19257E+1	1.30356E+1
224	15/03/2023	18:12:07.488	0.00000E+0	0.00000E+0	3.95266E+1	7.75590E-1	0.00000E+0	0.00000E+0	2.18133E+1	1.31250E+1	2.18104E+1	1.31234E+1
225	15/03/2023	18:12:09.017	0.00000E+0	0.00000E+0	-1.93053E+1	6.28011E-1	0.00000E+0	0.00000E+0	2.10162E+1	1.39596E+1	2.10175E+1	1.39597E+1
226	15/03/2023	18:12:10.489	0.00000E+0	0.00000E+0	-5.34937E+1	-2.10977E+0	0.00000E+0	0.00000E+0	2.05174E+1	1.44836E+1	2.05160E+1	1.44821E+1
227	15/03/2023	18:12:11.963	0.00000E+0	0.00000E+0	-6.52115E+1	5.05995E-1	0.00000E+0	0.00000E+0	2.03367E+1	1.46071E+1	2.03342E+1	1.46065E+1
228	15/03/2023	18:12:13.521	0.00000E+0	0.00000E+0	-2.00678E+1	1.12497E-2	0.00000E+0	0.00000E+0	2.09729E+1	1.39788E+1	2.09710E+1	1.39793E+1
229	15/03/2023	18:12:15.006	0.00000E+0	0.00000E+0	-2.98894E+1	1.05398E-1	0.00000E+0	0.00000E+0	2.08001E+1	1.41742E+1	2.08005E+1	1.41735E+1
230	15/03/2023	18:12:16.486	0.00000E+0	0.00000E+0	-5.81531E+1	-1.61722E+0	0.00000E+0	0.00000E+0	2.03742E+1	1.45538E+1	2.03721E+1	1.45539E+1
231	15/03/2023	18:12:17.980	0.00000E+0	0.00000E+0	1.03791E+1	2.80960E-1	0.00000E+0	0.00000E+0	2.13769E+1	1.35716E+1	2.13750E+1	1.35705E+1
232	15/03/2023	18:12:19.463	0.00000E+0	0.00000E+0	5.54585E+1	1.03286E-1	0.00000E+0	0.00000E+0	2.20305E+1	1.29333E+1	2.20319E+1	1.29333E+1
233	15/03/2023	18:12:20.958	0.00000E+0	0.00000E+0	4.51459E+1	-6.84661E-1	0.00000E+0	0.00000E+0	2.18934E+1	1.30753E+1	2.18939E+1	1.30764E+1
234	15/03/2023	18:12:22.443	0.00000E+0	0.00000E+0	3.43878E+1	-2.20640E-1	0.00000E+0	0.00000E+0	2.17096E+1	1.32114E+1	2.17082E+1	1.32138E+1
235	15/03/2023	18:12:23.942	0.00000E+0	0.00000E+0	5.54724E+1	-1.96644E-1	0.00000E+0	0.00000E+0	2.21290E+1	1.28367E+1	2.21295E+1	1.28388E+1
236	15/03/2023	18:12:25.452	0.00000E+0	0.00000E+0	4.07465E+1	-5.47705E-1	0.00000E+0	0.00000E+0	2.18451E+1	1.31028E+1	2.18437E+1	1.31016E+1
237	15/03/2023	18:12:26.953	0.00000E+0	0.00000E+0	3.24938E+1	-4.84034E-2	0.00000E+0	0.00000E+0	2.17197E+1	1.31977E+1	2.17210E+1	1.31975E+1
238	15/03/2023	18:12:28.444	0.00000E+0	0.00000E+0	-3.32932E+1	-6.05291E-1	0.00000E+0	0.00000E+0	2.08068E+1	1.41434E+1	2.08057E+1	1.41414E+1
239	15/03/2023	18:12:29.973	0.00000E+0	0.00000E+0	-5.89169E+1	3.07031E-1	0.00000E+0	0.00000E+0	2.03291E+1	1.45747E+1	2.03283E+1	1.45747E+1
240	15/03/2023	18:12:31.486	0.00000E+0	0.00000E+0	-3.35996E+1	1.13668E+0	0.00000E+0	0.00000E+0	2.07213E+1	1.41849E+1	2.07226E+1	1.41835E+1
241	15/03/2023	18:12:32.950	0.00000E+0	0.00000E+0	-3.39095E+1	-2.05654E-1	0.00000E+0	0.00000E+0	2.07757E+1	1.41585E+1	2.07752E+1	1.41591E+1
242	15/03/2023	18:12:34.464	0.00000E+0	0.00000E+0	-3.85968E+1	2.61350E-1	0.00000E+0	0.00000E+0	2.06632E+1	1.43082E+1	2.06626E+1	1.43069E+1
