#Iteration	Date	Time	STSX	STSY	RotationRateX	RotationRateY	FrCntX	FrCntY	TiptiltCmd1	TiptiltCmd2	TiptiltMonitor1	TiptiltMonitor2
1	02/09/2022	15:15:40.760	0.00000E+0	0.00000E+0	6.00000E+1	0.00000E+0	0.00000E+0	0.00000E+0	2.00000E+1	1.40000E+1	1.99999E+1	1.39991E+1
2	02/09/2022	15:15:42.216	0.00000E+0	0.00000E+0	6.00000E+1	0.00000E+0	0.00000E+0	0.00000E+0	2.00000E+1	1.40000E+1	2.00012E+1	1.40023E+1
3	02/09/2022	15:15:43.719	0.00000E+0	0.00000E+0	6.00000E+1	0.00000E+0	0.00000E+0	0.00000E+0	2.00000E+1	1.40000E+1	2.00010E+1	1.40009E+1
4	02/09/2022	15:15:45.092	0.00000E+0	0.00000E+0	6.00000E+1	0.00000E+0	0.00000E+0	0.00000E+0	2.00000E+1	1.40000E+1	2.00003E+1	1.40012E+1
5	02/09/2022	15:15:46.491	0.00000E+0	0.00000E+0	6.00000E+1	0.00000E+0	0.00000E+0	0.00000E+0	2.00000E+1	1.40000E+1	1.99998E+1	1.39991E+1
6	02/09/2022	15:15:47.979	0.00000E+0	0.00000E+0	6.00000E+1	0.00000E+0	0.00000E+0	0.00000E+0	2.00000E+1	1.40000E+1	2.00001E+1	1.39989E+1
7	02/09/2022	15:15:49.372	0.00000E+0	0.00000E+0	6.00000E+1	0.00000E+0	0.00000E+0	0.00000E+0	2.00000E+1	1.40000E+1	1.99977E+1	1.40010E+1
8	02/09/2022	15:15:50.817	0.00000E+0	0.00000E+0	6.00000E+1	0.00000E+0	0.00000E+0	0.00000E+0	2.00000E+1	1.40000E+1	2.00007E+1	1.40006E+1
9	02/09/2022	15:15:52.362	0.00000E+0	0.00000E+0	6.00000E+1	0.00000E+0	0.00000E+0	0.00000E+0	2.00000E+1	1.40000E+1	1.99998E+1	1.40009E+1
10	02/09/2022	15:15:53.741	0.00000E+0	0.00000E+0	6.00000E+1	0.00000E+0	0.00000E+0	0.00000E+0	2.00000E+1	1.40000E+1	2.00003E+1	1.40000E+1
11	02/09/2022	15:15:55.335	0.00000E+0	0.00000E+0	6.00000E+1	0.00000E+0	0.00000E+0	0.00000E+0	2.00000E+1	1.40000E+1	2.00025E+1	1.39999E+1
12	02/09/2022	15:15:56.761	0.00000E+0	0.00000E+0	6.00000E+1	0.00000E+0	0.00000E+0	0.00000E+0	2.00000E+1	1.40000E+1	2.00002E+1	1.39987E+1
13	02/09/2022	15:15:58.140	0.00000E+0	0.00000E+0	6.00000E+1	0.00000E+0	0.00000E+0	0.00000E+0	2.00000E+1	1.40000E+1	2.00013E+1	1.39993E+1
14	02/09/2022	15:15:59.661	0.00000E+0	0.00000E+0	6.00000E+1	0.00000E+0	0.00000E+0	0.00000E+0	2.00000E+1	1.40000E+1	1.99993E+1	1.39997E+1
15	02/09/2022	15:16:01.047	0.00000E+0	0.00000E+0	6.00000E+1	0.00000E+0	0.00000E+0	0.00000E+0	2.00000E+1	1.40000E+1	1.99999E+1	1.39996E+1
16	02/09/2022	15:16:02.558	0.00000E+0	0.00000E+0	6.00000E+1	0.00000E+0	0.00000E+0	0.00000E+0	2.00000E+1	1.40000E+1	2.00002E+1	1.40015E+1
17	02/09/2022	15:16:03.936	0.00000E+0	0.00000E+0	6.00000E+1	0.00000E+0	0.00000E+0	0.00000E+0	2.00000E+1	1.40000E+1	2.00005E+1	1.40003E+1
18	02/09/2022	15:16:05.336	0.00000E+0	0.00000E+0	6.00000E+1	0.00000E+0	0.00000E+0	0.00000E+0	2.00000E+1	1.40000E+1	1.99984E+1	1.39986E+1
19	02/09/2022	15:16:06.865	0.00000E+0	0.00000E+0	6.00000E+1	0.00000E+0	0.00000E+0	0.00000E+0	2.00000E+1	1.40000E+1	1.99964E+1	1.40006E+1
20	02/09/2022	15:16:08.246	0.00000E+0	0.00000E+0	6.00000E+1	0.00000E+0	0.00000E+0	0.00000E+0	2.00000E+1	1.40000E+1	1.99991E+1	1.39990E+1
21	02/09/2022	15:16:09.702	0.00000E+0	0.00000E+0	6.00000E+1	0.00000E+0	0.00000E+0	0.00000E+0	2.00000E+1	1.40000E+1	1.99989E+1	1.39992E+1
22	02/09/2022	15:16:11.209	0.00000E+0	0.00000E+0	6.00000E+1	0.00000E+0	0.00000E+0	0.00000E+0	2.00000E+1	1.40000E+1	1.99997E+1	1.40009E+1
23	02/09/2022	15:16:12.605	0.00000E+0	0.00000E+0	6.00000E+1	0.00000E+0	0.00000E+0	0.00000E+0	2.00000E+1	1.40000E+1	2.00004E+1	1.39995E+1
24	02/09/2022	15:16:14.108	0.00000E+0	0.00000E+0	6.00000E+1	0.00000E+0	0.00000E+0	0.00000E+0	2.00000E+1	1.40000E+1	2.00013E+1	1.39993E+1
25	02/09/2022	15:16:15.495	0.00000E+0	0.00000E+0	6.00000E+1	0.00000E+0	0.00000E+0	0.00000E+0	2.00000E+1	1.40000E+1	2.00006E+1	1.39973E+1
26	02/09/2022	15:16:16.936	0.00000E+0	0.00000E+0	6.00000E+1	0.00000E+0	0.00000E+0	0.00000E+0	2.00000E+1	1.40000E+1	1.99989E+1	1.40007E+1
27	02/09/2022	15:16:18.425	0.00000E+0	0.00000E+0	6.00000E+1	0.00000E+0	0.00000E+0	0.00000E+0	2.00000E+1	1.40000E+1	1.99997E+1	1.39995E+1
28	02/09/2022	15:16:19.808	0.00000E+0	0.00000E+0	6.00000E+1	0.00000E+0	0.00000E+0	0.00000E+0	2.00000E+1	1.40000E+1	1.99977E+1	1.40041E+1
29	02/09/2022	15:16:21.259	0.00000E+0	0.00000E+0	6.00000E+1	0.00000E+0	0.00000E+0	0.00000E+0	2.00000E+1	1.40000E+1	1.99997E+1	1.39994E+1
30	02/09/2022	15:16:22.689	0.00000E+0	0.00000E+0	6.00000E+1	0.00000E+0	0.00000E+0	0.00000E+0	2.00000E+1	1.40000E+1	1.99990E+1	1.39995E+1
31	02/09/2022	15:16:24.064	0.00000E+0	0.00000E+0	6.00000E+1	0.00000E+0	0.00000E+0	0.00000E+0	2.00000E+1	1.40000E+1	2.00010E+1	1.40000E+1
32	02/09/2022	15:16:25.603	0.00000E+0	0.00000E+0	6.00000E+1	0.00000E+0	0.00000E+0	0.00000E+0	2.00000E+1	1.40000E+1	2.00004E+1	1.39994E+1
33	02/09/2022	15:16:27.013	0.00000E+0	0.00000E+0	6.00000E+1	0.00000E+0	0.00000E+0	0.00000E+0	2.00000E+1	1.40000E+1	1.99992E+1	1.40002E+1
34	02/09/2022	15:16:28.447	0.00000E+0	0.00000E+0	6.00000E+1	0.00000E+0	0.00000E+0	0.00000E+0	2.00000E+1	1.40000E+1	1.99995E+1	1.40022E+1
35	02/09/2022	15:16:29.943	0.00000E+0	0.00000E+0	6.00000E+1	0.00000E+0	0.00000E+0	0.00000E+0	2.00000E+1	1.40000E+1	1.99982E+1	1.39995E+1
36	02/09/2022	15:16:31.316	0.00000E+0	0.00000E+0	6.00000E+1	0.00000E+0	0.00000E+0	0.00000E+0	2.00000E+1	1.40000E+1	2.00002E+1	1.40015E+1
37	02/09/2022	15:16:32.824	0.00000E+0	0.00000E+0	6.00000E+1	0.00000E+0	0.00000E+0	0.00000E+0	2.00000E+1	1.40000E+1	1.99999E+1	1.40018E+1
38	02/09/2022	15:16:34.285	0.00000E+0	0.00000E+0	6.00000E+1	0.00000E+0	0.00000E+0	0.00000E+0	2.00000E+1	1.40000E+1	1.99995E+1	1.40038E+1
39	02/09/2022	15:16:35.656	0.00000E+0	0.00000E+0	6.00000E+1	0.00000E+0	0.00000E+0	0.00000E+0	2.00000E+1	1.40000E+1	2.00011E+1	1.39958E+1
40	02/09/2022	15:16:37.215	0.00000E+0	0.00000E+0	6.00000E+1	0.00000E+0	0.00000E+0	0.00000E+0	2.00000E+1	1.40000E+1	2.00018E+1	1.40001E+1
41	02/09/2022	15:16:38.625	0.00000E+0	0.00000E+0	6.00000E+1	0.00000E+0	0.00000E+0	0.00000E+0	2.00000E+1	1.40000E+1	2.00017E+1	1.40019E+1
42	02/09/2022	15:16:40.085	0.00000E+0	0.00000E+0	6.00000E+1	0.00000E+0	0.00000E+0	0.00000E+0	2.00000E+1	1.40000E+1	2.00018E+1	1.40010E+1
43	02/09/2022	15:16:41.442	0.00000E+0	0.00000E+0	6.00000E+1	0.00000E+0	0.00000E+0	0.00000E+0	2.00000E+1	1.40000E+1	1.99988E+1	1.40001E+1
44	02/09/2022	15:16:42.810	0.00000E+0	0.00000E+0	6.00000E+1	0.00000E+0	0.00000E+0	0.00000E+0	2.00000E+1	1.40000E+1	2.00005E+1	1.40011E+1
45	02/09/2022	15:16:44.288	0.00000E+0	0.00000E+0	6.00000E+1	0.00000E+0	0.00000E+0	0.00000E+0	2.00000E+1	1.40000E+1	2.00001E+1	1.39998E+1
46	02/09/2022	15:16:45.663	0.00000E+0	0.00000E+0	6.00000E+1	0.00000E+0	0.00000E+0	0.00000E+0	2.00000E+1	1.40000E+1	2.00002E+1	1.39983E+1
47	02/09/2022	15:16:47.112	0.00000E+0	0.00000E+0	6.00000E+1	0.00000E+0	0.00000E+0	0.00000E+0	2.00000E+1	1.40000E+1	2.00011E+1	1.39985E+1
48	02/09/2022	15:16:48.627	0.00000E+0	0.00000E+0	6.00000E+1	0.00000E+0	0.00000E+0	0.00000E+0	2.00000E+1	1.40000E+1	2.00010E+1	1.40000E+1
49	02/09/2022	15:16:50.000	0.00000E+0	0.00000E+0	6.00000E+1	0.00000E+0	0.00000E+0	0.00000E+0	2.00000E+1	1.40000E+1	1.99985E+1	1.40018E+1
50	02/09/2022	15:16:51.527	0.00000E+0	0.00000E+0	6.00000E+1	0.00000E+0	0.00000E+0	0.00000E+0	2.00000E+1	1.40000E+1	1.99993E+1	1.40000E+1
51	02/09/2022	15:16:52.913	0.00000E+0	0.00000E+0	6.00000E+1	0.00000E+0	0.00000E+0	0.00000E+0	2.00000E+1	1.40000E+1	1.99997E+1	1.40015E+1
52	02/09/2022	15:16:54.274	0.00000E+0	0.00000E+0	6.00000E+1	0.00000E+0	0.00000E+0	0.00000E+0	2.00000E+1	1.40000E+1	1.99999E+1	1.39992E+1
53	02/09/2022	15:16:55.758	0.00000E+0	0.00000E+0	6.00000E+1	0.00000E+0	0.00000E+0	0.00000E+0	2.00000E+1	1.40000E+1	2.00004E+1	1.39977E+1
54	02/09/2022	15:16:57.131	0.00000E+0	0.00000E+0	6.00000E+1	0.00000E+0	0.00000E+0	0.00000E+0	2.00000E+1	1.40000E+1	2.00002E+1	1.40000E+1
55	02/09/2022	15:16:58.539	0.00000E+0	0.00000E+0	6.00000E+1	0.00000E+0	0.00000E+0	0.00000E+0	2.00000E+1	1.40000E+1	2.00017E+1	1.39995E+1
56	02/09/2022	15:17:00.036	0.00000E+0	0.00000E+0	6.00000E+1	0.00000E+0	0.00000E+0	0.00000E+0	2.00000E+1	1.40000E+1	2.00025E+1	1.40006E+1
57	02/09/2022	15:17:01.423	0.00000E+0	0.00000E+0	6.00000E+1	0.00000E+0	0.00000E+0	0.00000E+0	2.00000E+1	1.40000E+1	1.99994E+1	1.39986E+1
58	02/09/2022	15:17:02.957	0.00000E+0	0.00000E+0	6.00000E+1	0.00000E+0	0.00000E+0	0.00000E+0	2.00000E+1	1.40000E+1	1.99998E+1	1.39987E+1
59	02/09/2022	15:17:04.352	0.00000E+0	0.00000E+0	6.00000E+1	0.00000E+0	0.00000E+0	0.00000E+0	2.00000E+1	1.40000E+1	1.99997E+1	1.39987E+1
60	02/09/2022	15:17:05.740	0.00000E+0	0.00000E+0	6.00000E+1	0.00000E+0	0.00000E+0	0.00000E+0	2.00000E+1	1.40000E+1	2.00028E+1	1.39973E+1
61	02/09/2022	15:17:07.197	0.00000E+0	0.00000E+0	6.00000E+1	0.00000E+0	0.00000E+0	0.00000E+0	2.00000E+1	1.40000E+1	1.99986E+1	1.40015E+1
62	02/09/2022	15:17:08.568	0.00000E+0	0.00000E+0	6.00000E+1	0.00000E+0	0.00000E+0	0.00000E+0	2.00000E+1	1.40000E+1	2.00006E+1	1.40008E+1
63	02/09/2022	15:17:10.073	0.00000E+0	0.00000E+0	6.00000E+1	0.00000E+0	0.00000E+0	0.00000E+0	2.00000E+1	1.40000E+1	1.99995E+1	1.39996E+1
64	02/09/2022	15:17:11.519	0.00000E+0	0.00000E+0	6.00000E+1	0.00000E+0	0.00000E+0	0.00000E+0	2.00000E+1	1.40000E+1	1.99991E+1	1.39980E+1
65	02/09/2022	15:17:12.919	0.00000E+0	0.00000E+0	6.00000E+1	0.00000E+0	0.00000E+0	0.00000E+0	2.00000E+1	1.40000E+1	2.00001E+1	1.39972E+1
66	02/09/2022	15:17:14.373	0.00000E+0	0.00000E+0	6.00000E+1	0.00000E+0	0.00000E+0	0.00000E+0	2.00000E+1	1.40000E+1	1.99987E+1	1.40022E+1
67	02/09/2022	15:17:15.751	0.00000E+0	0.00000E+0	6.00000E+1	0.00000E+0	0.00000E+0	0.00000E+0	2.00000E+1	1.40000E+1	2.00002E+1	1.40002E+1
68	02/09/2022	15:17:17.221	0.00000E+0	0.00000E+0	6.00000E+1	0.00000E+0	0.00000E+0	0.00000E+0	2.00000E+1	1.40000E+1	1.99988E+1	1.39978E+1
69	02/09/2022	15:17:18.741	0.00000E+0	0.00000E+0	6.00000E+1	0.00000E+0	0.00000E+0	0.00000E+0	2.00000E+1	1.40000E+1	2.00019E+1	1.39984E+1
70	02/09/2022	15:17:20.101	0.00000E+0	0.00000E+0	6.00000E+1	0.00000E+0	0.00000E+0	0.00000E+0	2.00000E+1	1.40000E+1	2.00005E+1	1.39994E+1
71	02/09/2022	15:17:21.628	0.00000E+0	0.00000E+0	6.00000E+1	0.00000E+0	0.00000E+0	0.00000E+0	2.00000E+1	1.40000E+1	1.99978E+1	1.40018E+1
72	02/09/2022	15:17:23.040	0.00000E+0	0.00000E+0	6.00000E+1	0.00000E+0	0.00000E+0	0.00000E+0	2.00000E+1	1.40000E+1	1.99996E+1	1.40020E+1
73	02/09/2022	15:17:24.431	0.00000E+0	0.00000E+0	6.00000E+1	0.00000E+0	0.00000E+0	0.00000E+0	2.00000E+1	1.40000E+1	2.00011E+1	1.39998E+1
74	02/09/2022	15:17:25.919	0.00000E+0	0.00000E+0	6.00000E+1	0.00000E+0	0.00000E+0	0.00000E+0	2.00000E+1	1.40000E+1	2.00006E+1	1.39991E+1
75	02/09/2022	15:17:27.307	0.00000E+0	0.00000E+0	6.00000E+1	0.00000E+0	0.00000E+0	0.00000E+0	2.00000E+1	1.40000E+1	1.99991E+1	1.39980E+1
76	02/09/2022	15:17:28.760	0.00000E+0	0.00000E+0	6.00000E+1	0.00000E+0	0.00000E+0	0.00000E+0	2.00000E+1	1.40000E+1	1.99989E+1	1.39996E+1
77	02/09/2022	15:17:30.183	0.00000E+0	0.00000E+0	6.00000E+1	0.00000E+0	0.00000E+0	0.00000E+0	2.00000E+1	1.40000E+1	1.99985E+1	1.39999E+1
78	02/09/2022	15:17:31.566	0.00000E+0	0.00000E+0	6.00000E+1	0.00000E+0	0.00000E+0	0.00000E+0	2.00000E+1	1.40000E+1	2.00022E+1	1.40009E+1
79	02/09/2022	15:17:33.113	0.00000E+0	0.00000E+0	6.00000E+1	0.00000E+0	0.00000E+0	0.00000E+0	2.00000E+1	1.40000E+1	2.00014E+1	1.39992E+1
80	02/09/2022	15:17:34.495	0.00000E+0	0.00000E+0	6.00000E+1	0.00000E+0	0.00000E+0	0.00000E+0	2.00000E+1	1.40000E+1	1.99991E+1	1.39981E+1
81	02/09/2022	15:17:35.875	0.00000E+0	0.00000E+0	6.00000E+1	0.00000E+0	0.00000E+0	0.00000E+0	2.00000E+1	1.40000E+1	1.99995E+1	1.39982E+1
82	02/09/2022	15:17:37.414	0.00000E+0	0.00000E+0	6.00000E+1	0.00000E+0	0.00000E+0	0.00000E+0	2.00000E+1	1.40000E+1	1.99995E+1	1.39983E+1
83	02/09/2022	15:17:38.805	0.00000E+0	0.00000E+0	6.00000E+1	0.00000E+0	0.00000E+0	0.00000E+0	2.00000E+1	1.40000E+1	2.00024E+1	1.39990E+1
84	02/09/2022	15:17:40.341	0.00000E+0	0.00000E+0	6.00000E+1	0.00000E+0	0.00000E+0	0.00000E+0	2.00000E+1	1.40000E+1	1.99989E+1	1.39997E+1
85	02/09/2022	15:17:41.720	0.00000E+0	0.00000E+0	6.00000E+1	0.00000E+0	0.00000E+0	0.00000E+0	2.00000E+1	1.40000E+1	2.00000E+1	1.40002E+1
86	02/09/2022	15:17:43.100	0.00000E+0	0.00000E+0	6.00000E+1	0.00000E+0	0.00000E+0	0.00000E+0	2.00000E+1	1.40000E+1	1.99999E+1	1.40008E+1
87	02/09/2022	15:17:44.638	0.00000E+0	0.00000E+0	6.00000E+1	0.00000E+0	0.00000E+0	0.00000E+0	2.00000E+1	1.40000E+1	1.99994E+1	1.40011E+1
88	02/09/2022	15:17:46.025	0.00000E+0	0.00000E+0	6.00000E+1	0.00000E+0	0.00000E+0	0.00000E+0	2.00000E+1	1.40000E+1	2.00018E+1	1.39985E+1
89	02/09/2022	15:17:47.419	0.00000E+0	0.00000E+0	6.00000E+1	0.00000E+0	0.00000E+0	0.00000E+0	2.00000E+1	1.40000E+1	1.99971E+1	1.39979E+1
90	02/09/2022	15:17:48.914	0.00000E+0	0.00000E+0	6.00000E+1	0.00000E+0	0.00000E+0	0.00000E+0	2.00000E+1	1.40000E+1	1.99998E+1	1.40007E+1
91	02/09/2022	15:17:50.302	0.00000E+0	0.00000E+0	6.00000E+1	0.00000E+0	0.00000E+0	0.00000E+0	2.00000E+1	1.40000E+1	1.99988E+1	1.39967E+1
92	02/09/2022	15:17:51.732	0.00000E+0	0.00000E+0	6.00000E+1	0.00000E+0	0.00000E+0	0.00000E+0	2.00000E+1	1.40000E+1	2.00006E+1	1.39966E+1
93	02/09/2022	15:17:53.138	0.00000E+0	0.00000E+0	6.00000E+1	0.00000E+0	0.00000E+0	0.00000E+0	2.00000E+1	1.40000E+1	1.99969E+1	1.39991E+1
94	02/09/2022	15:17:54.526	0.00000E+0	0.00000E+0	6.00000E+1	0.00000E+0	0.00000E+0	0.00000E+0	2.00000E+1	1.40000E+1	2.00014E+1	1.40000E+1
95	02/09/2022	15:17:56.020	0.00000E+0	0.00000E+0	6.00000E+1	0.00000E+0	0.00000E+0	0.00000E+0	2.00000E+1	1.40000E+1	1.99997E+1	1.39994E+1
96	02/09/2022	15:17:57.419	0.00000E+0	0.00000E+0	6.00000E+1	0.00000E+0	0.00000E+0	0.00000E+0	2.00000E+1	1.40000E+1	1.99983E+1	1.40012E+1
97	02/09/2022	15:17:58.842	0.00000E+0	0.00000E+0	6.00000E+1	0.00000E+0	0.00000E+0	0.00000E+0	2.00000E+1	1.40000E+1	2.00003E+1	1.40009E+1
98	02/09/2022	15:18:00.225	0.00000E+0	0.00000E+0	6.00000E+1	0.00000E+0	0.00000E+0	0.00000E+0	2.00000E+1	1.40000E+1	2.00021E+1	1.39994E+1
99	02/09/2022	15:18:01.620	0.00000E+0	0.00000E+0	6.00000E+1	0.00000E+0	0.00000E+0	0.00000E+0	2.00000E+1	1.40000E+1	1.99981E+1	1.40017E+1
100	02/09/2022	15:18:03.141	0.00000E+0	0.00000E+0	6.00000E+1	0.00000E+0	0.00000E+0	0.00000E+0	2.00000E+1	1.40000E+1	1.99994E+1	1.40012E+1
101	02/09/2022	15:18:04.528	0.00000E+0	0.00000E+0	6.00000E+1	0.00000E+0	0.00000E+0	0.00000E+0	2.00000E+1	1.40000E+1	2.00010E+1	1.39978E+1
102	02/09/2022	15:18:05.911	0.00000E+0	0.00000E+0	6.00000E+1	0.00000E+0	0.00000E+0	0.00000E+0	2.00000E+1	1.40000E+1	2.00004E+1	1.40010E+1
103	02/09/2022	15:18:07.422	0.00000E+0	0.00000E+0	6.00000E+1	0.00000E+0	0.00000E+0	0.00000E+0	2.00000E+1	1.40000E+1	1.99992E+1	1.39991E+1
104	02/09/2022	15:18:08.814	0.00000E+0	0.00000E+0	6.00000E+1	0.00000E+0	0.00000E+0	0.00000E+0	2.00000E+1	1.40000E+1	2.00015E+1	1.39999E+1
105	02/09/2022	15:18:10.306	0.00000E+0	0.00000E+0	6.00000E+1	0.00000E+0	0.00000E+0	0.00000E+0	2.00000E+1	1.40000E+1	1.99969E+1	1.40023E+1
106	02/09/2022	15:18:11.700	0.00000E+0	0.00000E+0	6.00000E+1	0.00000E+0	0.00000E+0	0.00000E+0	2.00000E+1	1.40000E+1	1.99987E+1	1.39991E+1
107	02/09/2022	15:18:13.079	0.00000E+0	0.00000E+0	6.00000E+1	0.00000E+0	0.00000E+0	0.00000E+0	2.00000E+1	1.40000E+1	2.00022E+1	1.39995E+1
108	02/09/2022	15:18:14.585	0.00000E+0	0.00000E+0	6.00000E+1	0.00000E+0	0.00000E+0	0.00000E+0	2.00000E+1	1.40000E+1	1.99995E+1	1.40021E+1
109	02/09/2022	15:18:15.967	0.00000E+0	0.00000E+0	6.00000E+1	0.00000E+0	0.00000E+0	0.00000E+0	2.00000E+1	1.40000E+1	1.99998E+1	1.40007E+1
110	02/09/2022	15:18:17.356	0.00000E+0	0.00000E+0	6.00000E+1	0.00000E+0	0.00000E+0	0.00000E+0	2.00000E+1	1.40000E+1	1.99999E+1	1.40011E+1
111	02/09/2022	15:18:18.855	0.00000E+0	0.00000E+0	6.00000E+1	0.00000E+0	0.00000E+0	0.00000E+0	2.00000E+1	1.40000E+1	2.00015E+1	1.40002E+1
112	02/09/2022	15:18:20.248	0.00000E+0	0.00000E+0	6.00000E+1	0.00000E+0	0.00000E+0	0.00000E+0	2.00000E+1	1.40000E+1	2.00008E+1	1.40006E+1
113	02/09/2022	15:18:21.712	0.00000E+0	0.00000E+0	6.00000E+1	0.00000E+0	0.00000E+0	0.00000E+0	2.00000E+1	1.40000E+1	2.00010E+1	1.39998E+1
114	02/09/2022	15:18:23.094	0.00000E+0	0.00000E+0	6.00000E+1	0.00000E+0	0.00000E+0	0.00000E+0	2.00000E+1	1.40000E+1	2.00001E+1	1.40013E+1
115	02/09/2022	15:18:24.480	0.00000E+0	0.00000E+0	6.00000E+1	0.00000E+0	0.00000E+0	0.00000E+0	2.00000E+1	1.40000E+1	1.99998E+1	1.39979E+1
116	02/09/2022	15:18:25.930	0.00000E+0	0.00000E+0	6.00000E+1	0.00000E+0	0.00000E+0	0.00000E+0	2.00000E+1	1.40000E+1	2.00007E+1	1.39994E+1
117	02/09/2022	15:18:27.307	0.00000E+0	0.00000E+0	6.00000E+1	0.00000E+0	0.00000E+0	0.00000E+0	2.00000E+1	1.40000E+1	2.00018E+1	1.39997E+1
118	02/09/2022	15:18:28.800	0.00000E+0	0.00000E+0	6.00000E+1	0.00000E+0	0.00000E+0	0.00000E+0	2.00000E+1	1.40000E+1	2.00010E+1	1.40009E+1
119	02/09/2022	15:18:30.238	0.00000E+0	0.00000E+0	6.00000E+1	0.00000E+0	0.00000E+0	0.00000E+0	2.00000E+1	1.40000E+1	2.00015E+1	1.40008E+1
120	02/09/2022	15:18:31.628	0.00000E+0	0.00000E+0	6.00000E+1	0.00000E+0	0.00000E+0	0.00000E+0	2.00000E+1	1.40000E+1	1.99993E+1	1.39962E+1
121	02/09/2022	15:18:33.131	0.00000E+0	0.00000E+0	6.00000E+1	0.00000E+0	0.00000E+0	0.00000E+0	2.00000E+1	1.40000E+1	1.99982E+1	1.40007E+1
122	02/09/2022	15:18:34.513	0.00000E+0	0.00000E+0	6.00000E+1	0.00000E+0	0.00000E+0	0.00000E+0	2.00000E+1	1.40000E+1	1.99993E+1	1.39983E+1
123	02/09/2022	15:18:35.964	0.00000E+0	0.00000E+0	6.00000E+1	0.00000E+0	0.00000E+0	0.00000E+0	2.00000E+1	1.40000E+1	2.00015E+1	1.39995E+1
124	02/09/2022	15:18:37.463	0.00000E+0	0.00000E+0	6.00000E+1	0.00000E+0	0.00000E+0	0.00000E+0	2.00000E+1	1.40000E+1	1.99992E+1	1.40012E+1
125	02/09/2022	15:18:38.833	0.00000E+0	0.00000E+0	6.00000E+1	0.00000E+0	0.00000E+0	0.00000E+0	2.00000E+1	1.40000E+1	1.99994E+1	1.40004E+1
126	02/09/2022	15:18:40.314	0.00000E+0	0.00000E+0	6.00000E+1	0.00000E+0	0.00000E+0	0.00000E+0	2.00000E+1	1.40000E+1	1.99975E+1	1.39973E+1
127	02/09/2022	15:18:41.699	0.00000E+0	0.00000E+0	6.00000E+1	0.00000E+0	0.00000E+0	0.00000E+0	2.00000E+1	1.40000E+1	2.00003E+1	1.39999E+1
128	02/09/2022	15:18:43.075	0.00000E+0	0.00000E+0	6.00000E+1	0.00000E+0	0.00000E+0	0.00000E+0	2.00000E+1	1.40000E+1	1.99997E+1	1.40000E+1
129	02/09/2022	15:18:44.555	0.00000E+0	0.00000E+0	6.00000E+1	0.00000E+0	0.00000E+0	0.00000E+0	2.00000E+1	1.40000E+1	2.00008E+1	1.40006E+1
130	02/09/2022	15:18:45.950	0.00000E+0	0.00000E+0	6.00000E+1	0.00000E+0	0.00000E+0	0.00000E+0	2.00000E+1	1.40000E+1	1.99994E+1	1.39974E+1
131	02/09/2022	15:18:47.342	0.00000E+0	0.00000E+0	6.00000E+1	0.00000E+0	0.00000E+0	0.00000E+0	2.00000E+1	1.40000E+1	1.99991E+1	1.39993E+1
132	02/09/2022	15:18:48.838	0.00000E+0	0.00000E+0	6.00000E+1	0.00000E+0	0.00000E+0	0.00000E+0	2.00000E+1	1.40000E+1	1.99992E+1	1.39992E+1
133	02/09/2022	15:18:50.221	0.00000E+0	0.00000E+0	6.00000E+1	0.00000E+0	0.00000E+0	0.00000E+0	2.00000E+1	1.40000E+1	2.00023E+1	1.39979E+1
134	02/09/2022	15:18:51.723	0.00000E+0	0.00000E+0	6.00000E+1	0.00000E+0	0.00000E+0	0.00000E+0	2.00000E+1	1.40000E+1	1.99991E+1	1.39983E+1
135	02/09/2022	15:18:53.145	0.00000E+0	0.00000E+0	6.00000E+1	0.00000E+0	0.00000E+0	0.00000E+0	2.00000E+1	1.40000E+1	1.99983E+1	1.39986E+1
136	02/09/2022	15:18:54.576	0.00000E+0	0.00000E+0	6.00000E+1	0.00000E+0	0.00000E+0	0.00000E+0	2.00000E+1	1.40000E+1	1.99988E+1	1.40001E+1
137	02/09/2022	15:18:56.078	0.00000E+0	0.00000E+0	6.00000E+1	0.00000E+0	0.00000E+0	0.00000E+0	2.00000E+1	1.40000E+1	1.99999E+1	1.40004E+1
138	02/09/2022	15:18:57.452	0.00000E+0	0.00000E+0	6.00000E+1	0.00000E+0	0.00000E+0	0.00000E+0	2.00000E+1	1.40000E+1	2.00000E+1	1.40005E+1
139	02/09/2022	15:18:58.889	0.00000E+0	0.00000E+0	6.00000E+1	0.00000E+0	0.00000E+0	0.00000E+0	2.00000E+1	1.40000E+1	2.00002E+1	1.39994E+1
140	02/09/2022	15:19:00.319	0.00000E+0	0.00000E+0	6.00000E+1	0.00000E+0	0.00000E+0	0.00000E+0	2.00000E+1	1.40000E+1	1.99981E+1	1.40019E+1
141	02/09/2022	15:19:01.705	0.00000E+0	0.00000E+0	6.00000E+1	0.00000E+0	0.00000E+0	0.00000E+0	2.00000E+1	1.40000E+1	2.00025E+1	1.39990E+1
142	02/09/2022	15:19:03.205	0.00000E+0	0.00000E+0	6.00000E+1	0.00000E+0	0.00000E+0	0.00000E+0	2.00000E+1	1.40000E+1	2.00012E+1	1.39961E+1
143	02/09/2022	15:19:04.595	0.00000E+0	0.00000E+0	6.00000E+1	0.00000E+0	0.00000E+0	0.00000E+0	2.00000E+1	1.40000E+1	2.00010E+1	1.39985E+1
144	02/09/2022	15:19:05.971	0.00000E+0	0.00000E+0	6.00000E+1	0.00000E+0	0.00000E+0	0.00000E+0	2.00000E+1	1.40000E+1	2.00002E+1	1.39969E+1
145	02/09/2022	15:19:07.472	0.00000E+0	0.00000E+0	6.00000E+1	0.00000E+0	0.00000E+0	0.00000E+0	2.00000E+1	1.40000E+1	2.00002E+1	1.40004E+1
146	02/09/2022	15:19:08.853	0.00000E+0	0.00000E+0	6.00000E+1	0.00000E+0	0.00000E+0	0.00000E+0	2.00000E+1	1.40000E+1	2.00024E+1	1.40012E+1
147	02/09/2022	15:19:10.268	0.00000E+0	0.00000E+0	6.00000E+1	0.00000E+0	0.00000E+0	0.00000E+0	2.00000E+1	1.40000E+1	1.99972E+1	1.39967E+1
148	02/09/2022	15:19:11.676	0.00000E+0	0.00000E+0	6.00000E+1	0.00000E+0	0.00000E+0	0.00000E+0	2.00000E+1	1.40000E+1	1.99993E+1	1.40010E+1
149	02/09/2022	15:19:13.031	0.00000E+0	0.00000E+0	6.00000E+1	0.00000E+0	0.00000E+0	0.00000E+0	2.00000E+1	1.40000E+1	2.00002E+1	1.39993E+1
150	02/09/2022	15:19:14.596	0.00000E+0	0.00000E+0	6.00000E+1	0.00000E+0	0.00000E+0	0.00000E+0	2.00000E+1	1.40000E+1	1.99997E+1	1.40002E+1
151	02/09/2022	15:19:15.957	0.00000E+0	0.00000E+0	6.00000E+1	0.00000E+0	0.00000E+0	0.00000E+0	2.00000E+1	1.40000E+1	1.99985E+1	1.40000E+1
152	02/09/2022	15:19:17.433	0.00000E+0	0.00000E+0	6.00000E+1	0.00000E+0	0.00000E+0	0.00000E+0	2.00000E+1	1.40000E+1	2.00019E+1	1.40007E+1
153	02/09/2022	15:19:18.806	0.00000E+0	0.00000E+0	6.00000E+1	0.00000E+0	0.00000E+0	0.00000E+0	2.00000E+1	1.40000E+1	1.99979E+1	1.40021E+1
154	02/09/2022	15:19:20.179	0.00000E+0	0.00000E+0	6.00000E+1	0.00000E+0	0.00000E+0	0.00000E+0	2.00000E+1	1.40000E+1	1.99990E+1	1.40008E+1
155	02/09/2022	15:19:21.627	0.00000E+0	0.00000E+0	6.00000E+1	0.00000E+0	0.00000E+0	0.00000E+0	2.00000E+1	1.40000E+1	1.99987E+1	1.39981E+1
156	02/09/2022	15:19:23.029	0.00000E+0	0.00000E+0	6.00000E+1	0.00000E+0	0.00000E+0	0.00000E+0	2.00000E+1	1.40000E+1	1.99996E+1	1.40016E+1
157	02/09/2022	15:19:24.431	0.00000E+0	0.00000E+0	6.00000E+1	0.00000E+0	0.00000E+0	0.00000E+0	2.00000E+1	1.40000E+1	1.99997E+1	1.39978E+1
158	02/09/2022	15:19:25.923	0.00000E+0	0.00000E+0	6.00000E+1	0.00000E+0	0.00000E+0	0.00000E+0	2.00000E+1	1.40000E+1	2.00009E+1	1.40018E+1
159	02/09/2022	15:19:27.297	0.00000E+0	0.00000E+0	6.00000E+1	0.00000E+0	0.00000E+0	0.00000E+0	2.00000E+1	1.40000E+1	2.00038E+1	1.39974E+1
160	02/09/2022	15:19:28.766	0.00000E+0	0.00000E+0	6.00000E+1	0.00000E+0	0.00000E+0	0.00000E+0	2.00000E+1	1.40000E+1	2.00004E+1	1.39974E+1
161	02/09/2022	15:19:30.148	0.00000E+0	0.00000E+0	6.00000E+1	0.00000E+0	0.00000E+0	0.00000E+0	2.00000E+1	1.40000E+1	2.00006E+1	1.40013E+1
162	02/09/2022	15:19:31.533	0.00000E+0	0.00000E+0	6.00000E+1	0.00000E+0	0.00000E+0	0.00000E+0	2.00000E+1	1.40000E+1	2.00003E+1	1.39960E+1
163	02/09/2022	15:19:33.060	0.00000E+0	0.00000E+0	6.00000E+1	0.00000E+0	0.00000E+0	0.00000E+0	2.00000E+1	1.40000E+1	1.99961E+1	1.40003E+1
164	02/09/2022	15:19:34.436	0.00000E+0	0.00000E+0	6.00000E+1	0.00000E+0	0.00000E+0	0.00000E+0	2.00000E+1	1.40000E+1	2.00012E+1	1.40013E+1
165	02/09/2022	15:19:35.812	0.00000E+0	0.00000E+0	6.00000E+1	0.00000E+0	0.00000E+0	0.00000E+0	2.00000E+1	1.40000E+1	2.00001E+1	1.40014E+1
166	02/09/2022	15:19:37.234	0.00000E+0	0.00000E+0	6.00000E+1	0.00000E+0	0.00000E+0	0.00000E+0	2.00000E+1	1.40000E+1	1.99998E+1	1.39980E+1
167	02/09/2022	15:19:38.635	0.00000E+0	0.00000E+0	6.00000E+1	0.00000E+0	0.00000E+0	0.00000E+0	2.00000E+1	1.40000E+1	2.00011E+1	1.40015E+1
168	02/09/2022	15:19:40.108	0.00000E+0	0.00000E+0	6.00000E+1	0.00000E+0	0.00000E+0	0.00000E+0	2.00000E+1	1.40000E+1	2.00010E+1	1.40005E+1
169	02/09/2022	15:19:41.492	0.00000E+0	0.00000E+0	6.00000E+1	0.00000E+0	0.00000E+0	0.00000E+0	2.00000E+1	1.40000E+1	2.00005E+1	1.40017E+1
170	02/09/2022	15:19:42.880	0.00000E+0	0.00000E+0	6.00000E+1	0.00000E+0	0.00000E+0	0.00000E+0	2.00000E+1	1.40000E+1	2.00000E+1	1.39973E+1
171	02/09/2022	15:19:44.398	0.00000E+0	0.00000E+0	6.00000E+1	0.00000E+0	0.00000E+0	0.00000E+0	2.00000E+1	1.40000E+1	2.00007E+1	1.40009E+1
172	02/09/2022	15:19:45.770	0.00000E+0	0.00000E+0	6.00000E+1	0.00000E+0	0.00000E+0	0.00000E+0	2.00000E+1	1.40000E+1	1.99985E+1	1.39992E+1
173	02/09/2022	15:19:47.322	0.00000E+0	0.00000E+0	6.00000E+1	0.00000E+0	0.00000E+0	0.00000E+0	2.00000E+1	1.40000E+1	2.00030E+1	1.40002E+1
174	02/09/2022	15:19:48.718	0.00000E+0	0.00000E+0	6.00000E+1	0.00000E+0	0.00000E+0	0.00000E+0	2.00000E+1	1.40000E+1	2.00000E+1	1.39979E+1
175	02/09/2022	15:19:50.104	0.00000E+0	0.00000E+0	6.00000E+1	0.00000E+0	0.00000E+0	0.00000E+0	2.00000E+1	1.40000E+1	1.99970E+1	1.40013E+1
176	02/09/2022	15:19:51.594	0.00000E+0	0.00000E+0	6.00000E+1	0.00000E+0	0.00000E+0	0.00000E+0	2.00000E+1	1.40000E+1	2.00016E+1	1.39991E+1
177	02/09/2022	15:19:52.985	0.00000E+0	0.00000E+0	6.00000E+1	0.00000E+0	0.00000E+0	0.00000E+0	2.00000E+1	1.40000E+1	1.99997E+1	1.39998E+1
178	02/09/2022	15:19:54.441	0.00000E+0	0.00000E+0	6.00000E+1	0.00000E+0	0.00000E+0	0.00000E+0	2.00000E+1	1.40000E+1	2.00005E+1	1.40016E+1
179	02/09/2022	15:19:55.917	0.00000E+0	0.00000E+0	6.00000E+1	0.00000E+0	0.00000E+0	0.00000E+0	2.00000E+1	1.40000E+1	2.00003E+1	1.40000E+1
180	02/09/2022	15:19:57.316	0.00000E+0	0.00000E+0	6.00000E+1	0.00000E+0	0.00000E+0	0.00000E+0	2.00000E+1	1.40000E+1	2.00010E+1	1.40015E+1
181	02/09/2022	15:19:58.780	0.00000E+0	0.00000E+0	6.00000E+1	0.00000E+0	0.00000E+0	0.00000E+0	2.00000E+1	1.40000E+1	1.99983E+1	1.40019E+1
182	02/09/2022	15:20:00.161	0.00000E+0	0.00000E+0	6.00000E+1	0.00000E+0	0.00000E+0	0.00000E+0	2.00000E+1	1.40000E+1	1.99999E+1	1.39980E+1
183	02/09/2022	15:20:01.553	0.00000E+0	0.00000E+0	6.00000E+1	0.00000E+0	0.00000E+0	0.00000E+0	2.00000E+1	1.40000E+1	1.99988E+1	1.40018E+1
184	02/09/2022	15:20:03.044	0.00000E+0	0.00000E+0	6.00000E+1	0.00000E+0	0.00000E+0	0.00000E+0	2.00000E+1	1.40000E+1	2.00005E+1	1.39978E+1
185	02/09/2022	15:20:04.422	0.00000E+0	0.00000E+0	6.00000E+1	0.00000E+0	0.00000E+0	0.00000E+0	2.00000E+1	1.40000E+1	2.00028E+1	1.40026E+1
186	02/09/2022	15:20:05.871	0.00000E+0	0.00000E+0	6.00000E+1	0.00000E+0	0.00000E+0	0.00000E+0	2.00000E+1	1.40000E+1	2.00000E+1	1.40014E+1
187	02/09/2022	15:20:07.372	0.00000E+0	0.00000E+0	6.00000E+1	0.00000E+0	0.00000E+0	0.00000E+0	2.00000E+1	1.40000E+1	2.00023E+1	1.40002E+1
188	02/09/2022	15:20:08.738	0.00000E+0	0.00000E+0	6.00000E+1	0.00000E+0	0.00000E+0	0.00000E+0	2.00000E+1	1.40000E+1	1.99994E+1	1.39996E+1
189	02/09/2022	15:20:10.287	0.00000E+0	0.00000E+0	6.00000E+1	0.00000E+0	0.00000E+0	0.00000E+0	2.00000E+1	1.40000E+1	2.00010E+1	1.40007E+1
190	02/09/2022	15:20:11.659	0.00000E+0	0.00000E+0	6.00000E+1	0.00000E+0	0.00000E+0	0.00000E+0	2.00000E+1	1.40000E+1	2.00006E+1	1.39999E+1
191	02/09/2022	15:20:13.039	0.00000E+0	0.00000E+0	6.00000E+1	0.00000E+0	0.00000E+0	0.00000E+0	2.00000E+1	1.40000E+1	2.00009E+1	1.39989E+1
192	02/09/2022	15:20:14.585	0.00000E+0	0.00000E+0	6.00000E+1	0.00000E+0	0.00000E+0	0.00000E+0	2.00000E+1	1.40000E+1	1.99968E+1	1.39986E+1
193	02/09/2022	15:20:15.988	0.00000E+0	0.00000E+0	6.00000E+1	0.00000E+0	0.00000E+0	0.00000E+0	2.00000E+1	1.40000E+1	1.99979E+1	1.40021E+1
194	02/09/2022	15:20:17.443	0.00000E+0	0.00000E+0	6.00000E+1	0.00000E+0	0.00000E+0	0.00000E+0	2.00000E+1	1.40000E+1	2.00007E+1	1.39991E+1
195	02/09/2022	15:20:18.870	0.00000E+0	0.00000E+0	6.00000E+1	0.00000E+0	0.00000E+0	0.00000E+0	2.00000E+1	1.40000E+1	1.99986E+1	1.39997E+1
196	02/09/2022	15:20:20.237	0.00000E+0	0.00000E+0	6.00000E+1	0.00000E+0	0.00000E+0	0.00000E+0	2.00000E+1	1.40000E+1	2.00009E+1	1.39999E+1
197	02/09/2022	15:20:21.774	0.00000E+0	0.00000E+0	6.00000E+1	0.00000E+0	0.00000E+0	0.00000E+0	2.00000E+1	1.40000E+1	2.00000E+1	1.40020E+1
198	02/09/2022	15:20:23.138	0.00000E+0	0.00000E+0	6.00000E+1	0.00000E+0	0.00000E+0	0.00000E+0	2.00000E+1	1.40000E+1	1.99991E+1	1.39997E+1
199	02/09/2022	15:20:24.603	0.00000E+0	0.00000E+0	6.00000E+1	0.00000E+0	0.00000E+0	0.00000E+0	2.00000E+1	1.40000E+1	2.00006E+1	1.40011E+1
200	02/09/2022	15:20:26.088	0.00000E+0	0.00000E+0	6.00000E+1	0.00000E+0	0.00000E+0	0.00000E+0	2.00000E+1	1.40000E+1	2.00012E+1	1.39990E+1
201	02/09/2022	15:20:27.479	0.00000E+0	0.00000E+0	6.00000E+1	0.00000E+0	0.00000E+0	0.00000E+0	2.00000E+1	1.40000E+1	1.99992E+1	1.39979E+1
202	02/09/2022	15:20:28.946	0.00000E+0	0.00000E+0	6.00000E+1	0.00000E+0	0.00000E+0	0.00000E+0	2.00000E+1	1.40000E+1	2.00013E+1	1.39992E+1
203	02/09/2022	15:20:30.341	0.00000E+0	0.00000E+0	6.00000E+1	0.00000E+0	0.00000E+0	0.00000E+0	2.00000E+1	1.40000E+1	2.00010E+1	1.40005E+1
204	02/09/2022	15:20:31.721	0.00000E+0	0.00000E+0	6.00000E+1	0.00000E+0	0.00000E+0	0.00000E+0	2.00000E+1	1.40000E+1	2.00001E+1	1.40009E+1
205	02/09/2022	15:20:33.276	0.00000E+0	0.00000E+0	6.00000E+1	0.00000E+0	0.00000E+0	0.00000E+0	2.00000E+1	1.40000E+1	2.00011E+1	1.40001E+1
206	02/09/2022	15:20:34.688	0.00000E+0	0.00000E+0	6.00000E+1	0.00000E+0	0.00000E+0	0.00000E+0	2.00000E+1	1.40000E+1	1.99989E+1	1.39986E+1
207	02/09/2022	15:20:36.073	0.00000E+0	0.00000E+0	6.00000E+1	0.00000E+0	0.00000E+0	0.00000E+0	2.00000E+1	1.40000E+1	2.00010E+1	1.39971E+1
208	02/09/2022	15:20:37.418	0.00000E+0	0.00000E+0	6.00000E+1	0.00000E+0	0.00000E+0	0.00000E+0	2.00000E+1	1.40000E+1	2.00018E+1	1.40000E+1
209	02/09/2022	15:20:38.810	0.00000E+0	0.00000E+0	6.00000E+1	0.00000E+0	0.00000E+0	0.00000E+0	2.00000E+1	1.40000E+1	2.00011E+1	1.40002E+1
210	02/09/2022	15:20:40.266	0.00000E+0	0.00000E+0	6.00000E+1	0.00000E+0	0.00000E+0	0.00000E+0	2.00000E+1	1.40000E+1	2.00014E+1	1.40002E+1
211	02/09/2022	15:20:41.651	0.00000E+0	0.00000E+0	6.00000E+1	0.00000E+0	0.00000E+0	0.00000E+0	2.00000E+1	1.40000E+1	2.00007E+1	1.39990E+1
212	02/09/2022	15:20:43.099	0.00000E+0	0.00000E+0	6.00000E+1	0.00000E+0	0.00000E+0	0.00000E+0	2.00000E+1	1.40000E+1	2.00032E+1	1.39997E+1
213	02/09/2022	15:20:44.603	0.00000E+0	0.00000E+0	6.00000E+1	0.00000E+0	0.00000E+0	0.00000E+0	2.00000E+1	1.40000E+1	2.00026E+1	1.40010E+1
214	02/09/2022	15:20:45.975	0.00000E+0	0.00000E+0	6.00000E+1	0.00000E+0	0.00000E+0	0.00000E+0	2.00000E+1	1.40000E+1	2.00030E+1	1.39979E+1
215	02/09/2022	15:20:47.563	0.00000E+0	0.00000E+0	6.00000E+1	0.00000E+0	0.00000E+0	0.00000E+0	2.00000E+1	1.40000E+1	2.00014E+1	1.40011E+1
216	02/09/2022	15:20:48.972	0.00000E+0	0.00000E+0	6.00000E+1	0.00000E+0	0.00000E+0	0.00000E+0	2.00000E+1	1.40000E+1	1.99984E+1	1.40013E+1
217	02/09/2022	15:20:50.375	0.00000E+0	0.00000E+0	6.00000E+1	0.00000E+0	0.00000E+0	0.00000E+0	2.00000E+1	1.40000E+1	2.00000E+1	1.39989E+1
218	02/09/2022	15:20:51.889	0.00000E+0	0.00000E+0	6.00000E+1	0.00000E+0	0.00000E+0	0.00000E+0	2.00000E+1	1.40000E+1	2.00022E+1	1.40001E+1
219	02/09/2022	15:20:53.326	0.00000E+0	0.00000E+0	6.00000E+1	0.00000E+0	0.00000E+0	0.00000E+0	2.00000E+1	1.40000E+1	2.00009E+1	1.39987E+1
220	02/09/2022	15:20:54.732	0.00000E+0	0.00000E+0	6.00000E+1	0.00000E+0	0.00000E+0	0.00000E+0	2.00000E+1	1.40000E+1	1.99995E+1	1.40008E+1
221	02/09/2022	15:20:56.203	0.00000E+0	0.00000E+0	6.00000E+1	0.00000E+0	0.00000E+0	0.00000E+0	2.00000E+1	1.40000E+1	1.99981E+1	1.39969E+1
222	02/09/2022	15:20:57.601	0.00000E+0	0.00000E+0	6.00000E+1	0.00000E+0	0.00000E+0	0.00000E+0	2.00000E+1	1.40000E+1	1.99990E+1	1.40002E+1
223	02/09/2022	15:20:59.069	0.00000E+0	0.00000E+0	6.00000E+1	0.00000E+0	0.00000E+0	0.00000E+0	2.00000E+1	1.40000E+1	2.00000E+1	1.40012E+1
224	02/09/2022	15:21:00.462	0.00000E+0	0.00000E+0	6.00000E+1	0.00000E+0	0.00000E+0	0.00000E+0	2.00000E+1	1.40000E+1	1.99999E+1	1.40003E+1
225	02/09/2022	15:21:01.862	0.00000E+0	0.00000E+0	6.00000E+1	0.00000E+0	0.00000E+0	0.00000E+0	2.00000E+1	1.40000E+1	1.99990E+1	1.39999E+1
226	02/09/2022	15:21:03.313	0.00000E+0	0.00000E+0	6.00000E+1	0.00000E+0	0.00000E+0	0.00000E+0	2.00000E+1	1.40000E+1	1.99999E+1	1.40001E+1
227	02/09/2022	15:21:04.708	0.00000E+0	0.00000E+0	6.00000E+1	0.00000E+0	0.00000E+0	0.00000E+0	2.00000E+1	1.40000E+1	2.00018E+1	1.40003E+1
228	02/09/2022	15:21:06.223	0.00000E+0	0.00000E+0	6.00000E+1	0.00000E+0	0.00000E+0	0.00000E+0	2.00000E+1	1.40000E+1	2.00005E+1	1.39982E+1
229	02/09/2022	15:21:07.649	0.00000E+0	0.00000E+0	6.00000E+1	0.00000E+0	0.00000E+0	0.00000E+0	2.00000E+1	1.40000E+1	1.99968E+1	1.39975E+1
230	02/09/2022	15:21:09.027	0.00000E+0	0.00000E+0	6.00000E+1	0.00000E+0	0.00000E+0	0.00000E+0	2.00000E+1	1.40000E+1	2.00001E+1	1.40000E+1
231	02/09/2022	15:21:10.510	0.00000E+0	0.00000E+0	6.00000E+1	0.00000E+0	0.00000E+0	0.00000E+0	2.00000E+1	1.40000E+1	1.99991E+1	1.39975E+1
232	02/09/2022	15:21:11.948	0.00000E+0	0.00000E+0	6.00000E+1	0.00000E+0	0.00000E+0	0.00000E+0	2.00000E+1	1.40000E+1	2.00007E+1	1.40020E+1
233	02/09/2022	15:21:13.414	0.00000E+0	0.00000E+0	6.00000E+1	0.00000E+0	0.00000E+0	0.00000E+0	2.00000E+1	1.40000E+1	1.99996E+1	1.39993E+1
234	02/09/2022	15:21:14.936	0.00000E+0	0.00000E+0	6.00000E+1	0.00000E+0	0.00000E+0	0.00000E+0	2.00000E+1	1.40000E+1	2.00006E+1	1.40007E+1
235	02/09/2022	15:21:16.304	0.00000E+0	0.00000E+0	6.00000E+1	0.00000E+0	0.00000E+0	0.00000E+0	2.00000E+1	1.40000E+1	2.00008E+1	1.39980E+1
236	02/09/2022	15:21:17.855	0.00000E+0	0.00000E+0	6.00000E+1	0.00000E+0	0.00000E+0	0.00000E+0	2.00000E+1	1.40000E+1	1.99983E+1	1.39991E+1
237	02/09/2022	15:21:19.252	0.00000E+0	0.00000E+0	6.00000E+1	0.00000E+0	0.00000E+0	0.00000E+0	2.00000E+1	1.40000E+1	1.99985E+1	1.39997E+1
238	02/09/2022	15:21:20.631	0.00000E+0	0.00000E+0	6.00000E+1	0.00000E+0	0.00000E+0	0.00000E+0	2.00000E+1	1.40000E+1	1.99992E+1	1.40025E+1
239	02/09/2022	15:21:22.162	0.00000E+0	0.00000E+0	6.00000E+1	0.00000E+0	0.00000E+0	0.00000E+0	2.00000E+1	1.40000E+1	1.99983E+1	1.40001E+1
240	02/09/2022	15:21:23.535	0.00000E+0	0.00000E+0	6.00000E+1	0.00000E+0	0.00000E+0	0.00000E+0	2.00000E+1	1.40000E+1	2.00017E+1	1.40019E+1
241	02/09/2022	15:21:24.984	0.00000E+0	0.00000E+0	6.00000E+1	0.00000E+0	0.00000E+0	0.00000E+0	2.00000E+1	1.40000E+1	2.00018E+1	1.39995E+1
242	02/09/2022	15:21:26.511	0.00000E+0	0.00000E+0	6.00000E+1	0.00000E+0	0.00000E+0	0.00000E+0	2.00000E+1	1.40000E+1	2.00003E+1	1.39983E+1
243	02/09/2022	15:21:27.906	0.00000E+0	0.00000E+0	6.00000E+1	0.00000E+0	0.00000E+0	0.00000E+0	2.00000E+1	1.40000E+1	1.99992E+1	1.39983E+1
244	02/09/2022	15:21:29.441	0.00000E+0	0.00000E+0	6.00000E+1	0.00000E+0	0.00000E+0	0.00000E+0	2.00000E+1	1.40000E+1	1.99996E+1	1.40008E+1
245	02/09/2022	15:21:30.819	0.00000E+0	0.00000E+0	6.00000E+1	0.00000E+0	0.00000E+0	0.00000E+0	2.00000E+1	1.40000E+1	2.00015E+1	1.39997E+1
246	02/09/2022	15:21:32.248	0.00000E+0	0.00000E+0	6.00000E+1	0.00000E+0	0.00000E+0	0.00000E+0	2.00000E+1	1.40000E+1	2.00026E+1	1.40027E+1
247	02/09/2022	15:21:33.762	0.00000E+0	0.00000E+0	6.00000E+1	0.00000E+0	0.00000E+0	0.00000E+0	2.00000E+1	1.40000E+1	2.00006E+1	1.39981E+1
248	02/09/2022	15:21:35.140	0.00000E+0	0.00000E+0	6.00000E+1	0.00000E+0	0.00000E+0	0.00000E+0	2.00000E+1	1.40000E+1	2.00010E+1	1.40008E+1
249	02/09/2022	15:21:36.586	0.00000E+0	0.00000E+0	6.00000E+1	0.00000E+0	0.00000E+0	0.00000E+0	2.00000E+1	1.40000E+1	1.99964E+1	1.39978E+1
250	02/09/2022	15:21:38.025	0.00000E+0	0.00000E+0	6.00000E+1	0.00000E+0	0.00000E+0	0.00000E+0	2.00000E+1	1.40000E+1	1.99994E+1	1.39979E+1
251	02/09/2022	15:21:39.427	0.00000E+0	0.00000E+0	6.00000E+1	0.00000E+0	0.00000E+0	0.00000E+0	2.00000E+1	1.40000E+1	1.99996E+1	1.40030E+1
252	02/09/2022	15:21:40.879	0.00000E+0	0.00000E+0	6.00000E+1	0.00000E+0	0.00000E+0	0.00000E+0	2.00000E+1	1.40000E+1	1.99997E+1	1.40001E+1
253	02/09/2022	15:21:42.258	0.00000E+0	0.00000E+0	6.00000E+1	0.00000E+0	0.00000E+0	0.00000E+0	2.00000E+1	1.40000E+1	1.99986E+1	1.39998E+1
254	02/09/2022	15:21:43.755	0.00000E+0	0.00000E+0	6.00000E+1	0.00000E+0	0.00000E+0	0.00000E+0	2.00000E+1	1.40000E+1	1.99989E+1	1.40002E+1
255	02/09/2022	15:21:45.234	0.00000E+0	0.00000E+0	6.00000E+1	0.00000E+0	0.00000E+0	0.00000E+0	2.00000E+1	1.40000E+1	1.99994E+1	1.39995E+1
256	02/09/2022	15:21:46.620	0.00000E+0	0.00000E+0	6.00000E+1	0.00000E+0	0.00000E+0	0.00000E+0	2.00000E+1	1.40000E+1	1.99983E+1	1.40014E+1
257	02/09/2022	15:21:48.066	0.00000E+0	0.00000E+0	6.00000E+1	0.00000E+0	0.00000E+0	0.00000E+0	2.00000E+1	1.40000E+1	2.00004E+1	1.39993E+1
258	02/09/2022	15:21:49.447	0.00000E+0	0.00000E+0	6.00000E+1	0.00000E+0	0.00000E+0	0.00000E+0	2.00000E+1	1.40000E+1	2.00007E+1	1.39985E+1
259	02/09/2022	15:21:50.814	0.00000E+0	0.00000E+0	6.00000E+1	0.00000E+0	0.00000E+0	0.00000E+0	2.00000E+1	1.40000E+1	1.99970E+1	1.39997E+1
260	02/09/2022	15:21:52.382	0.00000E+0	0.00000E+0	6.00000E+1	0.00000E+0	0.00000E+0	0.00000E+0	2.00000E+1	1.40000E+1	1.99987E+1	1.39991E+1
261	02/09/2022	15:21:53.747	0.00000E+0	0.00000E+0	6.00000E+1	0.00000E+0	0.00000E+0	0.00000E+0	2.00000E+1	1.40000E+1	1.99983E+1	1.39963E+1
262	02/09/2022	15:21:55.187	0.00000E+0	0.00000E+0	6.00000E+1	0.00000E+0	0.00000E+0	0.00000E+0	2.00000E+1	1.40000E+1	2.00006E+1	1.40000E+1
263	02/09/2022	15:21:56.519	0.00000E+0	0.00000E+0	6.00000E+1	0.00000E+0	0.00000E+0	0.00000E+0	2.00000E+1	1.40000E+1	1.99977E+1	1.40002E+1
264	02/09/2022	15:21:57.908	0.00000E+0	0.00000E+0	6.00000E+1	0.00000E+0	0.00000E+0	0.00000E+0	2.00000E+1	1.40000E+1	1.99983E+1	1.40002E+1
265	02/09/2022	15:21:59.396	0.00000E+0	0.00000E+0	6.00000E+1	0.00000E+0	0.00000E+0	0.00000E+0	2.00000E+1	1.40000E+1	1.99989E+1	1.39997E+1
266	02/09/2022	15:22:00.796	0.00000E+0	0.00000E+0	6.00000E+1	0.00000E+0	0.00000E+0	0.00000E+0	2.00000E+1	1.40000E+1	2.00012E+1	1.40011E+1
267	02/09/2022	15:22:02.178	0.00000E+0	0.00000E+0	6.00000E+1	0.00000E+0	0.00000E+0	0.00000E+0	2.00000E+1	1.40000E+1	1.99985E+1	1.40000E+1
268	02/09/2022	15:22:03.665	0.00000E+0	0.00000E+0	6.00000E+1	0.00000E+0	0.00000E+0	0.00000E+0	2.00000E+1	1.40000E+1	1.99986E+1	1.40013E+1
269	02/09/2022	15:22:05.089	0.00000E+0	0.00000E+0	6.00000E+1	0.00000E+0	0.00000E+0	0.00000E+0	2.00000E+1	1.40000E+1	1.99990E+1	1.40012E+1
270	02/09/2022	15:22:06.581	0.00000E+0	0.00000E+0	6.00000E+1	0.00000E+0	0.00000E+0	0.00000E+0	2.00000E+1	1.40000E+1	1.99990E+1	1.39993E+1
271	02/09/2022	15:22:07.962	0.00000E+0	0.00000E+0	6.00000E+1	0.00000E+0	0.00000E+0	0.00000E+0	2.00000E+1	1.40000E+1	2.00013E+1	1.39987E+1
272	02/09/2022	15:22:09.320	0.00000E+0	0.00000E+0	6.00000E+1	0.00000E+0	0.00000E+0	0.00000E+0	2.00000E+1	1.40000E+1	1.99978E+1	1.39997E+1
273	02/09/2022	15:22:10.789	0.00000E+0	0.00000E+0	6.00000E+1	0.00000E+0	0.00000E+0	0.00000E+0	2.00000E+1	1.40000E+1	1.99996E+1	1.39973E+1
274	02/09/2022	15:22:12.178	0.00000E+0	0.00000E+0	6.00000E+1	0.00000E+0	0.00000E+0	0.00000E+0	2.00000E+1	1.40000E+1	1.99992E+1	1.39982E+1
275	02/09/2022	15:22:13.576	0.00000E+0	0.00000E+0	6.00000E+1	0.00000E+0	0.00000E+0	0.00000E+0	2.00000E+1	1.40000E+1	2.00002E+1	1.39985E+1
276	02/09/2022	15:22:15.073	0.00000E+0	0.00000E+0	6.00000E+1	0.00000E+0	0.00000E+0	0.00000E+0	2.00000E+1	1.40000E+1	2.00007E+1	1.40014E+1
277	02/09/2022	15:22:16.454	0.00000E+0	0.00000E+0	6.00000E+1	0.00000E+0	0.00000E+0	0.00000E+0	2.00000E+1	1.40000E+1	2.00002E+1	1.39997E+1
278	02/09/2022	15:22:18.021	0.00000E+0	0.00000E+0	6.00000E+1	0.00000E+0	0.00000E+0	0.00000E+0	2.00000E+1	1.40000E+1	2.00020E+1	1.39976E+1
279	02/09/2022	15:22:19.396	0.00000E+0	0.00000E+0	6.00000E+1	0.00000E+0	0.00000E+0	0.00000E+0	2.00000E+1	1.40000E+1	2.00004E+1	1.39965E+1
280	02/09/2022	15:22:20.793	0.00000E+0	0.00000E+0	6.00000E+1	0.00000E+0	0.00000E+0	0.00000E+0	2.00000E+1	1.40000E+1	2.00002E+1	1.39982E+1
281	02/09/2022	15:22:22.262	0.00000E+0	0.00000E+0	6.00000E+1	0.00000E+0	0.00000E+0	0.00000E+0	2.00000E+1	1.40000E+1	2.00016E+1	1.39999E+1
282	02/09/2022	15:22:23.660	0.00000E+0	0.00000E+0	6.00000E+1	0.00000E+0	0.00000E+0	0.00000E+0	2.00000E+1	1.40000E+1	1.99981E+1	1.39994E+1
283	02/09/2022	15:22:25.225	0.00000E+0	0.00000E+0	6.00000E+1	0.00000E+0	0.00000E+0	0.00000E+0	2.00000E+1	1.40000E+1	1.99998E+1	1.40002E+1
284	02/09/2022	15:22:26.606	0.00000E+0	0.00000E+0	6.00000E+1	0.00000E+0	0.00000E+0	0.00000E+0	2.00000E+1	1.40000E+1	2.00022E+1	1.40003E+1
285	02/09/2022	15:22:27.976	0.00000E+0	0.00000E+0	6.00000E+1	0.00000E+0	0.00000E+0	0.00000E+0	2.00000E+1	1.40000E+1	2.00007E+1	1.40013E+1
286	02/09/2022	15:22:29.475	0.00000E+0	0.00000E+0	6.00000E+1	0.00000E+0	0.00000E+0	0.00000E+0	2.00000E+1	1.40000E+1	1.99979E+1	1.39991E+1
287	02/09/2022	15:22:30.843	0.00000E+0	0.00000E+0	6.00000E+1	0.00000E+0	0.00000E+0	0.00000E+0	2.00000E+1	1.40000E+1	2.00016E+1	1.40004E+1
288	02/09/2022	15:22:32.304	0.00000E+0	0.00000E+0	6.00000E+1	0.00000E+0	0.00000E+0	0.00000E+0	2.00000E+1	1.40000E+1	2.00010E+1	1.39990E+1
289	02/09/2022	15:22:33.794	0.00000E+0	0.00000E+0	6.00000E+1	0.00000E+0	0.00000E+0	0.00000E+0	2.00000E+1	1.40000E+1	2.00020E+1	1.40018E+1
290	02/09/2022	15:22:35.175	0.00000E+0	0.00000E+0	6.00000E+1	0.00000E+0	0.00000E+0	0.00000E+0	2.00000E+1	1.40000E+1	1.99989E+1	1.40004E+1
291	02/09/2022	15:22:36.651	0.00000E+0	0.00000E+0	6.00000E+1	0.00000E+0	0.00000E+0	0.00000E+0	2.00000E+1	1.40000E+1	1.99990E+1	1.39988E+1
292	02/09/2022	15:22:38.038	0.00000E+0	0.00000E+0	6.00000E+1	0.00000E+0	0.00000E+0	0.00000E+0	2.00000E+1	1.40000E+1	2.00025E+1	1.40029E+1
293	02/09/2022	15:22:39.423	0.00000E+0	0.00000E+0	6.00000E+1	0.00000E+0	0.00000E+0	0.00000E+0	2.00000E+1	1.40000E+1	2.00000E+1	1.40004E+1
294	02/09/2022	15:22:40.921	0.00000E+0	0.00000E+0	6.00000E+1	0.00000E+0	0.00000E+0	0.00000E+0	2.00000E+1	1.40000E+1	1.99987E+1	1.40005E+1
295	02/09/2022	15:22:42.300	0.00000E+0	0.00000E+0	6.00000E+1	0.00000E+0	0.00000E+0	0.00000E+0	2.00000E+1	1.40000E+1	1.99989E+1	1.40013E+1
296	02/09/2022	15:22:43.673	0.00000E+0	0.00000E+0	6.00000E+1	0.00000E+0	0.00000E+0	0.00000E+0	2.00000E+1	1.40000E+1	1.99999E+1	1.39986E+1
297	02/09/2022	15:22:45.210	0.00000E+0	0.00000E+0	6.00000E+1	0.00000E+0	0.00000E+0	0.00000E+0	2.00000E+1	1.40000E+1	2.00007E+1	1.40026E+1
298	02/09/2022	15:22:46.602	0.00000E+0	0.00000E+0	6.00000E+1	0.00000E+0	0.00000E+0	0.00000E+0	2.00000E+1	1.40000E+1	1.99983E+1	1.39995E+1
299	02/09/2022	15:22:48.058	0.00000E+0	0.00000E+0	6.00000E+1	0.00000E+0	0.00000E+0	0.00000E+0	2.00000E+1	1.40000E+1	1.99993E+1	1.39995E+1
300	02/09/2022	15:22:49.445	0.00000E+0	0.00000E+0	6.00000E+1	0.00000E+0	0.00000E+0	0.00000E+0	2.00000E+1	1.40000E+1	2.00014E+1	1.39993E+1
301	02/09/2022	15:22:50.832	0.00000E+0	0.00000E+0	6.00000E+1	0.00000E+0	0.00000E+0	0.00000E+0	2.00000E+1	1.40000E+1	1.99973E+1	1.39985E+1
