#Iteration	Date	Time	RTPhase	NFringe	AccelAxis	AccelMean	AccelTemp
1	02/09/2022	15:15:40.760	1.47262156E-1	-1.23500000E+3	2.00000000E+0	-9.80585212E+0	7.16107400E+6
2	02/09/2022	15:15:42.216	4.00522384E+0	-1.23500000E+3	2.00000000E+0	-9.80585212E+0	7.16107400E+6
3	02/09/2022	15:15:43.719	3.63400049E+0	-1.23500000E+3	2.00000000E+0	-9.80585212E+0	7.16107400E+6
4	02/09/2022	15:15:45.092	1.99034007E-1	-1.23500000E+3	2.00000000E+0	-9.80585212E+0	7.16107400E+6
5	02/09/2022	15:15:46.491	1.35220406E+0	-1.23300000E+3	2.00000000E+0	-9.80585212E+0	7.16107400E+6
6	02/09/2022	15:15:47.979	4.70970451E+0	-1.23400000E+3	2.00000000E+0	-9.80585212E+0	7.16107400E+6
7	02/09/2022	15:15:49.372	2.39607799E+0	-1.23400000E+3	2.00000000E+0	-9.80585212E+0	7.16107400E+6
8	02/09/2022	15:15:50.817	2.60201491E+0	-1.23300000E+3	2.00000000E+0	-9.80585212E+0	7.16107400E+6
9	02/09/2022	15:15:52.362	4.23378697E+0	-1.23400000E+3	2.00000000E+0	-9.80585212E+0	7.16107400E+6
10	02/09/2022	15:15:53.741	4.38526758E+0	-1.23300000E+3	2.00000000E+0	-9.80585212E+0	7.16107400E+6
11	02/09/2022	15:15:55.335	2.83057805E+0	-1.23300000E+3	2.00000000E+0	-9.80585212E+0	7.16107400E+6
12	02/09/2022	15:15:56.761	3.24053441E-1	-1.23300000E+3	2.00000000E+0	-9.80585212E+0	7.16107400E+6
13	02/09/2022	15:15:58.140	5.80228233E-1	-1.23500000E+3	2.00000000E+0	-9.80585212E+0	7.16107400E+6
14	02/09/2022	15:15:59.661	5.55607841E+0	-1.23400000E+3	2.00000000E+0	-9.80585212E+0	7.16107400E+6
15	02/09/2022	15:16:01.047	2.50192267E+0	-1.23300000E+3	2.00000000E+0	-9.80585212E+0	7.16107400E+6
16	02/09/2022	15:16:02.558	2.44363140E+0	-1.23400000E+3	2.00000000E+0	-9.80585212E+0	7.16107400E+6
17	02/09/2022	15:16:03.936	3.00851982E+0	-1.23500000E+3	2.00000000E+0	-9.80585212E+0	7.16107400E+6
18	02/09/2022	15:16:05.336	5.21016575E+0	-1.23400000E+3	2.00000000E+0	-9.80585212E+0	7.16107400E+6
19	02/09/2022	15:16:06.865	1.03773800E+0	-1.23400000E+3	2.00000000E+0	-9.80585212E+0	7.16107400E+6
20	02/09/2022	15:16:08.246	5.03567543E+0	-1.23300000E+3	2.00000000E+0	-9.80585212E+0	7.16107400E+6
21	02/09/2022	15:16:09.702	1.18269919E+0	-1.23300000E+3	2.00000000E+0	-9.80585212E+0	7.16107400E+6
22	02/09/2022	15:16:11.209	1.22565065E+0	-1.23300000E+3	2.00000000E+0	-9.80585212E+0	7.16107400E+6
23	02/09/2022	15:16:12.605	1.09717976E+0	-1.23500000E+3	2.00000000E+0	-9.80585212E+0	7.16107400E+6
24	02/09/2022	15:16:14.108	2.55292753E+0	-1.23500000E+3	2.00000000E+0	-9.80585212E+0	7.16107400E+6
25	02/09/2022	15:16:15.495	7.83097192E-1	-1.23300000E+3	2.00000000E+0	-9.80585212E+0	7.16107400E+6
26	02/09/2022	15:16:16.936	2.40183042E+0	-1.23500000E+3	2.00000000E+0	-9.80585212E+0	7.16107400E+6
27	02/09/2022	15:16:18.425	3.95920441E+0	-1.23300000E+3	2.00000000E+0	-9.80585212E+0	7.16107400E+6
28	02/09/2022	15:16:19.808	4.14136463E+0	-1.23500000E+3	2.00000000E+0	-9.80585212E+0	7.16107400E+6
29	02/09/2022	15:16:21.259	1.03390305E+0	-1.23300000E+3	2.00000000E+0	-9.80585212E+0	7.16107400E+6
30	02/09/2022	15:16:22.689	2.79951494E+0	-1.23500000E+3	2.00000000E+0	-9.80585212E+0	7.16107400E+6
31	02/09/2022	15:16:24.064	1.25556327E+0	-1.23400000E+3	2.00000000E+0	-9.80585212E+0	7.16107400E+6
32	02/09/2022	15:16:25.603	2.84208290E+0	-1.23500000E+3	2.00000000E+0	-9.80585212E+0	7.16107400E+6
33	02/09/2022	15:16:27.013	1.52477690E+0	-1.23400000E+3	2.00000000E+0	-9.80585212E+0	7.16107400E+6
34	02/09/2022	15:16:28.447	3.30726258E+0	-1.23400000E+3	2.00000000E+0	-9.80585212E+0	7.16107400E+6
35	02/09/2022	15:16:29.943	2.02715561E+0	-1.23500000E+3	2.00000000E+0	-9.80585212E+0	7.16107400E+6
36	02/09/2022	15:16:31.316	5.96104934E+0	-1.23500000E+3	2.00000000E+0	-9.80585212E+0	7.16107400E+6
37	02/09/2022	15:16:32.824	1.60684488E-1	-1.23400000E+3	2.00000000E+0	-9.80585212E+0	7.16107400E+6
38	02/09/2022	15:16:34.285	2.51496150E+0	-1.23400000E+3	2.00000000E+0	-9.80585212E+0	7.16107400E+6
39	02/09/2022	15:16:35.656	4.63990839E+0	-1.23400000E+3	2.00000000E+0	-9.80585212E+0	7.16107400E+6
40	02/09/2022	15:16:37.215	2.05515076E+0	-1.23300000E+3	2.00000000E+0	-9.80585212E+0	7.16107400E+6
41	02/09/2022	15:16:38.625	1.33801474E+0	-1.23300000E+3	2.00000000E+0	-9.80585212E+0	7.16107400E+6
42	02/09/2022	15:16:40.085	3.02577710E+0	-1.23300000E+3	2.00000000E+0	-9.80585212E+0	7.16107400E+6
43	02/09/2022	15:16:41.442	3.80542284E+0	-1.23500000E+3	2.00000000E+0	-9.80585212E+0	7.16107400E+6
44	02/09/2022	15:16:42.810	2.68868483E+0	-1.23500000E+3	2.00000000E+0	-9.80585212E+0	7.16107400E+6
45	02/09/2022	15:16:44.288	3.83456847E+0	-1.23300000E+3	2.00000000E+0	-9.80585212E+0	7.16107400E+6
46	02/09/2022	15:16:45.663	4.24145688E+0	-1.23300000E+3	2.00000000E+0	-9.80585212E+0	7.16107400E+6
47	02/09/2022	15:16:47.112	3.64397136E+0	-1.23300000E+3	2.00000000E+0	-9.80585212E+0	7.16107400E+6
48	02/09/2022	15:16:48.627	2.23731098E+0	-1.23300000E+3	2.00000000E+0	-9.80585212E+0	7.16107400E+6
49	02/09/2022	15:16:50.000	2.52071393E+0	-1.23300000E+3	2.00000000E+0	-9.80585212E+0	7.16107400E+6
50	02/09/2022	15:16:51.527	5.65118522E+0	-1.23500000E+3	2.00000000E+0	-9.80585212E+0	7.16107400E+6
51	02/09/2022	15:16:52.913	5.21323371E+0	-1.23300000E+3	2.00000000E+0	-9.80585212E+0	7.16107400E+6
52	02/09/2022	15:16:54.274	5.83296195E+0	-1.23400000E+3	2.00000000E+0	-9.80585212E+0	7.16107400E+6
53	02/09/2022	15:16:55.758	4.41402972E+0	-1.23500000E+3	2.00000000E+0	-9.80585212E+0	7.16107400E+6
54	02/09/2022	15:16:57.131	2.73201978E+0	-1.23500000E+3	2.00000000E+0	-9.80585212E+0	7.16107400E+6
55	02/09/2022	15:16:58.539	4.45237924E+0	-1.23500000E+3	2.00000000E+0	-9.80585212E+0	7.16107400E+6
56	02/09/2022	15:17:00.036	2.35734498E+0	-1.23300000E+3	2.00000000E+0	-9.80585212E+0	7.16107400E+6
57	02/09/2022	15:17:01.423	3.46833056E+0	-1.23500000E+3	2.00000000E+0	-9.80585212E+0	7.16107400E+6
58	02/09/2022	15:17:02.957	3.48827231E+0	-1.23300000E+3	2.00000000E+0	-9.80585212E+0	7.16107400E+6
59	02/09/2022	15:17:04.352	1.26898561E+0	-1.23400000E+3	2.00000000E+0	-9.80585212E+0	7.16107400E+6
60	02/09/2022	15:17:05.740	8.01504962E-1	-1.23300000E+3	2.00000000E+0	-9.80585212E+0	7.16107400E+6
61	02/09/2022	15:17:07.197	2.10807310E+0	-1.23300000E+3	2.00000000E+0	-9.80585212E+0	7.16107400E+6
62	02/09/2022	15:17:08.568	6.70349604E-1	-1.23300000E+3	2.00000000E+0	-9.80585212E+0	7.16107400E+6
63	02/09/2022	15:17:10.073	1.99494201E+0	-1.23300000E+3	2.00000000E+0	-9.80585212E+0	7.16107400E+6
64	02/09/2022	15:17:11.519	3.67771894E+0	-1.23300000E+3	2.00000000E+0	-9.80585212E+0	7.16107400E+6
65	02/09/2022	15:17:12.919	2.33510225E+0	-1.23500000E+3	2.00000000E+0	-9.80585212E+0	7.16107400E+6
66	02/09/2022	15:17:14.373	4.47960740E+0	-1.23500000E+3	2.00000000E+0	-9.80585212E+0	7.16107400E+6
67	02/09/2022	15:17:15.751	3.00391788E+0	-1.23500000E+3	2.00000000E+0	-9.80585212E+0	7.16107400E+6
68	02/09/2022	15:17:17.221	4.41479671E+0	-1.23400000E+3	2.00000000E+0	-9.80585212E+0	7.16107400E+6
69	02/09/2022	15:17:18.741	2.85473825E+0	-1.23300000E+3	2.00000000E+0	-9.80585212E+0	7.16107400E+6
70	02/09/2022	15:17:20.101	3.01849070E+0	-1.23300000E+3	2.00000000E+0	-9.80585212E+0	7.16107400E+6
71	02/09/2022	15:17:21.628	1.98880609E+0	-1.23500000E+3	2.00000000E+0	-9.80585212E+0	7.16107400E+6
72	02/09/2022	15:17:23.040	4.20234037E+0	-1.23500000E+3	2.00000000E+0	-9.80585212E+0	7.16107400E+6
73	02/09/2022	15:17:24.431	2.34430614E+0	-1.23300000E+3	2.00000000E+0	-9.80585212E+0	7.16107400E+6
74	02/09/2022	15:17:25.919	3.13929168E+0	-1.23500000E+3	2.00000000E+0	-9.80585212E+0	7.16107400E+6
75	02/09/2022	15:17:27.307	4.58852003E+0	-1.23300000E+3	2.00000000E+0	-9.80585212E+0	7.16107400E+6
76	02/09/2022	15:17:28.760	4.16475784E+0	-1.23400000E+3	2.00000000E+0	-9.80585212E+0	7.16107400E+6
77	02/09/2022	15:17:30.183	4.35228699E+0	-1.23300000E+3	2.00000000E+0	-9.80585212E+0	7.16107400E+6
78	02/09/2022	15:17:31.566	1.95199055E+0	-1.23400000E+3	2.00000000E+0	-9.80585212E+0	7.16107400E+6
79	02/09/2022	15:17:33.113	1.14971860E+0	-1.23300000E+3	2.00000000E+0	-9.80585212E+0	7.16107400E+6
80	02/09/2022	15:17:34.495	2.28754885E+0	-1.23500000E+3	2.00000000E+0	-9.80585212E+0	7.16107400E+6
81	02/09/2022	15:17:35.875	5.12119486E+0	-1.23500000E+3	2.00000000E+0	-9.80585212E+0	7.16107400E+6
82	02/09/2022	15:17:37.414	2.32091293E+0	-1.23500000E+3	2.00000000E+0	-9.80585212E+0	7.16107400E+6
83	02/09/2022	15:17:38.805	3.26546160E+0	-1.23300000E+3	2.00000000E+0	-9.80585212E+0	7.16107400E+6
84	02/09/2022	15:17:40.341	4.05622870E+0	-1.23500000E+3	2.00000000E+0	-9.80585212E+0	7.16107400E+6
85	02/09/2022	15:17:41.720	6.02509304E+0	-1.23400000E+3	2.00000000E+0	-9.80585212E+0	7.16107400E+6
86	02/09/2022	15:17:43.100	1.20916036E+0	-1.23300000E+3	2.00000000E+0	-9.80585212E+0	7.16107400E+6
87	02/09/2022	15:17:44.638	1.82812160E+0	-1.23400000E+3	2.00000000E+0	-9.80585212E+0	7.16107400E+6
88	02/09/2022	15:17:46.025	2.99126254E-2	-1.23300000E+3	2.00000000E+0	-9.80585212E+0	7.16107400E+6
89	02/09/2022	15:17:47.419	3.00353438E+0	-1.23400000E+3	2.00000000E+0	-9.80585212E+0	7.16107400E+6
90	02/09/2022	15:17:48.914	1.62985459E-1	-1.23500000E+3	2.00000000E+0	-9.80585212E+0	7.16107400E+6
91	02/09/2022	15:17:50.302	2.87813145E+0	-1.23300000E+3	2.00000000E+0	-9.80585212E+0	7.16107400E+6
92	02/09/2022	15:17:51.732	1.61144682E+0	-1.23400000E+3	2.00000000E+0	-9.80585212E+0	7.16107400E+6
93	02/09/2022	15:17:53.138	3.59028203E+0	-1.23300000E+3	2.00000000E+0	-9.80585212E+0	7.16107400E+6
94	02/09/2022	15:17:54.526	1.12479141E+0	-1.23500000E+3	2.00000000E+0	-9.80585212E+0	7.16107400E+6
95	02/09/2022	15:17:56.020	1.82927209E+0	-1.23400000E+3	2.00000000E+0	-9.80585212E+0	7.16107400E+6
96	02/09/2022	15:17:57.419	3.27658296E+0	-1.23300000E+3	2.00000000E+0	-9.80585212E+0	7.16107400E+6
97	02/09/2022	15:17:58.842	2.95099554E+0	-1.23300000E+3	2.00000000E+0	-9.80585212E+0	7.16107400E+6
98	02/09/2022	15:18:00.225	3.55691795E+0	-1.23500000E+3	2.00000000E+0	-9.80585212E+0	7.16107400E+6
99	02/09/2022	15:18:01.620	5.09396670E+0	-1.23300000E+3	2.00000000E+0	-9.80585212E+0	7.16107400E+6
100	02/09/2022	15:18:03.141	5.51466093E+0	-1.23500000E+3	2.00000000E+0	-9.80585212E+0	7.16107400E+6
101	02/09/2022	15:18:04.528	3.29115578E+0	-1.23400000E+3	2.00000000E+0	-9.80585212E+0	7.16107400E+6
102	02/09/2022	15:18:05.911	3.33218977E+0	-1.23300000E+3	2.00000000E+0	-9.80585212E+0	7.16107400E+6
103	02/09/2022	15:18:07.422	5.09281622E-1	-1.23300000E+3	2.00000000E+0	-9.80585212E+0	7.16107400E+6
104	02/09/2022	15:18:08.814	1.00092246E+0	-1.23400000E+3	2.00000000E+0	-9.80585212E+0	7.16107400E+6
105	02/09/2022	15:18:10.306	3.00391788E+0	-1.23500000E+3	2.00000000E+0	-9.80585212E+0	7.16107400E+6
106	02/09/2022	15:18:11.700	4.07425297E+0	-1.23300000E+3	2.00000000E+0	-9.80585212E+0	7.16107400E+6
107	02/09/2022	15:18:13.079	1.78900509E+0	-1.23300000E+3	2.00000000E+0	-9.80585212E+0	7.16107400E+6
108	02/09/2022	15:18:14.585	5.35627742E+0	-1.23400000E+3	2.00000000E+0	-9.80585212E+0	7.16107400E+6
109	02/09/2022	15:18:15.967	2.57478675E+0	-1.23500000E+3	2.00000000E+0	-9.80585212E+0	7.16107400E+6
110	02/09/2022	15:18:17.356	4.63722392E+0	-1.23300000E+3	2.00000000E+0	-9.80585212E+0	7.16107400E+6
111	02/09/2022	15:18:18.855	2.61927220E+0	-1.23300000E+3	2.00000000E+0	-9.80585212E+0	7.16107400E+6
112	02/09/2022	15:18:20.248	1.15547103E+0	-1.23400000E+3	2.00000000E+0	-9.80585212E+0	7.16107400E+6
113	02/09/2022	15:18:21.712	2.57171879E+0	-1.23500000E+3	2.00000000E+0	-9.80585212E+0	7.16107400E+6
114	02/09/2022	15:18:23.094	3.76975779E-1	-1.23400000E+3	2.00000000E+0	-9.80585212E+0	7.16107400E+6
115	02/09/2022	15:18:24.480	6.28011735E+0	-1.23400000E+3	2.00000000E+0	-9.80585212E+0	7.16107400E+6
116	02/09/2022	15:18:25.930	2.90727709E+0	-1.23300000E+3	2.00000000E+0	-9.80585212E+0	7.16107400E+6
117	02/09/2022	15:18:27.307	1.90942259E+0	-1.23300000E+3	2.00000000E+0	-9.80585212E+0	7.16107400E+6
118	02/09/2022	15:18:28.800	4.29169475E+0	-1.23400000E+3	2.00000000E+0	-9.80585212E+0	7.16107400E+6
119	02/09/2022	15:18:30.238	2.01488376E+0	-1.23400000E+3	2.00000000E+0	-9.80585212E+0	7.16107400E+6
120	02/09/2022	15:18:31.628	3.27965092E+0	-1.23400000E+3	2.00000000E+0	-9.80585212E+0	7.16107400E+6
121	02/09/2022	15:18:33.131	1.09602927E+0	-1.23400000E+3	2.00000000E+0	-9.80585212E+0	7.16107400E+6
122	02/09/2022	15:18:34.513	4.02324811E+0	-1.23300000E+3	2.00000000E+0	-9.80585212E+0	7.16107400E+6
123	02/09/2022	15:18:35.964	6.23563190E+0	-1.23400000E+3	2.00000000E+0	-9.80585212E+0	7.16107400E+6
124	02/09/2022	15:18:37.463	3.34254414E+0	-1.23500000E+3	2.00000000E+0	-9.80585212E+0	7.16107400E+6
125	02/09/2022	15:18:38.833	3.59641796E+0	-1.23500000E+3	2.00000000E+0	-9.80585212E+0	7.16107400E+6
126	02/09/2022	15:18:40.314	1.82505364E+0	-1.23300000E+3	2.00000000E+0	-9.80585212E+0	7.16107400E+6
127	02/09/2022	15:18:41.699	3.06220915E+0	-1.23500000E+3	2.00000000E+0	-9.80585212E+0	7.16107400E+6
128	02/09/2022	15:18:43.075	5.85597166E-1	-1.23400000E+3	2.00000000E+0	-9.80585212E+0	7.16107400E+6
129	02/09/2022	15:18:44.555	3.92277237E+0	-1.23300000E+3	2.00000000E+0	-9.80585212E+0	7.16107400E+6
130	02/09/2022	15:18:45.950	1.39477203E+0	-1.23400000E+3	2.00000000E+0	-9.80585212E+0	7.16107400E+6
131	02/09/2022	15:18:47.342	5.47362695E+0	-1.23400000E+3	2.00000000E+0	-9.80585212E+0	7.16107400E+6
132	02/09/2022	15:18:48.838	4.65102975E+0	-1.23300000E+3	2.00000000E+0	-9.80585212E+0	7.16107400E+6
133	02/09/2022	15:18:50.221	1.21107783E+0	-1.23400000E+3	2.00000000E+0	-9.80585212E+0	7.16107400E+6
134	02/09/2022	15:18:51.723	3.26469461E+0	-1.23400000E+3	2.00000000E+0	-9.80585212E+0	7.16107400E+6
135	02/09/2022	15:18:53.145	3.92047140E+0	-1.23500000E+3	2.00000000E+0	-9.80585212E+0	7.16107400E+6
136	02/09/2022	15:18:54.576	1.81661675E+0	-1.23400000E+3	2.00000000E+0	-9.80585212E+0	7.16107400E+6
137	02/09/2022	15:18:56.078	1.27013609E+0	-1.23400000E+3	2.00000000E+0	-9.80585212E+0	7.16107400E+6
138	02/09/2022	15:18:57.452	1.30388367E-2	-1.23300000E+3	2.00000000E+0	-9.80585212E+0	7.16107400E+6
139	02/09/2022	15:18:58.889	2.81063630E+0	-1.23400000E+3	2.00000000E+0	-9.80585212E+0	7.16107400E+6
140	02/09/2022	15:19:00.319	4.37568020E+0	-1.23500000E+3	2.00000000E+0	-9.80585212E+0	7.16107400E+6
141	02/09/2022	15:19:01.705	5.70180659E+0	-1.23300000E+3	2.00000000E+0	-9.80585212E+0	7.16107400E+6
142	02/09/2022	15:19:03.205	3.21599072E+0	-1.23300000E+3	2.00000000E+0	-9.80585212E+0	7.16107400E+6
143	02/09/2022	15:19:04.595	5.83986486E+0	-1.23500000E+3	2.00000000E+0	-9.80585212E+0	7.16107400E+6
144	02/09/2022	15:19:05.971	5.84906874E+0	-1.23600000E+3	2.00000000E+0	-9.80585212E+0	7.16107400E+6
145	02/09/2022	15:19:07.472	2.65186929E+0	-1.23500000E+3	2.00000000E+0	-9.80585212E+0	7.16107400E+6
146	02/09/2022	15:19:08.853	1.69389829E+0	-1.23400000E+3	2.00000000E+0	-9.80585212E+0	7.16107400E+6
147	02/09/2022	15:19:10.268	3.08675284E+0	-1.23400000E+3	2.00000000E+0	-9.80585212E+0	7.16107400E+6
148	02/09/2022	15:19:11.676	4.25027727E+0	-1.23500000E+3	2.00000000E+0	-9.80585212E+0	7.16107400E+6
149	02/09/2022	15:19:13.031	2.99931594E+0	-1.23400000E+3	2.00000000E+0	-9.80585212E+0	7.16107400E+6
150	02/09/2022	15:19:14.596	4.07386948E+0	-1.23500000E+3	2.00000000E+0	-9.80585212E+0	7.16107400E+6
151	02/09/2022	15:19:15.957	4.41096176E+0	-1.23500000E+3	2.00000000E+0	-9.80585212E+0	7.16107400E+6
152	02/09/2022	15:19:17.433	5.04909776E+0	-1.23400000E+3	2.00000000E+0	-9.80585212E+0	7.16107400E+6
153	02/09/2022	15:19:18.806	2.50575762E+0	-1.23300000E+3	2.00000000E+0	-9.80585212E+0	7.16107400E+6
154	02/09/2022	15:19:20.179	3.78624808E+0	-1.23300000E+3	2.00000000E+0	-9.80585212E+0	7.16107400E+6
155	02/09/2022	15:19:21.627	1.97001483E+0	-1.23400000E+3	2.00000000E+0	-9.80585212E+0	7.16107400E+6
156	02/09/2022	15:19:23.029	2.23654399E+0	-1.23500000E+3	2.00000000E+0	-9.80585212E+0	7.16107400E+6
157	02/09/2022	15:19:24.431	1.71038858E-1	-1.23300000E+3	2.00000000E+0	-9.80585212E+0	7.16107400E+6
158	02/09/2022	15:19:25.923	6.14359306E-1	-1.23300000E+3	2.00000000E+0	-9.80585212E+0	7.16107400E+6
159	02/09/2022	15:19:27.297	5.07479194E+0	-1.23300000E+3	2.00000000E+0	-9.80585212E+0	7.16107400E+6
160	02/09/2022	15:19:28.766	8.78970991E-1	-1.23300000E+3	2.00000000E+0	-9.80585212E+0	7.16107400E+6
161	02/09/2022	15:19:30.148	3.85757819E+0	-1.23500000E+3	2.00000000E+0	-9.80585212E+0	7.16107400E+6
162	02/09/2022	15:19:31.533	3.06796158E-1	-1.23300000E+3	2.00000000E+0	-9.80585212E+0	7.16107400E+6
163	02/09/2022	15:19:33.060	5.74245708E+0	-1.23500000E+3	2.00000000E+0	-9.80585212E+0	7.16107400E+6
164	02/09/2022	15:19:34.436	3.30151015E+0	-1.23500000E+3	2.00000000E+0	-9.80585212E+0	7.16107400E+6
165	02/09/2022	15:19:35.812	6.05884062E+0	-1.23500000E+3	2.00000000E+0	-9.80585212E+0	7.16107400E+6
166	02/09/2022	15:19:37.234	2.51956344E+0	-1.23400000E+3	2.00000000E+0	-9.80585212E+0	7.16107400E+6
167	02/09/2022	15:19:38.635	1.28049046E+0	-1.23500000E+3	2.00000000E+0	-9.80585212E+0	7.16107400E+6
168	02/09/2022	15:19:40.108	5.15379195E+0	-1.23400000E+3	2.00000000E+0	-9.80585212E+0	7.16107400E+6
169	02/09/2022	15:19:41.492	3.63515097E+0	-1.23300000E+3	2.00000000E+0	-9.80585212E+0	7.16107400E+6
170	02/09/2022	15:19:42.880	6.03352993E+0	-1.23600000E+3	2.00000000E+0	-9.80585212E+0	7.16107400E+6
171	02/09/2022	15:19:44.398	5.65770464E+0	-1.23400000E+3	2.00000000E+0	-9.80585212E+0	7.16107400E+6
172	02/09/2022	15:19:45.770	2.10232067E+0	-1.23300000E+3	2.00000000E+0	-9.80585212E+0	7.16107400E+6
173	02/09/2022	15:19:47.322	2.98551011E+0	-1.23300000E+3	2.00000000E+0	-9.80585212E+0	7.16107400E+6
174	02/09/2022	15:19:48.718	3.11819945E+0	-1.23500000E+3	2.00000000E+0	-9.80585212E+0	7.16107400E+6
175	02/09/2022	15:19:50.104	5.06520456E+0	-1.23300000E+3	2.00000000E+0	-9.80585212E+0	7.16107400E+6
176	02/09/2022	15:19:51.594	2.31362652E+0	-1.23500000E+3	2.00000000E+0	-9.80585212E+0	7.16107400E+6
177	02/09/2022	15:19:52.985	4.70395209E+0	-1.23300000E+3	2.00000000E+0	-9.80585212E+0	7.16107400E+6
178	02/09/2022	15:19:54.441	4.06888404E+0	-1.23300000E+3	2.00000000E+0	-9.80585212E+0	7.16107400E+6
179	02/09/2022	15:19:55.917	3.29575772E+0	-1.23400000E+3	2.00000000E+0	-9.80585212E+0	7.16107400E+6
180	02/09/2022	15:19:57.316	3.17418975E+0	-1.23300000E+3	2.00000000E+0	-9.80585212E+0	7.16107400E+6
181	02/09/2022	15:19:58.780	5.10700554E+0	-1.23300000E+3	2.00000000E+0	-9.80585212E+0	7.16107400E+6
182	02/09/2022	15:20:00.161	1.14281569E+0	-1.23400000E+3	2.00000000E+0	-9.80585212E+0	7.16107400E+6
183	02/09/2022	15:20:01.553	6.69199119E-1	-1.23300000E+3	2.00000000E+0	-9.80585212E+0	7.16107400E+6
184	02/09/2022	15:20:03.044	1.33763125E+0	-1.23500000E+3	2.00000000E+0	-9.80585212E+0	7.16107400E+6
185	02/09/2022	15:20:04.422	8.21830207E-1	-1.23400000E+3	2.00000000E+0	-9.80585212E+0	7.16107400E+6
186	02/09/2022	15:20:05.871	6.11866587E+0	-1.23600000E+3	2.00000000E+0	-9.80585212E+0	7.16107400E+6
187	02/09/2022	15:20:07.372	1.95352453E+0	-1.23500000E+3	2.00000000E+0	-9.80585212E+0	7.16107400E+6
188	02/09/2022	15:20:08.738	4.44854428E+0	-1.23500000E+3	2.00000000E+0	-9.80585212E+0	7.16107400E+6
189	02/09/2022	15:20:10.287	2.95904894E+0	-1.23400000E+3	2.00000000E+0	-9.80585212E+0	7.16107400E+6
190	02/09/2022	15:20:11.659	3.46487910E+0	-1.23500000E+3	2.00000000E+0	-9.80585212E+0	7.16107400E+6
191	02/09/2022	15:20:13.039	3.36363637E+0	-1.23500000E+3	2.00000000E+0	-9.80585212E+0	7.16107400E+6
192	02/09/2022	15:20:14.585	3.30687908E+0	-1.23500000E+3	2.00000000E+0	-9.80585212E+0	7.16107400E+6
193	02/09/2022	15:20:15.988	4.61919965E+0	-1.23400000E+3	2.00000000E+0	-9.80585212E+0	7.16107400E+6
194	02/09/2022	15:20:17.443	4.09572870E-1	-1.23300000E+3	2.00000000E+0	-9.80585212E+0	7.16107400E+6
195	02/09/2022	15:20:18.870	5.06136961E+0	-1.23500000E+3	2.00000000E+0	-9.80585212E+0	7.16107400E+6
196	02/09/2022	15:20:20.237	9.47616632E-1	-1.23400000E+3	2.00000000E+0	-9.80585212E+0	7.16107400E+6
197	02/09/2022	15:20:21.774	2.49501975E+0	-1.23300000E+3	2.00000000E+0	-9.80585212E+0	7.16107400E+6
198	02/09/2022	15:20:23.138	4.97776766E+0	-1.23300000E+3	2.00000000E+0	-9.80585212E+0	7.16107400E+6
199	02/09/2022	15:20:24.603	6.07724839E+0	-1.23300000E+3	2.00000000E+0	-9.80585212E+0	7.16107400E+6
200	02/09/2022	15:20:26.088	3.97301024E+0	-1.23500000E+3	2.00000000E+0	-9.80585212E+0	7.16107400E+6
201	02/09/2022	15:20:27.479	3.11398100E+0	-1.23300000E+3	2.00000000E+0	-9.80585212E+0	7.16107400E+6
202	02/09/2022	15:20:28.946	2.12187892E+0	-1.23400000E+3	2.00000000E+0	-9.80585212E+0	7.16107400E+6
203	02/09/2022	15:20:30.341	5.82145709E-1	-1.23300000E+3	2.00000000E+0	-9.80585212E+0	7.16107400E+6
204	02/09/2022	15:20:31.721	1.10906811E+0	-1.23300000E+3	2.00000000E+0	-9.80585212E+0	7.16107400E+6
205	02/09/2022	15:20:33.276	1.32190794E+0	-1.23300000E+3	2.00000000E+0	-9.80585212E+0	7.16107400E+6
206	02/09/2022	15:20:34.688	2.65110230E+0	-1.23300000E+3	2.00000000E+0	-9.80585212E+0	7.16107400E+6
207	02/09/2022	15:20:36.073	4.75840840E+0	-1.23500000E+3	2.00000000E+0	-9.80585212E+0	7.16107400E+6
208	02/09/2022	15:20:37.418	3.71338399E+0	-1.23300000E+3	2.00000000E+0	-9.80585212E+0	7.16107400E+6
209	02/09/2022	15:20:38.810	2.71322852E+0	-1.23500000E+3	2.00000000E+0	-9.80585212E+0	7.16107400E+6
210	02/09/2022	15:20:40.266	4.70510257E+0	-1.23500000E+3	2.00000000E+0	-9.80585212E+0	7.16107400E+6
211	02/09/2022	15:20:41.651	3.92852480E+0	-1.23400000E+3	2.00000000E+0	-9.80585212E+0	7.16107400E+6
212	02/09/2022	15:20:43.099	3.13852469E+0	-1.23500000E+3	2.00000000E+0	-9.80585212E+0	7.16107400E+6
213	02/09/2022	15:20:44.603	2.59817996E+0	-1.23500000E+3	2.00000000E+0	-9.80585212E+0	7.16107400E+6
214	02/09/2022	15:20:45.975	3.41694221E+0	-1.23500000E+3	2.00000000E+0	-9.80585212E+0	7.16107400E+6
215	02/09/2022	15:20:47.563	6.81470965E-1	-1.23400000E+3	2.00000000E+0	-9.80585212E+0	7.16107400E+6
216	02/09/2022	15:20:48.972	5.92461730E+0	-1.23400000E+3	2.00000000E+0	-9.80585212E+0	7.16107400E+6
217	02/09/2022	15:20:50.375	4.94171911E+0	-1.23300000E+3	2.00000000E+0	-9.80585212E+0	7.16107400E+6
218	02/09/2022	15:20:51.889	8.96228275E-1	-1.23300000E+3	2.00000000E+0	-9.80585212E+0	7.16107400E+6
219	02/09/2022	15:20:53.326	4.53444721E+0	-1.23500000E+3	2.00000000E+0	-9.80585212E+0	7.16107400E+6
220	02/09/2022	15:20:54.732	4.33618019E+0	-1.23500000E+3	2.00000000E+0	-9.80585212E+0	7.16107400E+6
221	02/09/2022	15:20:56.203	3.66506360E+0	-1.23400000E+3	2.00000000E+0	-9.80585212E+0	7.16107400E+6
222	02/09/2022	15:20:57.601	6.02969498E+0	-1.23500000E+3	2.00000000E+0	-9.80585212E+0	7.16107400E+6
223	02/09/2022	15:20:59.069	2.44171392E+0	-1.23500000E+3	2.00000000E+0	-9.80585212E+0	7.16107400E+6
224	02/09/2022	15:21:00.462	3.27274801E+0	-1.23300000E+3	2.00000000E+0	-9.80585212E+0	7.16107400E+6
225	02/09/2022	15:21:01.862	3.17955868E+0	-1.23400000E+3	2.00000000E+0	-9.80585212E+0	7.16107400E+6
226	02/09/2022	15:21:03.313	3.75250050E+0	-1.23500000E+3	2.00000000E+0	-9.80585212E+0	7.16107400E+6
227	02/09/2022	15:21:04.708	3.64550534E+0	-1.23300000E+3	2.00000000E+0	-9.80585212E+0	7.16107400E+6
228	02/09/2022	15:21:06.223	4.64604431E+0	-1.23500000E+3	2.00000000E+0	-9.80585212E+0	7.16107400E+6
229	02/09/2022	15:21:07.649	4.69321422E+0	-1.23500000E+3	2.00000000E+0	-9.80585212E+0	7.16107400E+6
230	02/09/2022	15:21:09.027	3.98835005E-2	-1.23300000E+3	2.00000000E+0	-9.80585212E+0	7.16107400E+6
231	02/09/2022	15:21:10.510	9.28825367E-1	-1.23400000E+3	2.00000000E+0	-9.80585212E+0	7.16107400E+6
232	02/09/2022	15:21:11.948	1.33111183E+0	-1.23300000E+3	2.00000000E+0	-9.80585212E+0	7.16107400E+6
233	02/09/2022	15:21:13.414	5.15724341E+0	-1.23300000E+3	2.00000000E+0	-9.80585212E+0	7.16107400E+6
234	02/09/2022	15:21:14.936	1.25556327E+0	-1.23400000E+3	2.00000000E+0	-9.80585212E+0	7.16107400E+6
235	02/09/2022	15:21:16.304	2.39416051E+0	-1.23400000E+3	2.00000000E+0	-9.80585212E+0	7.16107400E+6
236	02/09/2022	15:21:17.855	1.52247593E-1	-1.23400000E+3	2.00000000E+0	-9.80585212E+0	7.16107400E+6
237	02/09/2022	15:21:19.252	1.11290306E+0	-1.23300000E+3	2.00000000E+0	-9.80585212E+0	7.16107400E+6
238	02/09/2022	15:21:20.631	9.41864204E-1	-1.23300000E+3	2.00000000E+0	-9.80585212E+0	7.16107400E+6
239	02/09/2022	15:21:22.162	4.70165111E+0	-1.23500000E+3	2.00000000E+0	-9.80585212E+0	7.16107400E+6
240	02/09/2022	15:21:23.535	4.66560257E+0	-1.23400000E+3	2.00000000E+0	-9.80585212E+0	7.16107400E+6
241	02/09/2022	15:21:24.984	2.22120418E+0	-1.23500000E+3	2.00000000E+0	-9.80585212E+0	7.16107400E+6
242	02/09/2022	15:21:26.511	6.25864161E+0	-1.23300000E+3	2.00000000E+0	-9.80585212E+0	7.16107400E+6
243	02/09/2022	15:21:27.906	2.54909257E+0	-1.23500000E+3	2.00000000E+0	-9.80585212E+0	7.16107400E+6
244	02/09/2022	15:21:29.441	4.60769479E+0	-1.23400000E+3	2.00000000E+0	-9.80585212E+0	7.16107400E+6
245	02/09/2022	15:21:30.819	2.43174304E+0	-1.23500000E+3	2.00000000E+0	-9.80585212E+0	7.16107400E+6
246	02/09/2022	15:21:32.248	4.10838405E+0	-1.23400000E+3	2.00000000E+0	-9.80585212E+0	7.16107400E+6
247	02/09/2022	15:21:33.762	3.97454422E+0	-1.23300000E+3	2.00000000E+0	-9.80585212E+0	7.16107400E+6
248	02/09/2022	15:21:35.140	4.86003463E+0	-1.23400000E+3	2.00000000E+0	-9.80585212E+0	7.16107400E+6
249	02/09/2022	15:21:36.586	1.40244194E+0	-1.23300000E+3	2.00000000E+0	-9.80585212E+0	7.16107400E+6
250	02/09/2022	15:21:38.025	4.81938414E+0	-1.23500000E+3	2.00000000E+0	-9.80585212E+0	7.16107400E+6
251	02/09/2022	15:21:39.427	1.38825261E+0	-1.23300000E+3	2.00000000E+0	-9.80585212E+0	7.16107400E+6
252	02/09/2022	15:21:40.879	3.68193739E+0	-1.23300000E+3	2.00000000E+0	-9.80585212E+0	7.16107400E+6
253	02/09/2022	15:21:42.258	1.67127207E+0	-1.23300000E+3	2.00000000E+0	-9.80585212E+0	7.16107400E+6
254	02/09/2022	15:21:43.755	4.38603457E+0	-1.23300000E+3	2.00000000E+0	-9.80585212E+0	7.16107400E+6
255	02/09/2022	15:21:45.234	2.89308777E+0	-1.23500000E+3	2.00000000E+0	-9.80585212E+0	7.16107400E+6
256	02/09/2022	15:21:46.620	5.04104436E+0	-1.23400000E+3	2.00000000E+0	-9.80585212E+0	7.16107400E+6
257	02/09/2022	15:21:48.066	9.00446722E-1	-1.23500000E+3	2.00000000E+0	-9.80585212E+0	7.16107400E+6
258	02/09/2022	15:21:49.447	4.01212675E+0	-1.23400000E+3	2.00000000E+0	-9.80585212E+0	7.16107400E+6
259	02/09/2022	15:21:50.814	1.17349530E+0	-1.23400000E+3	2.00000000E+0	-9.80585212E+0	7.16107400E+6
260	02/09/2022	15:21:52.382	3.39930143E+0	-1.23300000E+3	2.00000000E+0	-9.80585212E+0	7.16107400E+6
261	02/09/2022	15:21:53.747	4.06466559E+0	-1.23300000E+3	2.00000000E+0	-9.80585212E+0	7.16107400E+6
262	02/09/2022	15:21:55.187	3.80925779E+0	-1.23500000E+3	2.00000000E+0	-9.80585212E+0	7.16107400E+6
263	02/09/2022	15:21:56.519	5.11352496E+0	-1.23400000E+3	2.00000000E+0	-9.80585212E+0	7.16107400E+6
264	02/09/2022	15:21:57.908	4.64412684E-1	-1.23300000E+3	2.00000000E+0	-9.80585212E+0	7.16107400E+6
265	02/09/2022	15:21:59.396	3.49440823E+0	-1.23400000E+3	2.00000000E+0	-9.80585212E+0	7.16107400E+6
266	02/09/2022	15:22:00.796	2.60776734E+0	-1.23500000E+3	2.00000000E+0	-9.80585212E+0	7.16107400E+6
267	02/09/2022	15:22:02.178	5.33403469E+0	-1.23400000E+3	2.00000000E+0	-9.80585212E+0	7.16107400E+6
268	02/09/2022	15:22:03.665	3.34676258E+0	-1.23500000E+3	2.00000000E+0	-9.80585212E+0	7.16107400E+6
269	02/09/2022	15:22:05.089	4.82552006E+0	-1.23500000E+3	2.00000000E+0	-9.80585212E+0	7.16107400E+6
270	02/09/2022	15:22:06.581	1.90635462E+0	-1.23400000E+3	2.00000000E+0	-9.80585212E+0	7.16107400E+6
271	02/09/2022	15:22:07.962	4.22419959E+0	-1.23500000E+3	2.00000000E+0	-9.80585212E+0	7.16107400E+6
272	02/09/2022	15:22:09.320	1.48029146E-1	-1.23400000E+3	2.00000000E+0	-9.80585212E+0	7.16107400E+6
273	02/09/2022	15:22:10.789	1.90558763E+0	-1.23500000E+3	2.00000000E+0	-9.80585212E+0	7.16107400E+6
274	02/09/2022	15:22:12.178	2.44554887E+0	-1.23300000E+3	2.00000000E+0	-9.80585212E+0	7.16107400E+6
275	02/09/2022	15:22:13.576	7.00645725E-1	-1.23400000E+3	2.00000000E+0	-9.80585212E+0	7.16107400E+6
276	02/09/2022	15:22:15.073	4.02746656E+0	-1.23500000E+3	2.00000000E+0	-9.80585212E+0	7.16107400E+6
277	02/09/2022	15:22:16.454	5.70219008E+0	-1.23500000E+3	2.00000000E+0	-9.80585212E+0	7.16107400E+6
278	02/09/2022	15:22:18.021	3.28770432E+0	-1.23300000E+3	2.00000000E+0	-9.80585212E+0	7.16107400E+6
279	02/09/2022	15:22:19.396	7.66606899E-1	-1.23300000E+3	2.00000000E+0	-9.80585212E+0	7.16107400E+6
280	02/09/2022	15:22:20.793	5.23816090E+0	-1.23400000E+3	2.00000000E+0	-9.80585212E+0	7.16107400E+6
281	02/09/2022	15:22:22.262	4.57931615E+0	-1.23300000E+3	2.00000000E+0	-9.80585212E+0	7.16107400E+6
282	02/09/2022	15:22:23.660	3.06719459E+0	-1.23500000E+3	2.00000000E+0	-9.80585212E+0	7.16107400E+6
283	02/09/2022	15:22:25.225	5.26730653E+0	-1.23300000E+3	2.00000000E+0	-9.80585212E+0	7.16107400E+6
284	02/09/2022	15:22:26.606	3.53122377E+0	-1.23400000E+3	2.00000000E+0	-9.80585212E+0	7.16107400E+6
285	02/09/2022	15:22:27.976	3.25587422E+0	-1.23400000E+3	2.00000000E+0	-9.80585212E+0	7.16107400E+6
286	02/09/2022	15:22:29.475	1.12057297E+0	-1.23300000E+3	2.00000000E+0	-9.80585212E+0	7.16107400E+6
287	02/09/2022	15:22:30.843	1.80242743E-1	-1.23200000E+3	2.00000000E+0	-9.80585212E+0	7.16107400E+6
288	02/09/2022	15:22:32.304	2.72665085E-1	-1.23300000E+3	2.00000000E+0	-9.80585212E+0	7.16107400E+6
289	02/09/2022	15:22:33.794	2.63729647E+0	-1.23400000E+3	2.00000000E+0	-9.80585212E+0	7.16107400E+6
290	02/09/2022	15:22:35.175	4.25296173E+0	-1.23300000E+3	2.00000000E+0	-9.80585212E+0	7.16107400E+6
291	02/09/2022	15:22:36.651	5.56528230E+0	-1.23500000E+3	2.00000000E+0	-9.80585212E+0	7.16107400E+6
292	02/09/2022	15:22:38.038	3.96687432E+0	-1.23400000E+3	2.00000000E+0	-9.80585212E+0	7.16107400E+6
293	02/09/2022	15:22:39.423	1.85074782E+0	-1.23300000E+3	2.00000000E+0	-9.80585212E+0	7.16107400E+6
294	02/09/2022	15:22:40.921	3.34139365E+0	-1.23300000E+3	2.00000000E+0	-9.80585212E+0	7.16107400E+6
295	02/09/2022	15:22:42.300	2.75733047E+0	-1.23400000E+3	2.00000000E+0	-9.80585212E+0	7.16107400E+6
296	02/09/2022	15:22:43.673	1.12018947E+0	-1.23400000E+3	2.00000000E+0	-9.80585212E+0	7.16107400E+6
297	02/09/2022	15:22:45.210	6.15471442E+0	-1.23300000E+3	2.00000000E+0	-9.80585212E+0	7.16107400E+6
298	02/09/2022	15:22:46.602	3.09825770E+0	-1.23500000E+3	2.00000000E+0	-9.80585212E+0	7.16107400E+6
299	02/09/2022	15:22:48.058	4.73731617E+0	-1.23500000E+3	2.00000000E+0	-9.80585212E+0	7.16107400E+6
300	02/09/2022	15:22:49.445	5.65578716E+0	-1.23400000E+3	2.00000000E+0	-9.80585212E+0	7.16107400E+6
301	02/09/2022	15:22:50.832	2.53106830E+0	-1.23400000E+3	2.00000000E+0	-9.80585212E+0	7.16107400E+6
