#Iteration	Date	Time	STSX	STSY	RotationRateX	RotationRateY	FrCntX	FrCntY	TiptiltCmd1	TiptiltCmd2	TiptiltMonitor1	TiptiltMonitor2
1	15/03/2023	16:45:43.186	0.00000E+0	0.00000E+0	-2.60435E-1	-5.40729E-1	0.00000E+0	0.00000E+0	2.12495E+1	1.37071E+1	2.12501E+1	1.37065E+1
2	15/03/2023	16:45:44.672	0.00000E+0	0.00000E+0	-2.50603E-1	-2.44359E-1	0.00000E+0	0.00000E+0	2.12565E+1	1.37072E+1	2.12561E+1	1.37048E+1
3	15/03/2023	16:45:46.165	0.00000E+0	0.00000E+0	1.12307E+2	1.01068E+0	0.00000E+0	0.00000E+0	2.27550E+1	1.21829E+1	2.27539E+1	1.21854E+1
4	15/03/2023	16:45:47.623	0.00000E+0	0.00000E+0	-2.65139E+1	-2.32288E-1	0.00000E+0	0.00000E+0	2.09966E+1	1.39363E+1	2.09976E+1	1.39350E+1
5	15/03/2023	16:45:49.099	0.00000E+0	0.00000E+0	-1.64890E+2	-2.81080E-1	0.00000E+0	0.00000E+0	1.88759E+1	1.60119E+1	1.88758E+1	1.60098E+1
6	15/03/2023	16:45:50.601	0.00000E+0	0.00000E+0	7.24411E-2	6.14537E-1	0.00000E+0	0.00000E+0	2.11098E+1	1.38724E+1	2.11123E+1	1.38683E+1
7	15/03/2023	16:45:52.056	0.00000E+0	0.00000E+0	1.45141E+2	9.72258E-1	0.00000E+0	0.00000E+0	2.32978E+1	1.16489E+1	2.32975E+1	1.16494E+1
8	15/03/2023	16:45:53.529	0.00000E+0	0.00000E+0	-2.27103E+1	-5.77724E-1	0.00000E+0	0.00000E+0	2.10110E+1	1.39785E+1	2.10079E+1	1.39799E+1
9	15/03/2023	16:45:55.000	0.00000E+0	0.00000E+0	-1.63509E+2	-9.58880E-1	0.00000E+0	0.00000E+0	1.89099E+1	1.60552E+1	1.89108E+1	1.60556E+1
10	15/03/2023	16:45:56.483	0.00000E+0	0.00000E+0	6.74888E+1	2.27399E+0	0.00000E+0	0.00000E+0	2.20881E+1	1.28905E+1	2.20877E+1	1.28872E+1
11	15/03/2023	16:45:57.946	0.00000E+0	0.00000E+0	1.72694E+2	8.75168E-1	0.00000E+0	0.00000E+0	2.36630E+1	1.12699E+1	2.36620E+1	1.12734E+1
12	15/03/2023	16:45:59.432	0.00000E+0	0.00000E+0	-6.43312E+1	-1.34816E-1	0.00000E+0	0.00000E+0	2.04261E+1	1.45124E+1	2.04264E+1	1.45107E+1
13	15/03/2023	16:46:00.896	0.00000E+0	0.00000E+0	-1.60479E+2	-3.03909E+0	0.00000E+0	0.00000E+0	1.89202E+1	1.59787E+1	1.89187E+1	1.59788E+1
14	15/03/2023	16:46:02.385	0.00000E+0	0.00000E+0	8.98076E+1	8.89570E-1	0.00000E+0	0.00000E+0	2.23819E+1	1.25884E+1	2.23794E+1	1.25900E+1
15	15/03/2023	16:46:03.864	0.00000E+0	0.00000E+0	1.89288E+2	3.85464E+0	0.00000E+0	0.00000E+0	2.39613E+1	1.09925E+1	2.39636E+1	1.09936E+1
16	15/03/2023	16:46:05.335	0.00000E+0	0.00000E+0	-1.23793E+2	-4.30364E-1	0.00000E+0	0.00000E+0	1.96236E+1	1.53445E+1	1.96212E+1	1.53460E+1
17	15/03/2023	16:46:06.813	0.00000E+0	0.00000E+0	-1.75663E+2	-1.60203E+0	0.00000E+0	0.00000E+0	1.86878E+1	1.62052E+1	1.86893E+1	1.62068E+1
18	15/03/2023	16:46:08.320	0.00000E+0	0.00000E+0	1.43511E+2	9.35360E-1	0.00000E+0	0.00000E+0	2.31915E+1	1.17564E+1	2.31912E+1	1.17553E+1
19	15/03/2023	16:46:09.767	0.00000E+0	0.00000E+0	1.41704E+2	2.63555E-1	0.00000E+0	0.00000E+0	2.33449E+1	1.16502E+1	2.33452E+1	1.16490E+1
20	15/03/2023	16:46:11.267	0.00000E+0	0.00000E+0	-1.13565E+2	5.47380E-1	0.00000E+0	0.00000E+0	1.96971E+1	1.52772E+1	1.96979E+1	1.52772E+1
21	15/03/2023	16:46:12.748	0.00000E+0	0.00000E+0	-1.38238E+2	-1.01426E+0	0.00000E+0	0.00000E+0	1.92045E+1	1.56712E+1	1.92018E+1	1.56718E+1
22	15/03/2023	16:46:14.243	0.00000E+0	0.00000E+0	1.42106E+2	1.66020E+0	0.00000E+0	0.00000E+0	2.32190E+1	1.17587E+1	2.32183E+1	1.17554E+1
23	15/03/2023	16:46:15.718	0.00000E+0	0.00000E+0	1.69882E+2	-7.23910E-1	0.00000E+0	0.00000E+0	2.37326E+1	1.12836E+1	2.37323E+1	1.12818E+1
24	15/03/2023	16:46:17.197	0.00000E+0	0.00000E+0	-1.44709E+2	-3.82690E+0	0.00000E+0	0.00000E+0	1.92434E+1	1.56801E+1	1.92440E+1	1.56806E+1
25	15/03/2023	16:46:18.676	0.00000E+0	0.00000E+0	-1.56289E+2	2.93051E-1	0.00000E+0	0.00000E+0	1.89580E+1	1.59397E+1	1.89549E+1	1.59387E+1
26	15/03/2023	16:46:20.195	0.00000E+0	0.00000E+0	1.58051E+2	1.03619E+0	0.00000E+0	0.00000E+0	2.34387E+1	1.14985E+1	2.34400E+1	1.14968E+1
27	15/03/2023	16:46:21.684	0.00000E+0	0.00000E+0	1.25750E+2	-1.70764E-1	0.00000E+0	0.00000E+0	2.31200E+1	1.18374E+1	2.31206E+1	1.18351E+1
28	15/03/2023	16:46:23.165	0.00000E+0	0.00000E+0	-1.30405E+2	9.62347E-2	0.00000E+0	0.00000E+0	1.95027E+1	1.55010E+1	1.95030E+1	1.54998E+1
29	15/03/2023	16:46:24.633	0.00000E+0	0.00000E+0	-1.42379E+2	-1.90359E+0	0.00000E+0	0.00000E+0	1.91378E+1	1.57852E+1	1.91377E+1	1.57867E+1
30	15/03/2023	16:46:26.109	0.00000E+0	0.00000E+0	1.48409E+2	-5.25531E-1	0.00000E+0	0.00000E+0	2.33317E+1	1.16436E+1	2.33342E+1	1.16466E+1
31	15/03/2023	16:46:27.586	0.00000E+0	0.00000E+0	1.54646E+2	1.51802E+0	0.00000E+0	0.00000E+0	2.35163E+1	1.14711E+1	2.35174E+1	1.14714E+1
32	15/03/2023	16:46:29.045	0.00000E+0	0.00000E+0	-1.44953E+2	-5.97652E+0	0.00000E+0	0.00000E+0	1.92600E+1	1.57289E+1	1.92612E+1	1.57292E+1
33	15/03/2023	16:46:30.529	0.00000E+0	0.00000E+0	-1.37633E+2	-1.37176E+0	0.00000E+0	0.00000E+0	1.92151E+1	1.56567E+1	1.92161E+1	1.56584E+1
34	15/03/2023	16:46:32.003	0.00000E+0	0.00000E+0	1.70051E+2	1.67396E+0	0.00000E+0	0.00000E+0	2.36405E+1	1.13453E+1	2.36412E+1	1.13422E+1
35	15/03/2023	16:46:33.466	0.00000E+0	0.00000E+0	1.17882E+2	1.51319E+0	0.00000E+0	0.00000E+0	2.30789E+1	1.18929E+1	2.30787E+1	1.18918E+1
36	15/03/2023	16:46:34.987	0.00000E+0	0.00000E+0	-1.72360E+2	1.50977E+0	0.00000E+0	0.00000E+0	1.87946E+1	1.61103E+1	1.87948E+1	1.61109E+1
37	15/03/2023	16:46:36.471	0.00000E+0	0.00000E+0	-9.46280E+1	7.20365E-1	0.00000E+0	0.00000E+0	1.97118E+1	1.52505E+1	1.97109E+1	1.52523E+1
38	15/03/2023	16:46:37.951	0.00000E+0	0.00000E+0	1.60445E+2	1.39932E-1	0.00000E+0	0.00000E+0	2.34937E+1	1.14780E+1	2.34939E+1	1.14775E+1
39	15/03/2023	16:46:39.407	0.00000E+0	0.00000E+0	1.21809E+2	1.64455E+0	0.00000E+0	0.00000E+0	2.30558E+1	1.19039E+1	2.30568E+1	1.19033E+1
40	15/03/2023	16:46:40.903	0.00000E+0	0.00000E+0	-1.41367E+2	-3.36075E+0	0.00000E+0	0.00000E+0	1.92960E+1	1.56332E+1	1.92954E+1	1.56333E+1
41	15/03/2023	16:46:42.395	0.00000E+0	0.00000E+0	-1.15937E+2	-4.27528E-2	0.00000E+0	0.00000E+0	1.95350E+1	1.54213E+1	1.95351E+1	1.54247E+1
42	15/03/2023	16:46:43.867	0.00000E+0	0.00000E+0	1.34841E+2	2.26285E-2	0.00000E+0	0.00000E+0	2.31680E+1	1.18251E+1	2.31679E+1	1.18244E+1
43	15/03/2023	16:46:45.326	0.00000E+0	0.00000E+0	1.38228E+2	4.52324E-1	0.00000E+0	0.00000E+0	2.32852E+1	1.16979E+1	2.32855E+1	1.16982E+1
44	15/03/2023	16:46:46.861	0.00000E+0	0.00000E+0	-1.19895E+2	-6.98886E-2	0.00000E+0	0.00000E+0	1.96247E+1	1.53752E+1	1.96252E+1	1.53756E+1
45	15/03/2023	16:46:48.324	0.00000E+0	0.00000E+0	-1.49223E+2	-2.28687E+0	0.00000E+0	0.00000E+0	1.91184E+1	1.58416E+1	1.91183E+1	1.58424E+1
46	15/03/2023	16:46:49.820	0.00000E+0	0.00000E+0	9.93181E+1	1.14627E+0	0.00000E+0	0.00000E+0	2.25955E+1	1.23531E+1	2.25928E+1	1.23530E+1
47	15/03/2023	16:46:51.319	0.00000E+0	0.00000E+0	1.43782E+2	8.98713E-1	0.00000E+0	0.00000E+0	2.32936E+1	1.16475E+1	2.32968E+1	1.16444E+1
48	15/03/2023	16:46:52.808	0.00000E+0	0.00000E+0	-6.34965E+1	-1.27804E+0	0.00000E+0	0.00000E+0	2.03922E+1	1.45192E+1	2.03918E+1	1.45192E+1
49	15/03/2023	16:46:54.286	0.00000E+0	0.00000E+0	-6.88748E+1	-2.71698E-1	0.00000E+0	0.00000E+0	2.02780E+1	1.46619E+1	2.02771E+1	1.46629E+1
50	15/03/2023	16:46:55.852	0.00000E+0	0.00000E+0	8.69139E+1	6.04622E-1	0.00000E+0	0.00000E+0	2.23633E+1	1.25773E+1	2.23625E+1	1.25761E+1
51	15/03/2023	16:46:57.330	0.00000E+0	0.00000E+0	1.08518E+2	8.23477E-1	0.00000E+0	0.00000E+0	2.29445E+1	1.20478E+1	2.29455E+1	1.20469E+1
52	15/03/2023	16:46:58.823	0.00000E+0	0.00000E+0	-1.24634E+2	1.67508E-1	0.00000E+0	0.00000E+0	1.94555E+1	1.54533E+1	1.94564E+1	1.54541E+1
53	15/03/2023	16:47:00.277	0.00000E+0	0.00000E+0	-1.56080E+2	-1.71365E+0	0.00000E+0	0.00000E+0	1.90011E+1	1.59461E+1	1.89991E+1	1.59437E+1
54	15/03/2023	16:47:01.785	0.00000E+0	0.00000E+0	7.19638E+1	4.64877E-1	0.00000E+0	0.00000E+0	2.21527E+1	1.28349E+1	2.21547E+1	1.28345E+1
55	15/03/2023	16:47:03.236	0.00000E+0	0.00000E+0	1.62487E+2	1.10925E+0	0.00000E+0	0.00000E+0	2.35462E+1	1.14439E+1	2.35474E+1	1.14453E+1
56	15/03/2023	16:47:04.710	0.00000E+0	0.00000E+0	-3.09618E+1	-4.04824E-1	0.00000E+0	0.00000E+0	2.09008E+1	1.40664E+1	2.09015E+1	1.40664E+1
57	15/03/2023	16:47:06.213	0.00000E+0	0.00000E+0	-1.61397E+2	-2.80722E+0	0.00000E+0	0.00000E+0	1.90554E+1	1.58855E+1	1.90565E+1	1.58857E+1
58	15/03/2023	16:47:07.672	0.00000E+0	0.00000E+0	-7.19940E+1	-3.79628E-1	0.00000E+0	0.00000E+0	2.01130E+1	1.48486E+1	2.01137E+1	1.48484E+1
59	15/03/2023	16:47:09.163	0.00000E+0	0.00000E+0	1.52816E+2	1.54856E+0	0.00000E+0	0.00000E+0	2.33857E+1	1.15730E+1	2.33899E+1	1.15731E+1
60	15/03/2023	16:47:10.663	0.00000E+0	0.00000E+0	1.17259E+2	1.94617E+0	0.00000E+0	0.00000E+0	2.29712E+1	1.19863E+1	2.29726E+1	1.19867E+1
61	15/03/2023	16:47:12.137	0.00000E+0	0.00000E+0	-9.78049E+1	-6.79665E-1	0.00000E+0	0.00000E+0	1.98979E+1	1.50307E+1	1.98990E+1	1.50324E+1
62	15/03/2023	16:47:13.614	0.00000E+0	0.00000E+0	-1.40010E+2	1.26344E-1	0.00000E+0	0.00000E+0	1.92353E+1	1.57067E+1	1.92353E+1	1.57070E+1
63	15/03/2023	16:47:15.067	0.00000E+0	0.00000E+0	3.52445E+1	-4.56239E-1	0.00000E+0	0.00000E+0	2.15511E+1	1.33993E+1	2.15502E+1	1.33978E+1
64	15/03/2023	16:47:16.546	0.00000E+0	0.00000E+0	1.48532E+2	3.16029E+0	0.00000E+0	0.00000E+0	2.33586E+1	1.16043E+1	2.33558E+1	1.16059E+1
65	15/03/2023	16:47:18.072	0.00000E+0	0.00000E+0	7.84220E+0	9.80332E-1	0.00000E+0	0.00000E+0	2.15753E+1	1.33527E+1	2.15748E+1	1.33541E+1
66	15/03/2023	16:47:19.517	0.00000E+0	0.00000E+0	-1.42651E+2	-1.65817E+0	0.00000E+0	0.00000E+0	1.92319E+1	1.56736E+1	1.92323E+1	1.56731E+1
67	15/03/2023	16:47:20.995	0.00000E+0	0.00000E+0	-8.53268E+1	-2.52112E-1	0.00000E+0	0.00000E+0	2.00173E+1	1.49004E+1	2.00169E+1	1.49037E+1
68	15/03/2023	16:47:22.473	0.00000E+0	0.00000E+0	1.70542E+2	4.31070E-1	0.00000E+0	0.00000E+0	2.36152E+1	1.13756E+1	2.36169E+1	1.13757E+1
69	15/03/2023	16:47:23.945	0.00000E+0	0.00000E+0	9.37479E+1	-9.56800E-2	0.00000E+0	0.00000E+0	2.27738E+1	1.22513E+1	2.27730E+1	1.22498E+1
70	15/03/2023	16:47:25.438	0.00000E+0	0.00000E+0	-1.59107E+2	-4.71934E+0	0.00000E+0	0.00000E+0	1.90326E+1	1.59448E+1	1.90312E+1	1.59454E+1
71	15/03/2023	16:47:26.917	0.00000E+0	0.00000E+0	-7.34803E+1	-6.64335E-1	0.00000E+0	0.00000E+0	2.01334E+1	1.48070E+1	2.01331E+1	1.48069E+1
72	15/03/2023	16:47:28.377	0.00000E+0	0.00000E+0	1.87795E+2	1.81166E+0	0.00000E+0	0.00000E+0	2.39245E+1	1.10851E+1	2.39270E+1	1.10840E+1
73	15/03/2023	16:47:29.868	0.00000E+0	0.00000E+0	-9.57414E-1	-1.32154E+0	0.00000E+0	0.00000E+0	2.14820E+1	1.34827E+1	2.14827E+1	1.34822E+1
74	15/03/2023	16:47:31.336	0.00000E+0	0.00000E+0	-1.80503E+2	2.65430E-1	0.00000E+0	0.00000E+0	1.86942E+1	1.62467E+1	1.86967E+1	1.62432E+1
75	15/03/2023	16:47:32.830	0.00000E+0	0.00000E+0	3.94323E+1	-4.56677E-1	0.00000E+0	0.00000E+0	2.17306E+1	1.32283E+1	2.17324E+1	1.32292E+1
76	15/03/2023	16:47:34.304	0.00000E+0	0.00000E+0	1.62773E+2	-3.06931E-1	0.00000E+0	0.00000E+0	2.35701E+1	1.14349E+1	2.35690E+1	1.14336E+1
77	15/03/2023	16:47:35.782	0.00000E+0	0.00000E+0	-7.55950E+1	-8.42062E-2	0.00000E+0	0.00000E+0	2.03083E+1	1.46511E+1	2.03081E+1	1.46496E+1
78	15/03/2023	16:47:37.262	0.00000E+0	0.00000E+0	-1.61772E+2	2.27913E+0	0.00000E+0	0.00000E+0	1.89296E+1	1.60340E+1	1.89269E+1	1.60332E+1
79	15/03/2023	16:47:38.739	0.00000E+0	0.00000E+0	7.57461E+1	2.56418E-1	0.00000E+0	0.00000E+0	2.21689E+1	1.27752E+1	2.21682E+1	1.27754E+1
80	15/03/2023	16:47:40.218	0.00000E+0	0.00000E+0	1.83849E+2	2.71666E+0	0.00000E+0	0.00000E+0	2.38946E+1	1.11149E+1	2.38940E+1	1.11140E+1
81	15/03/2023	16:47:41.761	0.00000E+0	0.00000E+0	-1.21925E+2	-2.90995E+0	0.00000E+0	0.00000E+0	1.95807E+1	1.53227E+1	1.95825E+1	1.53238E+1
82	15/03/2023	16:47:43.246	0.00000E+0	0.00000E+0	-1.62800E+2	7.87048E-1	0.00000E+0	0.00000E+0	1.88943E+1	1.60670E+1	1.88949E+1	1.60660E+1
83	15/03/2023	16:47:44.737	0.00000E+0	0.00000E+0	1.26160E+2	1.43098E+0	0.00000E+0	0.00000E+0	2.29036E+1	1.20705E+1	2.29061E+1	1.20702E+1
84	15/03/2023	16:47:46.214	0.00000E+0	0.00000E+0	1.73225E+2	-5.97075E-1	0.00000E+0	0.00000E+0	2.37559E+1	1.12703E+1	2.37570E+1	1.12676E+1
85	15/03/2023	16:47:47.707	0.00000E+0	0.00000E+0	-6.57541E+1	-8.55612E-2	0.00000E+0	0.00000E+0	2.04624E+1	1.44928E+1	2.04631E+1	1.44920E+1
86	15/03/2023	16:47:49.169	0.00000E+0	0.00000E+0	-1.70419E+2	2.20090E+0	0.00000E+0	0.00000E+0	1.87756E+1	1.61082E+1	1.87755E+1	1.61069E+1
87	15/03/2023	16:47:50.656	0.00000E+0	0.00000E+0	1.28897E+1	4.33018E-1	0.00000E+0	0.00000E+0	2.13073E+1	1.36481E+1	2.13056E+1	1.36488E+1
88	15/03/2023	16:47:52.128	0.00000E+0	0.00000E+0	1.07560E+2	-2.06273E-1	0.00000E+0	0.00000E+0	2.27500E+1	1.22075E+1	2.27503E+1	1.22062E+1
89	15/03/2023	16:47:53.682	0.00000E+0	0.00000E+0	1.24608E+1	1.08511E-1	0.00000E+0	0.00000E+0	2.15225E+1	1.33785E+1	2.15225E+1	1.33783E+1
90	15/03/2023	16:47:55.170	0.00000E+0	0.00000E+0	-7.39539E+1	-1.65666E+0	0.00000E+0	0.00000E+0	2.01956E+1	1.47158E+1	2.01970E+1	1.47152E+1
91	15/03/2023	16:47:56.668	0.00000E+0	0.00000E+0	4.60619E+1	1.06762E+0	0.00000E+0	0.00000E+0	2.18723E+1	1.31352E+1	2.18734E+1	1.31358E+1
92	15/03/2023	16:47:58.128	0.00000E+0	0.00000E+0	8.26691E+1	-8.96216E-2	0.00000E+0	0.00000E+0	2.24039E+1	1.25250E+1	2.24044E+1	1.25264E+1
93	15/03/2023	16:47:59.638	0.00000E+0	0.00000E+0	-1.19939E+2	-2.19542E+0	0.00000E+0	0.00000E+0	1.96740E+1	1.53511E+1	1.96709E+1	1.53520E+1
94	15/03/2023	16:48:01.128	0.00000E+0	0.00000E+0	-1.14316E+2	-3.32060E+0	0.00000E+0	0.00000E+0	1.94772E+1	1.53844E+1	1.94761E+1	1.53851E+1
95	15/03/2023	16:48:02.597	0.00000E+0	0.00000E+0	1.63307E+2	2.19394E-1	0.00000E+0	0.00000E+0	2.35956E+1	1.14184E+1	2.35938E+1	1.14202E+1
96	15/03/2023	16:48:04.077	0.00000E+0	0.00000E+0	4.12740E+1	-5.60577E-1	0.00000E+0	0.00000E+0	2.20150E+1	1.29771E+1	2.20143E+1	1.29773E+1
97	15/03/2023	16:48:05.559	0.00000E+0	0.00000E+0	-1.53393E+2	-5.81815E-1	0.00000E+0	0.00000E+0	1.90760E+1	1.58131E+1	1.90762E+1	1.58122E+1
98	15/03/2023	16:48:07.035	0.00000E+0	0.00000E+0	-9.87872E+1	-9.58392E-1	0.00000E+0	0.00000E+0	1.96673E+1	1.52703E+1	1.96673E+1	1.52698E+1
99	15/03/2023	16:48:08.534	0.00000E+0	0.00000E+0	1.45208E+2	9.89723E-1	0.00000E+0	0.00000E+0	2.33244E+1	1.16848E+1	2.33251E+1	1.16837E+1
100	15/03/2023	16:48:10.025	0.00000E+0	0.00000E+0	1.26261E+2	-1.38849E+0	0.00000E+0	0.00000E+0	2.31091E+1	1.18789E+1	2.31088E+1	1.18779E+1
101	15/03/2023	16:48:11.496	0.00000E+0	0.00000E+0	-1.24487E+2	3.14314E-1	0.00000E+0	0.00000E+0	1.94654E+1	1.54203E+1	1.94665E+1	1.54208E+1
102	15/03/2023	16:48:12.977	0.00000E+0	0.00000E+0	-1.29520E+2	-7.15885E-1	0.00000E+0	0.00000E+0	1.93725E+1	1.55426E+1	1.93707E+1	1.55418E+1
103	15/03/2023	16:48:14.480	0.00000E+0	0.00000E+0	8.90697E+1	8.17179E-1	0.00000E+0	0.00000E+0	2.24377E+1	1.24958E+1	2.24377E+1	1.24958E+1
104	15/03/2023	16:48:15.970	0.00000E+0	0.00000E+0	1.30396E+2	2.78073E+0	0.00000E+0	0.00000E+0	2.30539E+1	1.18908E+1	2.30541E+1	1.18922E+1
105	15/03/2023	16:48:17.430	0.00000E+0	0.00000E+0	5.16720E+1	5.99606E-1	0.00000E+0	0.00000E+0	2.20896E+1	1.28606E+1	2.20920E+1	1.28598E+1
106	15/03/2023	16:48:18.913	0.00000E+0	0.00000E+0	-1.04837E+2	3.62101E-1	0.00000E+0	0.00000E+0	1.97942E+1	1.51406E+1	1.97921E+1	1.51414E+1
107	15/03/2023	16:48:20.434	0.00000E+0	0.00000E+0	-1.25761E+2	-1.64994E+0	0.00000E+0	0.00000E+0	1.94554E+1	1.54650E+1	1.94566E+1	1.54640E+1
108	15/03/2023	16:48:21.906	0.00000E+0	0.00000E+0	7.06046E+1	1.42765E+0	0.00000E+0	0.00000E+0	2.22079E+1	1.27934E+1	2.22082E+1	1.27929E+1
109	15/03/2023	16:48:23.420	0.00000E+0	0.00000E+0	1.45729E+2	2.20350E+0	0.00000E+0	0.00000E+0	2.32852E+1	1.16732E+1	2.32846E+1	1.16762E+1
110	15/03/2023	16:48:24.934	0.00000E+0	0.00000E+0	-1.81388E+1	4.53163E-1	0.00000E+0	0.00000E+0	2.10714E+1	1.38327E+1	2.10727E+1	1.38327E+1
111	15/03/2023	16:48:26.415	0.00000E+0	0.00000E+0	-1.45653E+2	-5.42228E-1	0.00000E+0	0.00000E+0	1.92122E+1	1.57287E+1	1.92135E+1	1.57284E+1
112	15/03/2023	16:48:27.892	0.00000E+0	0.00000E+0	-8.46225E+1	-7.80242E-1	0.00000E+0	0.00000E+0	1.99130E+1	1.50337E+1	1.99139E+1	1.50347E+1
113	15/03/2023	16:48:29.379	0.00000E+0	0.00000E+0	1.53603E+2	6.30917E-1	0.00000E+0	0.00000E+0	2.34103E+1	1.15650E+1	2.34091E+1	1.15634E+1
114	15/03/2023	16:48:30.864	0.00000E+0	0.00000E+0	1.20779E+2	1.23083E+0	0.00000E+0	0.00000E+0	2.30446E+1	1.19374E+1	2.30446E+1	1.19371E+1
115	15/03/2023	16:48:32.344	0.00000E+0	0.00000E+0	-1.17184E+2	-8.10058E-1	0.00000E+0	0.00000E+0	1.96474E+1	1.53870E+1	1.96478E+1	1.53862E+1
116	15/03/2023	16:48:33.840	0.00000E+0	0.00000E+0	-1.46142E+2	-1.35446E+0	0.00000E+0	0.00000E+0	1.91930E+1	1.57599E+1	1.91912E+1	1.57585E+1
117	15/03/2023	16:48:35.363	0.00000E+0	0.00000E+0	8.81194E+1	1.16375E+0	0.00000E+0	0.00000E+0	2.24367E+1	1.25679E+1	2.24375E+1	1.25697E+1
118	15/03/2023	16:48:36.825	0.00000E+0	0.00000E+0	1.59489E+2	-1.97818E-1	0.00000E+0	0.00000E+0	2.35191E+1	1.14791E+1	2.35195E+1	1.14814E+1
119	15/03/2023	16:48:38.313	0.00000E+0	0.00000E+0	-4.52996E+1	1.36709E-1	0.00000E+0	0.00000E+0	2.06904E+1	1.42533E+1	2.06911E+1	1.42552E+1
120	15/03/2023	16:48:39.813	0.00000E+0	0.00000E+0	-1.57675E+2	7.62668E-1	0.00000E+0	0.00000E+0	1.90143E+1	1.59155E+1	1.90121E+1	1.59140E+1
121	15/03/2023	16:48:41.292	0.00000E+0	0.00000E+0	-1.46989E+1	-8.85890E-1	0.00000E+0	0.00000E+0	2.08619E+1	1.41335E+1	2.08600E+1	1.41340E+1
122	15/03/2023	16:48:42.755	0.00000E+0	0.00000E+0	1.57592E+2	1.61248E+0	0.00000E+0	0.00000E+0	2.34752E+1	1.14876E+1	2.34764E+1	1.14863E+1
123	15/03/2023	16:48:44.228	0.00000E+0	0.00000E+0	6.68133E+1	4.65970E-1	0.00000E+0	0.00000E+0	2.24336E+1	1.25308E+1	2.24331E+1	1.25308E+1
124	15/03/2023	16:48:45.708	0.00000E+0	0.00000E+0	-1.52361E+2	-2.32587E+0	0.00000E+0	0.00000E+0	1.91032E+1	1.58426E+1	1.91031E+1	1.58468E+1
125	15/03/2023	16:48:47.190	0.00000E+0	0.00000E+0	-1.01970E+2	-5.74976E-1	0.00000E+0	0.00000E+0	1.97672E+1	1.51546E+1	1.97679E+1	1.51550E+1
126	15/03/2023	16:48:48.653	0.00000E+0	0.00000E+0	1.37861E+2	1.74766E+0	0.00000E+0	0.00000E+0	2.31877E+1	1.17570E+1	2.31883E+1	1.17558E+1
127	15/03/2023	16:48:50.150	0.00000E+0	0.00000E+0	1.52229E+2	1.22122E+0	0.00000E+0	0.00000E+0	2.34309E+1	1.14940E+1	2.34321E+1	1.14921E+1
128	15/03/2023	16:48:51.652	0.00000E+0	0.00000E+0	-1.22258E+2	-3.25468E+0	0.00000E+0	0.00000E+0	1.95638E+1	1.53686E+1	1.95648E+1	1.53673E+1
129	15/03/2023	16:48:53.112	0.00000E+0	0.00000E+0	-1.50332E+2	-1.17042E+0	0.00000E+0	0.00000E+0	1.90803E+1	1.58678E+1	1.90785E+1	1.58686E+1
130	15/03/2023	16:48:54.587	0.00000E+0	0.00000E+0	1.07019E+2	1.29725E+0	0.00000E+0	0.00000E+0	2.26335E+1	1.23426E+1	2.26331E+1	1.23422E+1
131	15/03/2023	16:48:56.036	0.00000E+0	0.00000E+0	1.68991E+2	8.21879E-1	0.00000E+0	0.00000E+0	2.36825E+1	1.12959E+1	2.36822E+1	1.12959E+1
132	15/03/2023	16:48:57.506	0.00000E+0	0.00000E+0	-9.40139E+1	-1.18970E+0	0.00000E+0	0.00000E+0	2.00336E+1	1.48674E+1	2.00371E+1	1.48676E+1
133	15/03/2023	16:48:58.996	0.00000E+0	0.00000E+0	-1.81744E+2	-6.18765E-1	0.00000E+0	0.00000E+0	1.86234E+1	1.62876E+1	1.86238E+1	1.62868E+1
134	15/03/2023	16:49:00.510	0.00000E+0	0.00000E+0	7.66468E+1	9.10172E-1	0.00000E+0	0.00000E+0	2.22296E+1	1.27845E+1	2.22267E+1	1.27841E+1
135	15/03/2023	16:49:02.012	0.00000E+0	0.00000E+0	1.76391E+2	1.03875E+0	0.00000E+0	0.00000E+0	2.37606E+1	1.12194E+1	2.37602E+1	1.12179E+1
136	15/03/2023	16:49:03.517	0.00000E+0	0.00000E+0	-6.32302E+1	-1.64618E+0	0.00000E+0	0.00000E+0	2.04523E+1	1.45036E+1	2.04503E+1	1.45040E+1
137	15/03/2023	16:49:05.000	0.00000E+0	0.00000E+0	-1.63092E+2	-5.33974E-1	0.00000E+0	0.00000E+0	1.88689E+1	1.59592E+1	1.88685E+1	1.59600E+1
138	15/03/2023	16:49:06.510	0.00000E+0	0.00000E+0	1.01196E+0	-4.10378E-1	0.00000E+0	0.00000E+0	2.11064E+1	1.38689E+1	2.11096E+1	1.38694E+1
139	15/03/2023	16:49:07.976	0.00000E+0	0.00000E+0	1.79265E+2	8.58812E-1	0.00000E+0	0.00000E+0	2.37999E+1	1.11552E+1	2.37993E+1	1.11562E+1
140	15/03/2023	16:49:09.450	0.00000E+0	0.00000E+0	5.02787E+1	-6.99752E-1	0.00000E+0	0.00000E+0	2.21253E+1	1.28420E+1	2.21254E+1	1.28424E+1
141	15/03/2023	16:49:10.947	0.00000E+0	0.00000E+0	-1.50562E+2	-4.50533E+0	0.00000E+0	0.00000E+0	1.91517E+1	1.58251E+1	1.91512E+1	1.58239E+1
142	15/03/2023	16:49:12.432	0.00000E+0	0.00000E+0	-1.12198E+2	-1.18161E-1	0.00000E+0	0.00000E+0	1.95851E+1	1.53247E+1	1.95846E+1	1.53242E+1
143	15/03/2023	16:49:13.927	0.00000E+0	0.00000E+0	1.53949E+2	1.04860E+0	0.00000E+0	0.00000E+0	2.34236E+1	1.15426E+1	2.34235E+1	1.15408E+1
144	15/03/2023	16:49:15.403	0.00000E+0	0.00000E+0	1.29152E+2	9.39801E-1	0.00000E+0	0.00000E+0	2.31543E+1	1.18376E+1	2.31544E+1	1.18393E+1
145	15/03/2023	16:49:16.893	0.00000E+0	0.00000E+0	-1.04154E+2	-1.32284E+0	0.00000E+0	0.00000E+0	1.98470E+1	1.50747E+1	1.98456E+1	1.50767E+1
146	15/03/2023	16:49:18.390	0.00000E+0	0.00000E+0	-1.47787E+2	-1.29878E+0	0.00000E+0	0.00000E+0	1.90886E+1	1.57858E+1	1.90883E+1	1.57863E+1
147	15/03/2023	16:49:19.848	0.00000E+0	0.00000E+0	3.35535E+1	-8.67471E-1	0.00000E+0	0.00000E+0	2.16692E+1	1.32902E+1	2.16686E+1	1.32883E+1
148	15/03/2023	16:49:21.345	0.00000E+0	0.00000E+0	1.54965E+2	-4.77885E-1	0.00000E+0	0.00000E+0	2.34491E+1	1.15375E+1	2.34474E+1	1.15388E+1
149	15/03/2023	16:49:22.830	0.00000E+0	0.00000E+0	1.06610E+2	-2.45874E-2	0.00000E+0	0.00000E+0	2.28655E+1	1.20822E+1	2.28656E+1	1.20811E+1
150	15/03/2023	16:49:24.297	0.00000E+0	0.00000E+0	-1.34825E+2	3.45385E+0	0.00000E+0	0.00000E+0	1.93324E+1	1.56050E+1	1.93329E+1	1.56066E+1
151	15/03/2023	16:49:25.772	0.00000E+0	0.00000E+0	-1.54558E+2	-9.88252E-1	0.00000E+0	0.00000E+0	1.90325E+1	1.59017E+1	1.90326E+1	1.59004E+1
152	15/03/2023	16:49:27.239	0.00000E+0	0.00000E+0	7.13633E+1	1.58231E+0	0.00000E+0	0.00000E+0	2.21621E+1	1.27603E+1	2.21622E+1	1.27608E+1
153	15/03/2023	16:49:28.690	0.00000E+0	0.00000E+0	1.51460E+2	1.46325E+0	0.00000E+0	0.00000E+0	2.34056E+1	1.15735E+1	2.34069E+1	1.15738E+1
154	15/03/2023	16:49:30.180	0.00000E+0	0.00000E+0	6.53400E+1	1.05851E+0	0.00000E+0	0.00000E+0	2.23100E+1	1.26836E+1	2.23086E+1	1.26848E+1
155	15/03/2023	16:49:31.673	0.00000E+0	0.00000E+0	-1.64070E+2	2.04928E+0	0.00000E+0	0.00000E+0	1.88840E+1	1.60238E+1	1.88841E+1	1.60228E+1
156	15/03/2023	16:49:33.159	0.00000E+0	0.00000E+0	7.74305E+0	-5.12442E-1	0.00000E+0	0.00000E+0	2.12653E+1	1.36903E+1	2.12647E+1	1.36934E+1
157	15/03/2023	16:49:34.616	0.00000E+0	0.00000E+0	1.18251E+2	1.04245E+0	0.00000E+0	0.00000E+0	2.28987E+1	1.20309E+1	2.28994E+1	1.20282E+1
158	15/03/2023	16:49:36.126	0.00000E+0	0.00000E+0	-6.86779E+0	-7.62899E-1	0.00000E+0	0.00000E+0	2.12974E+1	1.36434E+1	2.12978E+1	1.36428E+1
159	15/03/2023	16:49:37.638	0.00000E+0	0.00000E+0	-5.18055E+1	2.10276E-1	0.00000E+0	0.00000E+0	2.05172E+1	1.43999E+1	2.05153E+1	1.43995E+1
160	15/03/2023	16:49:39.148	0.00000E+0	0.00000E+0	-6.25691E+1	1.25003E+0	0.00000E+0	0.00000E+0	2.03890E+1	1.45953E+1	2.03887E+1	1.45955E+1
161	15/03/2023	16:49:40.617	0.00000E+0	0.00000E+0	8.71296E+1	1.67071E+0	0.00000E+0	0.00000E+0	2.24568E+1	1.24362E+1	2.24566E+1	1.24353E+1
162	15/03/2023	16:49:42.094	0.00000E+0	0.00000E+0	9.39832E+1	1.57556E+0	0.00000E+0	0.00000E+0	2.26299E+1	1.23539E+1	2.26322E+1	1.23536E+1
163	15/03/2023	16:49:43.573	0.00000E+0	0.00000E+0	-1.14438E+2	5.43129E-1	0.00000E+0	0.00000E+0	1.96255E+1	1.52544E+1	1.96245E+1	1.52571E+1
164	15/03/2023	16:49:45.071	0.00000E+0	0.00000E+0	-1.56134E+2	6.35781E-1	0.00000E+0	0.00000E+0	1.90481E+1	1.58977E+1	1.90482E+1	1.58949E+1
165	15/03/2023	16:49:46.573	0.00000E+0	0.00000E+0	5.62732E+0	7.13925E-1	0.00000E+0	0.00000E+0	2.11442E+1	1.38569E+1	2.11449E+1	1.38548E+1
166	15/03/2023	16:49:48.042	0.00000E+0	0.00000E+0	1.27526E+2	9.34467E-1	0.00000E+0	0.00000E+0	2.30996E+1	1.19070E+1	2.31002E+1	1.19069E+1
167	15/03/2023	16:49:49.526	0.00000E+0	0.00000E+0	1.24919E+2	7.50366E-1	0.00000E+0	0.00000E+0	2.30293E+1	1.19300E+1	2.30319E+1	1.19307E+1
168	15/03/2023	16:49:51.010	0.00000E+0	0.00000E+0	-1.09812E+2	-2.90212E-1	0.00000E+0	0.00000E+0	1.97218E+1	1.51991E+1	1.97215E+1	1.51965E+1
169	15/03/2023	16:49:52.526	0.00000E+0	0.00000E+0	-1.27100E+2	-7.63646E-1	0.00000E+0	0.00000E+0	1.94255E+1	1.54886E+1	1.94258E+1	1.54877E+1
170	15/03/2023	16:49:54.014	0.00000E+0	0.00000E+0	-5.03981E+1	1.53493E-1	0.00000E+0	0.00000E+0	2.04195E+1	1.45261E+1	2.04201E+1	1.45258E+1
171	15/03/2023	16:49:55.463	0.00000E+0	0.00000E+0	1.08342E+2	4.70925E-1	0.00000E+0	0.00000E+0	2.27953E+1	1.21664E+1	2.27960E+1	1.21652E+1
172	15/03/2023	16:49:56.963	0.00000E+0	0.00000E+0	1.33401E+2	1.07638E+0	0.00000E+0	0.00000E+0	2.31500E+1	1.18326E+1	2.31508E+1	1.18310E+1
173	15/03/2023	16:49:58.449	0.00000E+0	0.00000E+0	-5.36221E+1	-3.42716E-1	0.00000E+0	0.00000E+0	2.05280E+1	1.43654E+1	2.05285E+1	1.43623E+1
174	15/03/2023	16:49:59.908	0.00000E+0	0.00000E+0	-1.06347E+2	-1.12520E-1	0.00000E+0	0.00000E+0	1.97671E+1	1.51736E+1	1.97664E+1	1.51721E+1
175	15/03/2023	16:50:01.390	0.00000E+0	0.00000E+0	-1.10528E+2	-1.30052E+0	0.00000E+0	0.00000E+0	1.96862E+1	1.52383E+1	1.96853E+1	1.52399E+1
176	15/03/2023	16:50:02.864	0.00000E+0	0.00000E+0	8.23372E+1	1.49436E+0	0.00000E+0	0.00000E+0	2.23650E+1	1.26172E+1	2.23647E+1	1.26177E+1
177	15/03/2023	16:50:04.373	0.00000E+0	0.00000E+0	1.39810E+2	7.24492E-1	0.00000E+0	0.00000E+0	2.32230E+1	1.17383E+1	2.32257E+1	1.17384E+1
178	15/03/2023	16:50:05.819	0.00000E+0	0.00000E+0	6.06351E+1	6.30764E-1	0.00000E+0	0.00000E+0	2.22926E+1	1.26913E+1	2.22925E+1	1.26912E+1
179	15/03/2023	16:50:07.300	0.00000E+0	0.00000E+0	-1.50930E+2	-8.95262E-1	0.00000E+0	0.00000E+0	1.91366E+1	1.58262E+1	1.91363E+1	1.58254E+1
180	15/03/2023	16:50:08.804	0.00000E+0	0.00000E+0	-1.33663E+2	-1.56006E+0	0.00000E+0	0.00000E+0	1.93546E+1	1.55818E+1	1.93549E+1	1.55817E+1
181	15/03/2023	16:50:10.281	0.00000E+0	0.00000E+0	1.22627E+2	3.87587E-1	0.00000E+0	0.00000E+0	2.29086E+1	1.20520E+1	2.29085E+1	1.20507E+1
182	15/03/2023	16:50:11.748	0.00000E+0	0.00000E+0	1.40327E+2	2.77316E+0	0.00000E+0	0.00000E+0	2.32701E+1	1.17206E+1	2.32678E+1	1.17216E+1
183	15/03/2023	16:50:13.240	0.00000E+0	0.00000E+0	3.06337E+0	-6.24395E-1	0.00000E+0	0.00000E+0	2.14487E+1	1.35377E+1	2.14494E+1	1.35378E+1
184	15/03/2023	16:50:14.724	0.00000E+0	0.00000E+0	-1.35039E+2	1.06014E+0	0.00000E+0	0.00000E+0	1.92844E+1	1.55738E+1	1.92836E+1	1.55730E+1
185	15/03/2023	16:50:16.233	0.00000E+0	0.00000E+0	-1.30692E+2	-2.42377E-1	0.00000E+0	0.00000E+0	1.93985E+1	1.55198E+1	1.93984E+1	1.55200E+1
186	15/03/2023	16:50:17.697	0.00000E+0	0.00000E+0	9.14298E+1	-2.98057E-1	0.00000E+0	0.00000E+0	2.24951E+1	1.24648E+1	2.24946E+1	1.24630E+1
187	15/03/2023	16:50:19.164	0.00000E+0	0.00000E+0	1.44751E+2	1.97230E+0	0.00000E+0	0.00000E+0	2.32704E+1	1.16797E+1	2.32725E+1	1.16792E+1
188	15/03/2023	16:50:20.655	0.00000E+0	0.00000E+0	2.40094E+1	-2.33342E+0	0.00000E+0	0.00000E+0	2.16935E+1	1.32960E+1	2.16936E+1	1.32972E+1
189	15/03/2023	16:50:22.160	0.00000E+0	0.00000E+0	-1.28127E+2	6.07830E-1	0.00000E+0	0.00000E+0	1.94306E+1	1.55167E+1	1.94324E+1	1.55173E+1
190	15/03/2023	16:50:23.613	0.00000E+0	0.00000E+0	-1.24373E+2	-2.46191E+0	0.00000E+0	0.00000E+0	1.94612E+1	1.54667E+1	1.94611E+1	1.54652E+1
191	15/03/2023	16:50:25.114	0.00000E+0	0.00000E+0	1.27533E+2	1.27189E+0	0.00000E+0	0.00000E+0	2.29944E+1	1.20276E+1	2.29919E+1	1.20255E+1
192	15/03/2023	16:50:26.587	0.00000E+0	0.00000E+0	1.44736E+2	9.19602E-2	0.00000E+0	0.00000E+0	2.33387E+1	1.16615E+1	2.33407E+1	1.16634E+1
193	15/03/2023	16:50:28.124	0.00000E+0	0.00000E+0	-5.94224E+1	8.70097E-1	0.00000E+0	0.00000E+0	2.05442E+1	1.44400E+1	2.05453E+1	1.44387E+1
194	15/03/2023	16:50:29.598	0.00000E+0	0.00000E+0	-1.54539E+2	-1.60704E+0	0.00000E+0	0.00000E+0	1.91494E+1	1.57554E+1	1.91478E+1	1.57534E+1
195	15/03/2023	16:50:31.102	0.00000E+0	0.00000E+0	-7.29802E+1	-2.27534E-1	0.00000E+0	0.00000E+0	2.00611E+1	1.49217E+1	2.00611E+1	1.49205E+1
196	15/03/2023	16:50:32.551	0.00000E+0	0.00000E+0	1.38066E+2	1.16255E+0	0.00000E+0	0.00000E+0	2.32125E+1	1.17556E+1	2.32134E+1	1.17570E+1
197	15/03/2023	16:50:34.027	0.00000E+0	0.00000E+0	1.55067E+2	9.34545E-1	0.00000E+0	0.00000E+0	2.34942E+1	1.14811E+1	2.34944E+1	1.14789E+1
198	15/03/2023	16:50:35.505	0.00000E+0	0.00000E+0	-8.08897E+1	-5.75363E-1	0.00000E+0	0.00000E+0	2.01724E+1	1.47599E+1	2.01738E+1	1.47590E+1
199	15/03/2023	16:50:36.997	0.00000E+0	0.00000E+0	-1.59995E+2	-2.53546E+0	0.00000E+0	0.00000E+0	1.89917E+1	1.58922E+1	1.89899E+1	1.58940E+1
200	15/03/2023	16:50:38.482	0.00000E+0	0.00000E+0	-5.94899E+1	8.50208E-1	0.00000E+0	0.00000E+0	2.02467E+1	1.46659E+1	2.02472E+1	1.46651E+1
201	15/03/2023	16:50:39.985	0.00000E+0	0.00000E+0	1.68563E+2	1.52847E+0	0.00000E+0	0.00000E+0	2.36387E+1	1.13128E+1	2.36397E+1	1.13128E+1
202	15/03/2023	16:50:41.466	0.00000E+0	0.00000E+0	6.10387E+1	7.61121E-1	0.00000E+0	0.00000E+0	2.22835E+1	1.26687E+1	2.22853E+1	1.26704E+1
203	15/03/2023	16:50:42.963	0.00000E+0	0.00000E+0	-1.36780E+2	-1.93039E-1	0.00000E+0	0.00000E+0	1.93586E+1	1.55769E+1	1.93563E+1	1.55788E+1
204	15/03/2023	16:50:44.502	0.00000E+0	0.00000E+0	-1.37003E+2	-1.02664E+0	0.00000E+0	0.00000E+0	1.92889E+1	1.56441E+1	1.92901E+1	1.56441E+1
205	15/03/2023	16:50:45.957	0.00000E+0	0.00000E+0	9.36115E+1	1.30984E+0	0.00000E+0	0.00000E+0	2.25074E+1	1.24374E+1	2.25086E+1	1.24375E+1
206	15/03/2023	16:50:47.421	0.00000E+0	0.00000E+0	1.88383E+2	2.82673E+0	0.00000E+0	0.00000E+0	2.39469E+1	1.10434E+1	2.39449E+1	1.10428E+1
207	15/03/2023	16:50:48.900	0.00000E+0	0.00000E+0	-5.74907E+1	9.43586E-1	0.00000E+0	0.00000E+0	2.05731E+1	1.43627E+1	2.05730E+1	1.43610E+1
208	15/03/2023	16:50:50.327	0.00000E+0	0.00000E+0	-1.75061E+2	-8.87358E-1	0.00000E+0	0.00000E+0	1.87830E+1	1.61113E+1	1.87825E+1	1.61118E+1
209	15/03/2023	16:50:51.827	0.00000E+0	0.00000E+0	-4.71635E+1	-8.24631E-1	0.00000E+0	0.00000E+0	2.04498E+1	1.45096E+1	2.04499E+1	1.45098E+1
210	15/03/2023	16:50:53.275	0.00000E+0	0.00000E+0	1.40571E+2	1.55229E+0	0.00000E+0	0.00000E+0	2.32086E+1	1.17422E+1	2.32090E+1	1.17437E+1
211	15/03/2023	16:50:54.767	0.00000E+0	0.00000E+0	1.45573E+2	-6.05214E-1	0.00000E+0	0.00000E+0	2.33807E+1	1.15955E+1	2.33814E+1	1.15960E+1
212	15/03/2023	16:50:56.234	0.00000E+0	0.00000E+0	-9.62128E+1	-9.99086E-1	0.00000E+0	0.00000E+0	1.99180E+1	1.50271E+1	1.99179E+1	1.50268E+1
213	15/03/2023	16:50:57.777	0.00000E+0	0.00000E+0	-1.28306E+2	-1.89919E+0	0.00000E+0	0.00000E+0	1.94115E+1	1.54686E+1	1.94120E+1	1.54685E+1
214	15/03/2023	16:50:59.558	0.00000E+0	0.00000E+0	-3.59436E+0	8.86413E-2	0.00000E+0	0.00000E+0	2.10131E+1	1.39150E+1	2.10121E+1	1.39158E+1
215	15/03/2023	16:51:01.041	0.00000E+0	0.00000E+0	1.40457E+2	-1.02683E+0	0.00000E+0	0.00000E+0	2.32725E+1	1.17034E+1	2.32731E+1	1.17019E+1
216	15/03/2023	16:51:02.528	0.00000E+0	0.00000E+0	1.20520E+2	1.70236E+0	0.00000E+0	0.00000E+0	2.29716E+1	1.19639E+1	2.29721E+1	1.19638E+1
217	15/03/2023	16:51:03.983	0.00000E+0	0.00000E+0	-1.08838E+2	-6.64321E-2	0.00000E+0	0.00000E+0	1.97746E+1	1.51932E+1	1.97751E+1	1.51938E+1
218	15/03/2023	16:51:05.461	0.00000E+0	0.00000E+0	-1.52365E+2	-7.80949E-1	0.00000E+0	0.00000E+0	1.90741E+1	1.58334E+1	1.90745E+1	1.58334E+1
219	15/03/2023	16:51:06.947	0.00000E+0	0.00000E+0	-4.08913E+1	-7.36501E-1	0.00000E+0	0.00000E+0	2.05195E+1	1.44321E+1	2.05190E+1	1.44324E+1
220	15/03/2023	16:51:08.420	0.00000E+0	0.00000E+0	1.42267E+2	-1.21461E+0	0.00000E+0	0.00000E+0	2.32215E+1	1.17321E+1	2.32229E+1	1.17313E+1
221	15/03/2023	16:51:09.884	0.00000E+0	0.00000E+0	1.60607E+2	1.65507E+0	0.00000E+0	0.00000E+0	2.35441E+1	1.13984E+1	2.35462E+1	1.13990E+1
222	15/03/2023	16:51:11.366	0.00000E+0	0.00000E+0	-5.70750E+1	7.62739E-1	0.00000E+0	0.00000E+0	2.05199E+1	1.43855E+1	2.05178E+1	1.43853E+1
223	15/03/2023	16:51:12.887	0.00000E+0	0.00000E+0	-1.53040E+2	-3.09628E+0	0.00000E+0	0.00000E+0	1.91191E+1	1.58315E+1	1.91203E+1	1.58294E+1
224	15/03/2023	16:51:14.380	0.00000E+0	0.00000E+0	-9.02195E+1	8.73578E-1	0.00000E+0	0.00000E+0	1.98226E+1	1.51084E+1	1.98220E+1	1.51075E+1
225	15/03/2023	16:51:15.842	0.00000E+0	0.00000E+0	1.37156E+2	3.04159E-1	0.00000E+0	0.00000E+0	2.31649E+1	1.17891E+1	2.31647E+1	1.17871E+1
226	15/03/2023	16:51:17.312	0.00000E+0	0.00000E+0	1.61419E+2	6.38854E-1	0.00000E+0	0.00000E+0	2.35783E+1	1.14221E+1	2.35786E+1	1.14219E+1
227	15/03/2023	16:51:18.781	0.00000E+0	0.00000E+0	-8.51440E+1	-1.40459E+0	0.00000E+0	0.00000E+0	2.01615E+1	1.48035E+1	2.01606E+1	1.48036E+1
228	15/03/2023	16:51:20.261	0.00000E+0	0.00000E+0	-1.53694E+2	-4.33421E+0	0.00000E+0	0.00000E+0	1.90786E+1	1.58444E+1	1.90777E+1	1.58438E+1
229	15/03/2023	16:51:21.738	0.00000E+0	0.00000E+0	-7.45407E+1	-5.88447E-1	0.00000E+0	0.00000E+0	2.01219E+1	1.48361E+1	2.01197E+1	1.48376E+1
230	15/03/2023	16:51:23.236	0.00000E+0	0.00000E+0	1.26918E+2	1.38727E+0	0.00000E+0	0.00000E+0	2.30410E+1	1.19138E+1	2.30412E+1	1.19131E+1
231	15/03/2023	16:51:24.696	0.00000E+0	0.00000E+0	1.64680E+2	-5.57568E-1	0.00000E+0	0.00000E+0	2.36130E+1	1.13522E+1	2.36102E+1	1.13556E+1
232	15/03/2023	16:51:26.173	0.00000E+0	0.00000E+0	-1.03255E+2	-1.49077E-1	0.00000E+0	0.00000E+0	1.98722E+1	1.50723E+1	1.98741E+1	1.50751E+1
233	15/03/2023	16:51:27.636	0.00000E+0	0.00000E+0	-1.42753E+2	5.86168E-1	0.00000E+0	0.00000E+0	1.91605E+1	1.57348E+1	1.91619E+1	1.57351E+1
234	15/03/2023	16:51:29.117	0.00000E+0	0.00000E+0	-3.35027E+1	-4.73083E-2	0.00000E+0	0.00000E+0	2.06279E+1	1.43422E+1	2.06275E+1	1.43397E+1
235	15/03/2023	16:51:30.583	0.00000E+0	0.00000E+0	1.43388E+2	-1.86648E-1	0.00000E+0	0.00000E+0	2.32501E+1	1.17320E+1	2.32504E+1	1.17306E+1
236	15/03/2023	16:51:32.082	0.00000E+0	0.00000E+0	8.48624E+1	1.47447E+0	0.00000E+0	0.00000E+0	2.25992E+1	1.23556E+1	2.25985E+1	1.23558E+1
237	15/03/2023	16:51:33.518	0.00000E+0	0.00000E+0	-1.41644E+2	4.14604E+0	0.00000E+0	0.00000E+0	1.92268E+1	1.56826E+1	1.92245E+1	1.56854E+1
238	15/03/2023	16:51:35.012	0.00000E+0	0.00000E+0	-1.21518E+2	2.02138E+0	0.00000E+0	0.00000E+0	1.95055E+1	1.54397E+1	1.95081E+1	1.54375E+1
239	15/03/2023	16:51:36.442	0.00000E+0	0.00000E+0	8.85298E+1	1.22158E+0	0.00000E+0	0.00000E+0	2.24830E+1	1.25370E+1	2.24835E+1	1.25389E+1
240	15/03/2023	16:51:37.945	0.00000E+0	0.00000E+0	1.29514E+2	-7.80052E-2	0.00000E+0	0.00000E+0	2.30548E+1	1.19055E+1	2.30516E+1	1.19046E+1
241	15/03/2023	16:51:39.445	0.00000E+0	0.00000E+0	-1.04084E+1	-9.03375E-1	0.00000E+0	0.00000E+0	2.12677E+1	1.36607E+1	2.12688E+1	1.36613E+1
242	15/03/2023	16:51:40.912	0.00000E+0	0.00000E+0	-1.54291E+2	-1.94101E+0	0.00000E+0	0.00000E+0	1.90559E+1	1.58878E+1	1.90537E+1	1.58888E+1
