#Iteration	Date	Time	Chirp	Phase	RamanAxis	RTPhase	NFringe	Ratio
1	12/06/2023	17:56:02.483	0.00000000E+0	-1.56922630E+3	5.00000000E+0	2.24229642E+0	-2.51900000E+3	4.86483900E-1
2	12/06/2023	17:56:04.335	0.00000000E+0	-1.56294311E+3	5.00000000E+0	5.26538905E-1	-2.51800000E+3	5.01863535E-1
3	12/06/2023	17:56:06.225	0.00000000E+0	-1.55665993E+3	5.00000000E+0	5.28264634E+0	-2.51600000E+3	4.59875517E-1
4	12/06/2023	17:56:08.065	0.00000000E+0	-1.55037674E+3	5.00000000E+0	4.78065113E+0	-2.51700000E+3	4.60371617E-1
5	12/06/2023	17:56:10.098	0.00000000E+0	-1.54409356E+3	5.00000000E+0	1.45689825E+0	-2.52000000E+3	4.59104518E-1
6	12/06/2023	17:56:12.157	0.00000000E+0	-1.53781037E+3	5.00000000E+0	4.48344235E+0	-2.50900000E+3	6.38503821E-1
7	12/06/2023	17:56:14.160	0.00000000E+0	-1.53152719E+3	5.00000000E+0	4.20425784E+0	-2.46300000E+3	6.22834749E-1
8	12/06/2023	17:56:16.349	0.00000000E+0	-1.52524400E+3	5.00000000E+0	2.76001493E+0	-2.42400000E+3	3.67701579E-1
9	12/06/2023	17:56:18.331	0.00000000E+0	-1.51896082E+3	5.00000000E+0	3.78049565E+0	-2.44600000E+3	3.12931952E-1
10	12/06/2023	17:56:20.230	0.00000000E+0	-1.51267763E+3	5.00000000E+0	5.42492306E+0	-2.51300000E+3	6.20425333E-1
11	12/06/2023	17:56:22.053	0.00000000E+0	-1.50639444E+3	5.00000000E+0	6.15586490E+0	-2.50800000E+3	6.42490789E-1
12	12/06/2023	17:56:23.947	0.00000000E+0	-1.50011126E+3	5.00000000E+0	5.56950075E+0	-2.39200000E+3	4.20622488E-1
13	12/06/2023	17:56:25.837	0.00000000E+0	-1.49382807E+3	5.00000000E+0	4.06313161E+0	-2.35900000E+3	3.30810687E-1
14	12/06/2023	17:56:27.577	0.00000000E+0	-1.48754489E+3	5.00000000E+0	1.14243219E+0	-2.51200000E+3	5.52051348E-1
15	12/06/2023	17:56:29.445	0.00000000E+0	-1.48126170E+3	5.00000000E+0	6.13515616E+0	-2.52100000E+3	5.97765069E-1
16	12/06/2023	17:56:31.209	0.00000000E+0	-1.47497852E+3	5.00000000E+0	5.34477256E+0	-2.48300000E+3	4.33586929E-1
17	12/06/2023	17:56:32.933	0.00000000E+0	-1.46869533E+3	5.00000000E+0	4.09381123E+0	-2.31200000E+3	6.72771507E-1
18	12/06/2023	17:56:34.781	0.00000000E+0	-1.46241215E+3	5.00000000E+0	5.09128223E+0	-2.43300000E+3	6.56180785E-1
19	12/06/2023	17:56:36.618	0.00000000E+0	-1.45612896E+3	5.00000000E+0	3.63553447E-1	-2.51500000E+3	5.32934517E-1
20	12/06/2023	17:56:38.550	0.00000000E+0	-1.44984578E+3	5.00000000E+0	9.58354497E-1	-2.49600000E+3	4.48312393E-1
21	12/06/2023	17:56:40.757	0.00000000E+0	-1.44356259E+3	5.00000000E+0	2.64726734E+0	-2.26400000E+3	3.22784842E-1
22	12/06/2023	17:56:42.633	0.00000000E+0	-1.43727941E+3	5.00000000E+0	1.56082545E+0	-2.35300000E+3	3.09793997E-1
23	12/06/2023	17:56:44.727	0.00000000E+0	-1.43099622E+3	5.00000000E+0	1.62371866E+0	-2.51300000E+3	6.14699878E-1
24	12/06/2023	17:56:46.738	0.00000000E+0	-1.42471304E+3	5.00000000E+0	1.15048559E+0	-2.51400000E+3	5.56191185E-1
25	12/06/2023	17:56:48.570	0.00000000E+0	-1.41842985E+3	5.00000000E+0	2.26147118E+0	-2.42800000E+3	3.72719599E-1
26	12/06/2023	17:56:50.534	0.00000000E+0	-1.41214666E+3	5.00000000E+0	4.85466570E+0	-2.15600000E+3	3.53823244E-1
27	12/06/2023	17:56:52.405	0.00000000E+0	-1.40586348E+3	5.00000000E+0	3.84914129E+0	-2.40400000E+3	5.13859940E-1
28	12/06/2023	17:56:54.264	0.00000000E+0	-1.39958029E+3	5.00000000E+0	2.12839834E-1	-2.50700000E+3	5.48901000E-1
29	12/06/2023	17:56:56.173	0.00000000E+0	-1.39329711E+3	5.00000000E+0	8.19912731E-1	-2.51200000E+3	5.97991941E-1
30	12/06/2023	17:56:58.097	0.00000000E+0	-1.38701392E+3	5.00000000E+0	2.01488376E+0	-2.30200000E+3	3.31118625E-1
31	12/06/2023	17:57:00.040	0.00000000E+0	-1.38073074E+3	5.00000000E+0	3.23094703E+0	-2.17000000E+3	3.83189245E-1
32	12/06/2023	17:57:01.965	0.00000000E+0	-1.37444755E+3	5.00000000E+0	2.33241779E+0	-2.48600000E+3	3.05406735E-1
33	12/06/2023	17:57:03.972	0.00000000E+0	-1.36816437E+3	5.00000000E+0	2.80373339E+0	-2.51100000E+3	5.21122188E-1
34	12/06/2023	17:57:06.058	0.00000000E+0	-1.36188118E+3	5.00000000E+0	3.73677720E+0	-2.34000000E+3	4.94617496E-1
35	12/06/2023	17:57:08.057	0.00000000E+0	-1.35559800E+3	5.00000000E+0	1.33686426E+0	-2.14800000E+3	3.18174936E-1
36	12/06/2023	17:57:10.143	0.00000000E+0	-1.34931481E+3	5.00000000E+0	3.70533059E+0	-2.49600000E+3	3.29641703E-1
37	12/06/2023	17:57:12.235	0.00000000E+0	-1.34303163E+3	5.00000000E+0	5.29300071E+0	-2.51800000E+3	4.18157165E-1
38	12/06/2023	17:57:14.066	0.00000000E+0	-1.33674844E+3	5.00000000E+0	2.04019445E+0	-2.38600000E+3	4.33354879E-1
39	12/06/2023	17:57:16.020	0.00000000E+0	-1.33046526E+3	5.00000000E+0	8.78204001E-1	-2.04400000E+3	3.12608007E-1
40	12/06/2023	17:57:17.839	0.00000000E+0	-1.32418207E+3	5.00000000E+0	3.61635971E+0	-2.36200000E+3	4.67061371E-1
41	12/06/2023	17:57:19.670	0.00000000E+0	-1.31789889E+3	5.00000000E+0	4.34039864E+0	-2.51800000E+3	5.89859085E-1
42	12/06/2023	17:57:21.741	0.00000000E+0	-1.31161570E+3	5.00000000E+0	7.88849620E-1	-2.49100000E+3	5.40437650E-1
43	12/06/2023	17:57:23.608	0.00000000E+0	-1.30533251E+3	5.00000000E+0	1.17733025E+0	-2.13900000E+3	5.75298266E-1
44	12/06/2023	17:57:25.696	0.00000000E+0	-1.29904933E+3	5.00000000E+0	5.33135023E+0	-2.33800000E+3	3.29381465E-1
45	12/06/2023	17:57:27.802	0.00000000E+0	-1.29276614E+3	5.00000000E+0	4.51143750E+0	-2.51800000E+3	6.15614855E-1
46	12/06/2023	17:57:29.791	0.00000000E+0	-1.28648296E+3	5.00000000E+0	5.92691827E+0	-2.48200000E+3	5.21452064E-1
47	12/06/2023	17:57:31.817	0.00000000E+0	-1.28019977E+3	5.00000000E+0	1.86378666E-1	-2.09800000E+3	5.69075335E-1
48	12/06/2023	17:57:33.824	0.00000000E+0	-1.27391659E+3	5.00000000E+0	2.38303915E+0	-2.36800000E+3	3.41736845E-1
49	12/06/2023	17:57:35.812	0.00000000E+0	-1.26763340E+3	5.00000000E+0	4.13292774E+0	-2.52300000E+3	6.03846916E-1
50	12/06/2023	17:57:37.716	0.00000000E+0	-1.26135022E+3	5.00000000E+0	8.88558371E-1	-2.45200000E+3	4.32678349E-1
51	12/06/2023	17:57:39.653	0.00000000E+0	-1.25506703E+3	5.00000000E+0	1.81278180E+0	-2.09400000E+3	6.49174188E-1
52	12/06/2023	17:57:41.542	0.00000000E+0	-1.24878385E+3	5.00000000E+0	7.26723398E-1	-2.40400000E+3	5.05048862E-1
53	12/06/2023	17:57:43.375	0.00000000E+0	-1.24250066E+3	5.00000000E+0	2.01066532E+0	-2.51200000E+3	6.08203337E-1
54	12/06/2023	17:57:45.380	0.00000000E+0	-1.23621748E+3	5.00000000E+0	5.35052499E+0	-2.48100000E+3	6.30696332E-1
55	12/06/2023	17:57:47.402	0.00000000E+0	-1.22993429E+3	5.00000000E+0	4.43243749E+0	-2.14400000E+3	3.50075578E-1
56	12/06/2023	17:57:49.397	0.00000000E+0	-1.22365111E+3	5.00000000E+0	4.22803455E+0	-2.36400000E+3	3.05215090E-1
57	12/06/2023	17:57:51.431	0.00000000E+0	-1.21736792E+3	5.00000000E+0	1.23255356E+0	-2.51700000E+3	4.94961906E-1
58	12/06/2023	17:57:53.442	0.00000000E+0	-1.21108473E+3	5.00000000E+0	8.16461274E-1	-2.41400000E+3	3.23083023E-1
59	12/06/2023	17:57:55.450	0.00000000E+0	-1.20480155E+3	5.00000000E+0	2.86931106E+0	-2.18700000E+3	2.93136516E-1
60	12/06/2023	17:57:57.461	0.00000000E+0	-1.19851836E+3	5.00000000E+0	2.55637898E+0	-2.49000000E+3	3.71867255E-1
61	12/06/2023	17:57:59.425	0.00000000E+0	-1.19223518E+3	5.00000000E+0	3.30342763E+0	-2.51400000E+3	6.29621074E-1
62	12/06/2023	17:58:01.323	0.00000000E+0	-1.18595199E+3	5.00000000E+0	5.31524343E+0	-2.33500000E+3	5.55223451E-1
63	12/06/2023	17:58:03.331	0.00000000E+0	-1.17966881E+3	5.00000000E+0	4.75802491E+0	-2.23400000E+3	4.63228529E-1
64	12/06/2023	17:58:05.079	0.00000000E+0	-1.17338562E+3	5.00000000E+0	3.12088391E+0	-2.50800000E+3	3.79686546E-1
65	12/06/2023	17:58:06.897	0.00000000E+0	-1.16710244E+3	5.00000000E+0	3.70954904E+0	-2.51400000E+3	5.77877192E-1
66	12/06/2023	17:58:08.857	0.00000000E+0	-1.16081925E+3	5.00000000E+0	4.33234524E+0	-2.31000000E+3	3.24188132E-1
67	12/06/2023	17:58:10.737	0.00000000E+0	-1.15453607E+3	5.00000000E+0	4.11030152E+0	-2.20900000E+3	4.21992716E-1
68	12/06/2023	17:58:12.821	0.00000000E+0	-1.14825288E+3	5.00000000E+0	3.01427225E-1	-2.50500000E+3	6.26778883E-1
69	12/06/2023	17:58:14.826	0.00000000E+0	-1.14196970E+3	5.00000000E+0	1.46111670E+0	-2.50800000E+3	3.57901135E-1
70	12/06/2023	17:58:16.995	0.00000000E+0	-1.13568651E+3	5.00000000E+0	4.83549094E+0	-2.20200000E+3	6.07160968E-1
71	12/06/2023	17:58:19.036	0.00000000E+0	-1.12940333E+3	5.00000000E+0	2.08276241E+0	-2.34000000E+3	3.05510130E-1
72	12/06/2023	17:58:20.971	0.00000000E+0	-1.12312014E+3	5.00000000E+0	4.17012677E+0	-2.51300000E+3	5.99937835E-1
73	12/06/2023	17:58:22.789	0.00000000E+0	-1.11683696E+3	5.00000000E+0	4.79637443E+0	-2.50300000E+3	3.59139185E-1
74	12/06/2023	17:58:24.751	0.00000000E+0	-1.11055377E+3	5.00000000E+0	2.45897120E+0	-2.15800000E+3	6.11247567E-1
75	12/06/2023	17:58:26.539	0.00000000E+0	-1.10427058E+3	5.00000000E+0	6.24713676E-1	-2.30500000E+3	5.42819247E-1
76	12/06/2023	17:58:28.523	0.00000000E+0	-1.09798740E+3	5.00000000E+0	6.14090859E+0	-2.51800000E+3	4.51491917E-1
77	12/06/2023	17:58:30.370	0.00000000E+0	-1.09170421E+3	5.00000000E+0	3.99908791E+0	-2.50700000E+3	3.06657107E-1
78	12/06/2023	17:58:32.440	0.00000000E+0	-1.08542103E+3	5.00000000E+0	2.14067019E+0	-2.19700000E+3	6.25723839E-1
79	12/06/2023	17:58:34.392	0.00000000E+0	-1.07913784E+3	5.00000000E+0	6.08338431E+0	-2.28500000E+3	6.05022820E-1
80	12/06/2023	17:58:36.397	0.00000000E+0	-1.07285466E+3	5.00000000E+0	2.97553923E+0	-2.51500000E+3	4.52800157E-1
81	12/06/2023	17:58:38.439	0.00000000E+0	-1.06657147E+3	5.00000000E+0	7.40145730E-1	-2.51300000E+3	3.12848020E-1
82	12/06/2023	17:58:40.295	0.00000000E+0	-1.06028829E+3	5.00000000E+0	3.17687421E+0	-2.29700000E+3	3.22642346E-1
83	12/06/2023	17:58:42.263	0.00000000E+0	-1.05400510E+3	5.00000000E+0	3.89477722E+0	-2.42700000E+3	6.79588241E-1
84	12/06/2023	17:58:44.275	0.00000000E+0	-1.04772192E+3	5.00000000E+0	2.98014118E+0	-2.51000000E+3	3.24679291E-1
85	12/06/2023	17:58:46.122	0.00000000E+0	-1.04143873E+3	5.00000000E+0	5.12656379E+0	-2.43000000E+3	4.59031354E-1
86	12/06/2023	17:58:48.152	0.00000000E+0	-1.03515555E+3	5.00000000E+0	3.01618972E+0	-2.15200000E+3	3.76172418E-1
87	12/06/2023	17:58:50.007	0.00000000E+0	-1.02887236E+3	5.00000000E+0	1.02048072E+0	-2.49000000E+3	4.13785812E-1
88	12/06/2023	17:58:52.033	0.00000000E+0	-1.02258918E+3	5.00000000E+0	4.93174823E+0	-2.51400000E+3	4.54591723E-1
89	12/06/2023	17:58:53.940	0.00000000E+0	-1.01630599E+3	5.00000000E+0	4.56589382E+0	-2.31700000E+3	3.25428804E-1
90	12/06/2023	17:58:55.882	0.00000000E+0	-1.01002281E+3	5.00000000E+0	1.67280605E+0	-2.22500000E+3	4.68283508E-1
91	12/06/2023	17:58:57.884	0.00000000E+0	-1.00373962E+3	5.00000000E+0	5.64965124E+0	-2.50900000E+3	6.25648547E-1
92	12/06/2023	17:58:59.891	0.00000000E+0	-9.97456435E+2	5.00000000E+0	2.02447114E+0	-2.51300000E+3	2.96435237E-1
93	12/06/2023	17:59:01.825	0.00000000E+0	-9.91173249E+2	5.00000000E+0	4.08230637E+0	-2.16800000E+3	4.96068311E-1
94	12/06/2023	17:59:03.831	0.00000000E+0	-9.84890064E+2	5.00000000E+0	2.17211680E+0	-2.33400000E+3	4.29319599E-1
95	12/06/2023	17:59:05.764	0.00000000E+0	-9.78606879E+2	5.00000000E+0	6.80703975E-1	-2.50800000E+3	6.32960298E-1
96	12/06/2023	17:59:07.743	0.00000000E+0	-9.72323693E+2	5.00000000E+0	2.92300039E+0	-2.47100000E+3	5.74054583E-1
97	12/06/2023	17:59:09.830	0.00000000E+0	-9.66040508E+2	5.00000000E+0	5.98252507E+0	-2.09400000E+3	6.22021275E-1
98	12/06/2023	17:59:11.783	0.00000000E+0	-9.59757323E+2	5.00000000E+0	1.39170407E+0	-2.38500000E+3	3.06749422E-1
99	12/06/2023	17:59:13.803	0.00000000E+0	-9.53474137E+2	5.00000000E+0	3.56765582E+0	-2.50400000E+3	6.26008359E-1
100	12/06/2023	17:59:15.590	0.00000000E+0	-9.47190952E+2	5.00000000E+0	2.54142267E+0	-2.45700000E+3	3.16279876E-1
101	12/06/2023	17:59:17.362	0.00000000E+0	-9.40907767E+2	5.00000000E+0	2.70824308E+0	-2.16100000E+3	4.87492204E-1
102	12/06/2023	17:59:19.359	0.00000000E+0	-9.34624581E+2	5.00000000E+0	2.74697610E+0	-2.46100000E+3	3.40113318E-1
103	12/06/2023	17:59:21.213	0.00000000E+0	-9.28341396E+2	5.00000000E+0	2.03520901E+0	-2.50000000E+3	4.64100627E-1
104	12/06/2023	17:59:23.388	0.00000000E+0	-9.22058211E+2	5.00000000E+0	3.11091304E+0	-2.41300000E+3	4.00716802E-1
105	12/06/2023	17:59:25.338	0.00000000E+0	-9.15775026E+2	5.00000000E+0	2.94601010E+0	-2.11800000E+3	3.26008888E-1
106	12/06/2023	17:59:27.401	0.00000000E+0	-9.09491840E+2	5.00000000E+0	3.00545186E+0	-2.49300000E+3	4.25817185E-1
107	12/06/2023	17:59:29.492	0.00000000E+0	-9.03208655E+2	5.00000000E+0	4.50760255E+0	-2.51800000E+3	5.36740609E-1
108	12/06/2023	17:59:31.495	0.00000000E+0	-8.96925470E+2	5.00000000E+0	2.93680622E+0	-2.21700000E+3	5.18501449E-1
109	12/06/2023	17:59:33.502	0.00000000E+0	-8.90642284E+2	5.00000000E+0	1.85803423E+0	-2.32600000E+3	3.12856538E-1
110	12/06/2023	17:59:35.527	0.00000000E+0	-8.84359099E+2	5.00000000E+0	5.43642791E+0	-2.52000000E+3	4.90863474E-1
111	12/06/2023	17:59:37.358	0.00000000E+0	-8.78075914E+2	5.00000000E+0	4.97968513E+0	-2.51100000E+3	4.26461289E-1
112	12/06/2023	17:59:39.201	0.00000000E+0	-8.71792728E+2	5.00000000E+0	2.73470425E+0	-2.26900000E+3	3.16747562E-1
113	12/06/2023	17:59:40.953	0.00000000E+0	-8.65509543E+2	5.00000000E+0	1.34760212E+0	-2.16300000E+3	4.74879276E-1
114	12/06/2023	17:59:42.946	0.00000000E+0	-8.59226358E+2	5.00000000E+0	3.57954417E+0	-2.49300000E+3	3.74282245E-1
115	12/06/2023	17:59:44.963	0.00000000E+0	-8.52943172E+2	5.00000000E+0	2.26032069E+0	-2.51500000E+3	4.62347287E-1
116	12/06/2023	17:59:47.019	0.00000000E+0	-8.46659987E+2	5.00000000E+0	1.85228180E+0	-2.31600000E+3	3.63897569E-1
117	12/06/2023	17:59:49.006	0.00000000E+0	-8.40376802E+2	5.00000000E+0	5.99824838E+0	-2.12400000E+3	4.55347588E-1
118	12/06/2023	17:59:51.140	0.00000000E+0	-8.34093617E+2	5.00000000E+0	3.04725284E+0	-2.50300000E+3	6.03122234E-1
119	12/06/2023	17:59:53.114	0.00000000E+0	-8.27810431E+2	5.00000000E+0	5.59212696E+0	-2.51700000E+3	6.41281999E-1
120	12/06/2023	17:59:55.178	0.00000000E+0	-8.21527246E+2	5.00000000E+0	5.17296671E+0	-2.26200000E+3	3.98425148E-1
121	12/06/2023	17:59:57.131	0.00000000E+0	-8.15244061E+2	5.00000000E+0	4.73578219E+0	-2.16000000E+3	4.78282515E-1
122	12/06/2023	17:59:59.009	0.00000000E+0	-8.08960875E+2	5.00000000E+0	1.38786912E+0	-2.50600000E+3	6.33241938E-1
123	12/06/2023	18:00:01.029	0.00000000E+0	-8.02677690E+2	5.00000000E+0	2.48850033E+0	-2.50300000E+3	4.23914503E-1
124	12/06/2023	18:00:03.026	0.00000000E+0	-7.96394505E+2	5.00000000E+0	5.05715116E+0	-2.45900000E+3	5.88137571E-1
125	12/06/2023	18:00:04.924	0.00000000E+0	-7.90111319E+2	5.00000000E+0	2.84553436E+0	-2.26900000E+3	3.70731449E-1
126	12/06/2023	18:00:06.936	0.00000000E+0	-7.83828134E+2	5.00000000E+0	2.37767022E-2	-2.46400000E+3	6.63897166E-1
127	12/06/2023	18:00:08.863	0.00000000E+0	-7.77544949E+2	5.00000000E+0	6.13822412E+0	-2.50900000E+3	4.23220469E-1
128	12/06/2023	18:00:10.885	0.00000000E+0	-7.71261763E+2	5.00000000E+0	4.72312685E+0	-2.48100000E+3	3.35361735E-1
129	12/06/2023	18:00:12.839	0.00000000E+0	-7.64978578E+2	5.00000000E+0	1.18001472E+0	-2.21000000E+3	3.20178719E-1
130	12/06/2023	18:00:14.833	0.00000000E+0	-7.58695393E+2	5.00000000E+0	3.41157327E+0	-2.21100000E+3	3.49995338E-1
131	12/06/2023	18:00:16.942	0.00000000E+0	-7.52412208E+2	5.00000000E+0	2.21123331E+0	-2.51200000E+3	3.64187262E-1
132	12/06/2023	18:00:18.946	0.00000000E+0	-7.46129022E+2	5.00000000E+0	2.36923333E+0	-2.51700000E+3	4.84560861E-1
133	12/06/2023	18:00:21.012	0.00000000E+0	-7.39845837E+2	5.00000000E+0	6.13362218E+0	-2.39300000E+3	3.75586108E-1
134	12/06/2023	18:00:22.945	0.00000000E+0	-7.33562652E+2	5.00000000E+0	3.56305388E+0	-2.07700000E+3	3.61505133E-1
135	12/06/2023	18:00:24.876	0.00000000E+0	-7.27279466E+2	5.00000000E+0	3.27159753E+0	-2.44100000E+3	6.48612696E-1
136	12/06/2023	18:00:26.765	0.00000000E+0	-7.20996281E+2	5.00000000E+0	9.64106925E-1	-2.51100000E+3	5.94891967E-1
137	12/06/2023	18:00:28.613	0.00000000E+0	-7.14713096E+2	5.00000000E+0	5.04833077E+0	-2.49000000E+3	3.87040565E-1
138	12/06/2023	18:00:30.429	0.00000000E+0	-7.08429910E+2	5.00000000E+0	2.17595175E+0	-2.23600000E+3	6.46274778E-1
139	12/06/2023	18:00:32.438	0.00000000E+0	-7.02146725E+2	5.00000000E+0	1.84499539E+0	-2.20600000E+3	6.93220803E-1
140	12/06/2023	18:00:34.440	0.00000000E+0	-6.95863540E+2	5.00000000E+0	6.50791349E-1	-2.50500000E+3	5.42852835E-1
141	12/06/2023	18:00:36.559	0.00000000E+0	-6.89580354E+2	5.00000000E+0	6.04158333E+0	-2.50900000E+3	5.84276603E-1
142	12/06/2023	18:00:38.486	0.00000000E+0	-6.83297169E+2	5.00000000E+0	3.33103928E+0	-2.31100000E+3	6.41945484E-1
143	12/06/2023	18:00:40.516	0.00000000E+0	-6.77013984E+2	5.00000000E+0	7.47815634E-1	-2.12100000E+3	3.22120360E-1
144	12/06/2023	18:00:42.665	0.00000000E+0	-6.70730799E+2	5.00000000E+0	1.69466528E+0	-2.48100000E+3	3.05534100E-1
145	12/06/2023	18:00:44.659	0.00000000E+0	-6.64447613E+2	5.00000000E+0	1.17502928E+0	-2.49700000E+3	4.44142700E-1
146	12/06/2023	18:00:46.586	0.00000000E+0	-6.58164428E+2	5.00000000E+0	4.64259285E+0	-2.48000000E+3	3.87912212E-1
147	12/06/2023	18:00:48.436	0.00000000E+0	-6.51881243E+2	5.00000000E+0	1.77519927E+0	-2.19200000E+3	6.67070211E-1
148	12/06/2023	18:00:50.299	0.00000000E+0	-6.45598057E+2	5.00000000E+0	2.21621874E+0	-2.21400000E+3	3.34317477E-1
149	12/06/2023	18:00:52.169	0.00000000E+0	-6.39314872E+2	5.00000000E+0	4.25104426E+0	-2.47800000E+3	2.93251259E-1
150	12/06/2023	18:00:54.002	0.00000000E+0	-6.33031687E+2	5.00000000E+0	5.69413668E+0	-2.50900000E+3	5.67018686E-1
151	12/06/2023	18:00:56.022	0.00000000E+0	-6.26748501E+2	5.00000000E+0	6.86839898E-1	-2.47400000E+3	5.25664471E-1
152	12/06/2023	18:00:58.129	0.00000000E+0	-6.20465316E+2	5.00000000E+0	1.17502928E+0	-2.12100000E+3	6.28279016E-1
153	12/06/2023	18:01:00.134	0.00000000E+0	-6.14182131E+2	5.00000000E+0	1.64404391E+0	-2.22400000E+3	5.03225869E-1
154	12/06/2023	18:01:02.169	0.00000000E+0	-6.07898945E+2	5.00000000E+0	4.52907828E+0	-2.51300000E+3	6.46458634E-1
155	12/06/2023	18:01:04.171	0.00000000E+0	-6.01615760E+2	5.00000000E+0	5.49356870E+0	-2.51400000E+3	4.24519143E-1
156	12/06/2023	18:01:06.090	0.00000000E+0	-5.95332575E+2	5.00000000E+0	2.03942746E+0	-2.40600000E+3	3.54210088E-1
157	12/06/2023	18:01:08.227	0.00000000E+0	-5.89049390E+2	5.00000000E+0	5.98866100E+0	-2.04900000E+3	4.71217639E-1
158	12/06/2023	18:01:10.170	0.00000000E+0	-5.82766204E+2	5.00000000E+0	5.18408807E+0	-2.33600000E+3	3.04697704E-1
159	12/06/2023	18:01:12.135	0.00000000E+0	-5.76483019E+2	5.00000000E+0	1.25978172E+0	-2.51800000E+3	6.21420511E-1
160	12/06/2023	18:01:14.088	0.00000000E+0	-5.70199834E+2	5.00000000E+0	2.17901971E+0	-2.51800000E+3	5.36640099E-1
161	12/06/2023	18:01:15.927	0.00000000E+0	-5.63916648E+2	5.00000000E+0	4.59197149E+0	-2.35600000E+3	4.38543217E-1
162	12/06/2023	18:01:17.778	0.00000000E+0	-5.57633463E+2	5.00000000E+0	4.34193262E+0	-2.04500000E+3	4.47811432E-1
163	12/06/2023	18:01:19.769	0.00000000E+0	-5.51350278E+2	5.00000000E+0	3.96303937E+0	-2.37600000E+3	3.30344815E-1
164	12/06/2023	18:01:21.704	0.00000000E+0	-5.45067092E+2	5.00000000E+0	4.61881615E+0	-2.50400000E+3	6.08889850E-1
165	12/06/2023	18:01:23.805	0.00000000E+0	-5.38783907E+2	5.00000000E+0	2.30902458E+0	-2.51200000E+3	6.04250828E-1
166	12/06/2023	18:01:25.740	0.00000000E+0	-5.32500722E+2	5.00000000E+0	7.63155442E-2	-2.32300000E+3	5.35354107E-1
167	12/06/2023	18:01:27.827	0.00000000E+0	-5.26217536E+2	5.00000000E+0	3.46641309E+0	-2.00400000E+3	6.45300932E-1
168	12/06/2023	18:01:29.825	0.00000000E+0	-5.19934351E+2	5.00000000E+0	6.12058334E+0	-2.36800000E+3	4.06922168E-1
169	12/06/2023	18:01:31.691	0.00000000E+0	-5.13651166E+2	5.00000000E+0	5.50047161E+0	-2.51400000E+3	6.09287164E-1
170	12/06/2023	18:01:33.842	0.00000000E+0	-5.07367981E+2	5.00000000E+0	2.61965569E+0	-2.51900000E+3	6.78089022E-1
171	12/06/2023	18:01:35.667	0.00000000E+0	-5.01084795E+2	5.00000000E+0	4.95974338E+0	-2.34400000E+3	6.19252764E-1
172	12/06/2023	18:01:37.534	0.00000000E+0	-4.94801610E+2	5.00000000E+0	3.50399561E+0	-1.96700000E+3	3.52004539E-1
173	12/06/2023	18:01:39.436	0.00000000E+0	-4.88518425E+2	5.00000000E+0	1.09909723E+0	-2.28800000E+3	4.53194853E-1
174	12/06/2023	18:01:41.277	0.00000000E+0	-4.82235239E+2	5.00000000E+0	5.90275807E+0	-2.51300000E+3	6.37735397E-1
175	12/06/2023	18:01:43.277	0.00000000E+0	-4.75952054E+2	5.00000000E+0	5.90390856E+0	-2.50400000E+3	4.00562096E-1
176	12/06/2023	18:01:45.187	0.00000000E+0	-4.69668869E+2	5.00000000E+0	2.38495663E+0	-2.43400000E+3	6.60590089E-1
177	12/06/2023	18:01:47.208	0.00000000E+0	-4.63385683E+2	5.00000000E+0	1.17272831E+0	-2.07600000E+3	6.23282888E-1
178	12/06/2023	18:01:49.283	0.00000000E+0	-4.57102498E+2	5.00000000E+0	4.71737442E+0	-2.36300000E+3	2.99099440E-1
179	12/06/2023	18:01:51.279	0.00000000E+0	-4.50819313E+2	5.00000000E+0	2.42177217E+0	-2.50200000E+3	6.21290635E-1
180	12/06/2023	18:01:53.269	0.00000000E+0	-4.44536127E+2	5.00000000E+0	3.84032090E+0	-2.50300000E+3	4.68761407E-1
181	12/06/2023	18:01:55.323	0.00000000E+0	-4.38252942E+2	5.00000000E+0	5.33748615E+0	-2.25000000E+3	6.35358440E-1
182	12/06/2023	18:01:57.326	0.00000000E+0	-4.31969757E+2	5.00000000E+0	2.95789845E+0	-2.25100000E+3	3.15444129E-1
183	12/06/2023	18:01:59.207	0.00000000E+0	-4.25686572E+2	5.00000000E+0	4.75035500E+0	-2.49700000E+3	5.28367499E-1
184	12/06/2023	18:02:01.064	0.00000000E+0	-4.19403386E+2	5.00000000E+0	1.64787886E+0	-2.47200000E+3	3.36881952E-1
185	12/06/2023	18:02:02.823	0.00000000E+0	-4.13120201E+2	5.00000000E+0	3.08598585E+0	-2.49500000E+3	4.07417421E-1
186	12/06/2023	18:02:04.742	0.00000000E+0	-4.06837016E+2	5.00000000E+0	3.76822381E+0	-2.20100000E+3	5.45618635E-1
187	12/06/2023	18:02:06.720	0.00000000E+0	-4.00553830E+2	5.00000000E+0	4.72197636E+0	-2.24600000E+3	3.55432637E-1
188	12/06/2023	18:02:08.750	0.00000000E+0	-3.94270645E+2	5.00000000E+0	4.97124824E+0	-2.49900000E+3	3.35163982E-1
189	12/06/2023	18:02:10.815	0.00000000E+0	-3.87987460E+2	5.00000000E+0	2.15064106E+0	-2.50200000E+3	5.52595658E-1
190	12/06/2023	18:02:12.770	0.00000000E+0	-3.81704274E+2	5.00000000E+0	6.20073384E+0	-2.47400000E+3	2.95834016E-1
191	12/06/2023	18:02:14.896	0.00000000E+0	-3.75421089E+2	5.00000000E+0	5.06827252E+0	-2.17300000E+3	6.21820247E-1
192	12/06/2023	18:02:16.780	0.00000000E+0	-3.69137904E+2	5.00000000E+0	5.41265121E+0	-2.19600000E+3	4.29100385E-1
193	12/06/2023	18:02:18.746	0.00000000E+0	-3.62854718E+2	5.00000000E+0	7.65839908E-1	-2.47200000E+3	3.96376151E-1
194	12/06/2023	18:02:20.775	0.00000000E+0	-3.56571533E+2	5.00000000E+0	5.88703477E+0	-2.50900000E+3	5.67660787E-1
195	12/06/2023	18:02:22.600	0.00000000E+0	-3.50288348E+2	5.00000000E+0	6.07993285E+0	-2.50900000E+3	4.57368761E-1
196	12/06/2023	18:02:24.594	0.00000000E+0	-3.44005163E+2	5.00000000E+0	4.03858792E+0	-2.30300000E+3	6.64048030E-1
197	12/06/2023	18:02:26.437	0.00000000E+0	-3.37721977E+2	5.00000000E+0	1.92361191E+0	-2.08800000E+3	4.96120972E-1
198	12/06/2023	18:02:28.360	0.00000000E+0	-3.31438792E+2	5.00000000E+0	7.52034081E-1	-2.40500000E+3	6.00256909E-1
199	12/06/2023	18:02:30.397	0.00000000E+0	-3.25155607E+2	5.00000000E+0	1.34146620E+0	-2.50400000E+3	4.63853056E-1
200	12/06/2023	18:02:32.376	0.00000000E+0	-3.18872421E+2	5.00000000E+0	2.74582561E+0	-2.51100000E+3	5.94659724E-1
201	12/06/2023	18:02:34.441	0.00000000E+0	-3.12589236E+2	5.00000000E+0	3.30879656E+0	-2.30300000E+3	4.12170091E-1
202	12/06/2023	18:02:36.459	0.00000000E+0	-3.06306051E+2	5.00000000E+0	1.89561676E+0	-2.11800000E+3	3.20467021E-1
203	12/06/2023	18:02:38.465	0.00000000E+0	-3.00022865E+2	5.00000000E+0	6.25940860E+0	-2.43000000E+3	6.61632100E-1
204	12/06/2023	18:02:40.389	0.00000000E+0	-2.93739680E+2	5.00000000E+0	5.11966088E+0	-2.51600000E+3	5.87827610E-1
205	12/06/2023	18:02:42.389	0.00000000E+0	-2.87456495E+2	5.00000000E+0	4.23877241E+0	-2.51500000E+3	5.08386277E-1
206	12/06/2023	18:02:44.331	0.00000000E+0	-2.81173309E+2	5.00000000E+0	1.20570890E+0	-2.29700000E+3	5.86472007E-1
207	12/06/2023	18:02:46.232	0.00000000E+0	-2.74890124E+2	5.00000000E+0	4.16284036E+0	-2.06600000E+3	3.02058335E-1
208	12/06/2023	18:02:48.085	0.00000000E+0	-2.68606939E+2	5.00000000E+0	4.12602482E+0	-2.39400000E+3	4.93088393E-1
209	12/06/2023	18:02:49.998	0.00000000E+0	-2.62323754E+2	5.00000000E+0	3.79276750E+0	-2.51300000E+3	6.11195613E-1
210	12/06/2023	18:02:51.830	0.00000000E+0	-2.56040568E+2	5.00000000E+0	4.08384035E+0	-2.52000000E+3	6.01287610E-1
211	12/06/2023	18:02:53.753	0.00000000E+0	-2.49757383E+2	5.00000000E+0	3.60715582E+0	-2.38600000E+3	4.07231519E-1
212	12/06/2023	18:02:55.771	0.00000000E+0	-2.43474198E+2	5.00000000E+0	1.08375743E+0	-2.05900000E+3	4.85393440E-1
213	12/06/2023	18:02:57.780	0.00000000E+0	-2.37191012E+2	5.00000000E+0	4.58698605E+0	-2.33900000E+3	3.40472322E-1
214	12/06/2023	18:02:59.799	0.00000000E+0	-2.30907827E+2	5.00000000E+0	4.51910740E+0	-2.51100000E+3	6.32932077E-1
215	12/06/2023	18:03:01.868	0.00000000E+0	-2.24624642E+2	5.00000000E+0	1.09871374E+0	-2.50900000E+3	6.27600217E-1
216	12/06/2023	18:03:03.885	0.00000000E+0	-2.18341456E+2	5.00000000E+0	1.36600989E+0	-2.32300000E+3	5.79286009E-1
217	12/06/2023	18:03:06.046	0.00000000E+0	-2.12058271E+2	5.00000000E+0	5.75089397E+0	-2.12100000E+3	3.15133011E-1
218	12/06/2023	18:03:07.909	0.00000000E+0	-2.05775086E+2	5.00000000E+0	3.41847619E+0	-2.42000000E+3	6.58201950E-1
219	12/06/2023	18:03:09.871	0.00000000E+0	-1.99491900E+2	5.00000000E+0	2.02868959E-1	-2.51200000E+3	6.36801782E-1
220	12/06/2023	18:03:11.825	0.00000000E+0	-1.93208715E+2	5.00000000E+0	3.80312187E+0	-2.51500000E+3	4.93813602E-1
221	12/06/2023	18:03:13.646	0.00000000E+0	-1.86925530E+2	5.00000000E+0	5.55109298E+0	-2.34100000E+3	2.97367343E-1
222	12/06/2023	18:03:15.483	0.00000000E+0	-1.80642345E+2	5.00000000E+0	2.93373826E-1	-2.06900000E+3	3.35615183E-1
223	12/06/2023	18:03:17.488	0.00000000E+0	-1.74359159E+2	5.00000000E+0	4.69819966E+0	-2.32800000E+3	3.32818243E-1
224	12/06/2023	18:03:19.418	0.00000000E+0	-1.68075974E+2	5.00000000E+0	2.96863632E+0	-2.50700000E+3	5.18541760E-1
225	12/06/2023	18:03:21.503	0.00000000E+0	-1.61792789E+2	5.00000000E+0	3.39738395E+0	-2.52300000E+3	3.98461372E-1
226	12/06/2023	18:03:23.348	0.00000000E+0	-1.55509603E+2	5.00000000E+0	9.92869065E-1	-2.38700000E+3	4.31673833E-1
227	12/06/2023	18:03:25.289	0.00000000E+0	-1.49226418E+2	5.00000000E+0	7.56252528E-1	-2.18400000E+3	3.32088896E-1
228	12/06/2023	18:03:27.299	0.00000000E+0	-1.42943233E+2	5.00000000E+0	1.62410216E+0	-2.49900000E+3	3.35260911E-1
229	12/06/2023	18:03:29.458	0.00000000E+0	-1.36660047E+2	5.00000000E+0	3.38818007E+0	-2.48200000E+3	5.65653007E-1
230	12/06/2023	18:03:31.529	0.00000000E+0	-1.30376862E+2	5.00000000E+0	4.27328698E+0	-2.51400000E+3	6.43246312E-1
231	12/06/2023	18:03:33.384	0.00000000E+0	-1.24093677E+2	5.00000000E+0	1.04349043E+0	-2.40500000E+3	3.19498700E-1
232	12/06/2023	18:03:35.232	0.00000000E+0	-1.17810492E+2	5.00000000E+0	8.62864193E-2	-2.09500000E+3	2.75467641E-1
233	12/06/2023	18:03:37.191	0.00000000E+0	-1.11527306E+2	5.00000000E+0	4.40099088E+0	-2.28200000E+3	3.28632174E-1
234	12/06/2023	18:03:38.966	0.00000000E+0	-1.05244121E+2	5.00000000E+0	3.21752470E+0	-2.48000000E+3	4.45387906E-1
235	12/06/2023	18:03:41.073	0.00000000E+0	-9.89609356E+1	5.00000000E+0	4.26983552E+0	-2.51200000E+3	5.46906757E-1
236	12/06/2023	18:03:43.066	0.00000000E+0	-9.26777503E+1	5.00000000E+0	4.15056852E+0	-2.51600000E+3	6.27702526E-1
237	12/06/2023	18:03:45.029	0.00000000E+0	-8.63945650E+1	5.00000000E+0	1.55507302E+0	-2.41300000E+3	6.44716468E-1
238	12/06/2023	18:03:47.074	0.00000000E+0	-8.01113797E+1	5.00000000E+0	6.29699113E-1	-2.10400000E+3	6.03210190E-1
239	12/06/2023	18:03:49.097	0.00000000E+0	-7.38281943E+1	5.00000000E+0	2.35235954E+0	-2.31100000E+3	3.44940405E-1
240	12/06/2023	18:03:51.044	0.00000000E+0	-6.75450090E+1	5.00000000E+0	5.47324345E+0	-2.50600000E+3	5.99867841E-1
241	12/06/2023	18:03:53.551	0.00000000E+0	-6.12618237E+1	5.00000000E+0	9.32276824E-1	-2.51700000E+3	6.36383765E-1
242	12/06/2023	18:03:55.690	0.00000000E+0	-5.49786384E+1	5.00000000E+0	8.13009818E-1	-2.33000000E+3	2.82874920E-1
243	12/06/2023	18:03:57.642	0.00000000E+0	-4.86954531E+1	5.00000000E+0	9.75611781E-1	-2.03600000E+3	3.28487735E-1
244	12/06/2023	18:03:59.465	0.00000000E+0	-4.24122678E+1	5.00000000E+0	5.41955412E+0	-2.28500000E+3	3.02692048E-1
245	12/06/2023	18:04:01.218	0.00000000E+0	-3.61290825E+1	5.00000000E+0	5.01918514E+0	-2.49000000E+3	3.12248762E-1
246	12/06/2023	18:04:03.134	0.00000000E+0	-2.98458972E+1	5.00000000E+0	5.31831139E+0	-2.50800000E+3	5.02283338E-1
247	12/06/2023	18:04:05.142	0.00000000E+0	-2.35627119E+1	5.00000000E+0	3.79238400E+0	-2.48200000E+3	4.60858266E-1
248	12/06/2023	18:04:07.046	0.00000000E+0	-1.72795266E+1	5.00000000E+0	4.66483558E+0	-2.21000000E+3	5.26678026E-1
249	12/06/2023	18:04:09.143	0.00000000E+0	-1.09963413E+1	5.00000000E+0	4.55477245E+0	-2.17900000E+3	3.26083301E-1
250	12/06/2023	18:04:11.157	0.00000000E+0	-4.71315597E+0	5.00000000E+0	2.14450514E+0	-2.47500000E+3	3.91390172E-1
251	12/06/2023	18:04:13.178	0.00000000E+0	1.57002934E+0	5.00000000E+0	2.75311202E+0	-2.52100000E+3	5.05395208E-1
252	12/06/2023	18:04:15.259	0.00000000E+0	7.85321464E+0	5.00000000E+0	2.16444689E+0	-2.44700000E+3	6.41111554E-1
253	12/06/2023	18:04:17.229	0.00000000E+0	1.41364000E+1	5.00000000E+0	9.51068088E-1	-2.10500000E+3	6.07262441E-1
254	12/06/2023	18:04:19.304	0.00000000E+0	2.04195853E+1	5.00000000E+0	4.82283560E+0	-2.36500000E+3	4.22600125E-1
255	12/06/2023	18:04:21.091	0.00000000E+0	2.67027706E+1	5.00000000E+0	1.84269442E+0	-2.51200000E+3	6.21617137E-1
256	12/06/2023	18:04:22.947	0.00000000E+0	3.29859559E+1	5.00000000E+0	4.61076275E+0	-2.51600000E+3	6.41927914E-1
257	12/06/2023	18:04:24.786	0.00000000E+0	3.92691412E+1	5.00000000E+0	5.63776289E+0	-2.40100000E+3	4.66824357E-1
258	12/06/2023	18:04:26.591	0.00000000E+0	4.55523265E+1	5.00000000E+0	4.01749568E+0	-2.12000000E+3	3.58282434E-1
259	12/06/2023	18:04:28.802	0.00000000E+0	5.18355118E+1	5.00000000E+0	4.12832580E+0	-2.36600000E+3	5.33142785E-1
260	12/06/2023	18:04:30.667	0.00000000E+0	5.81186971E+1	5.00000000E+0	4.52869478E+0	-2.52600000E+3	5.46458708E-1
261	12/06/2023	18:04:32.672	0.00000000E+0	6.44018824E+1	5.00000000E+0	3.66352962E+0	-2.51800000E+3	6.35828949E-1
262	12/06/2023	18:04:34.815	0.00000000E+0	7.06850677E+1	5.00000000E+0	4.48497633E+0	-2.32400000E+3	3.05465327E-1
263	12/06/2023	18:04:36.762	0.00000000E+0	7.69682530E+1	5.00000000E+0	9.15403035E-1	-2.16800000E+3	3.12766183E-1
264	12/06/2023	18:04:38.731	0.00000000E+0	8.32514383E+1	5.00000000E+0	5.81608816E+0	-2.46100000E+3	5.78439122E-1
265	12/06/2023	18:04:40.684	0.00000000E+0	8.95346236E+1	5.00000000E+0	4.44087438E-1	-2.51000000E+3	4.38929097E-1
266	12/06/2023	18:04:42.632	0.00000000E+0	9.58178089E+1	5.00000000E+0	3.90666557E+0	-2.49000000E+3	3.12143847E-1
267	12/06/2023	18:04:44.579	0.00000000E+0	1.02100994E+2	5.00000000E+0	7.36310778E-1	-2.22200000E+3	6.51467834E-1
268	12/06/2023	18:04:46.590	0.00000000E+0	1.08384180E+2	5.00000000E+0	3.54809756E+0	-2.18000000E+3	3.14789350E-1
269	12/06/2023	18:04:48.434	0.00000000E+0	1.14667365E+2	5.00000000E+0	1.11673801E+0	-2.47000000E+3	4.08823108E-1
270	12/06/2023	18:04:50.446	0.00000000E+0	1.20950550E+2	5.00000000E+0	1.42468466E+0	-2.50300000E+3	5.93631855E-1
271	12/06/2023	18:04:52.442	0.00000000E+0	1.27233735E+2	5.00000000E+0	2.60546637E+0	-2.49200000E+3	5.76115130E-1
272	12/06/2023	18:04:54.418	0.00000000E+0	1.33516921E+2	5.00000000E+0	5.19597642E+0	-2.21400000E+3	6.63069685E-1
273	12/06/2023	18:04:56.423	0.00000000E+0	1.39800106E+2	5.00000000E+0	5.95491342E+0	-2.24200000E+3	3.00043354E-1
274	12/06/2023	18:04:58.390	0.00000000E+0	1.46083291E+2	5.00000000E+0	3.70034516E+0	-2.50300000E+3	5.27073589E-1
275	12/06/2023	18:05:00.525	0.00000000E+0	1.52366477E+2	5.00000000E+0	1.34645164E+0	-2.50900000E+3	4.76752002E-1
276	12/06/2023	18:05:02.528	0.00000000E+0	1.58649662E+2	5.00000000E+0	2.99931594E+0	-2.46000000E+3	6.28014395E-1
277	12/06/2023	18:05:04.607	0.00000000E+0	1.64932847E+2	5.00000000E+0	3.72297137E+0	-2.12000000E+3	4.98428957E-1
278	12/06/2023	18:05:06.460	0.00000000E+0	1.71216033E+2	5.00000000E+0	6.24598627E+0	-2.24500000E+3	2.85418638E-1
279	12/06/2023	18:05:08.273	0.00000000E+0	1.77499218E+2	5.00000000E+0	3.10707809E+0	-2.47900000E+3	3.02946795E-1
280	12/06/2023	18:05:10.135	0.00000000E+0	1.83782403E+2	5.00000000E+0	6.02969498E+0	-2.50700000E+3	5.24102812E-1
281	12/06/2023	18:05:11.945	0.00000000E+0	1.90065589E+2	5.00000000E+0	2.80334989E-1	-2.47500000E+3	5.72113317E-1
282	12/06/2023	18:05:13.766	0.00000000E+0	1.96348774E+2	5.00000000E+0	2.81025280E+0	-2.17600000E+3	5.69505172E-1
283	12/06/2023	18:05:15.776	0.00000000E+0	2.02631959E+2	5.00000000E+0	1.38058271E-2	-2.26100000E+3	3.91397138E-1
284	12/06/2023	18:05:17.715	0.00000000E+0	2.08915144E+2	5.00000000E+0	4.16168988E+0	-2.50500000E+3	3.88401166E-1
285	12/06/2023	18:05:19.797	0.00000000E+0	2.15198330E+2	5.00000000E+0	4.88649580E+0	-2.51800000E+3	6.57081879E-1
286	12/06/2023	18:05:21.820	0.00000000E+0	2.21481515E+2	5.00000000E+0	2.08084494E+0	-2.36300000E+3	2.97867655E-1
287	12/06/2023	18:05:23.819	0.00000000E+0	2.27764700E+2	5.00000000E+0	3.71453448E+0	-2.07400000E+3	5.78909281E-1
288	12/06/2023	18:05:25.878	0.00000000E+0	2.34047886E+2	5.00000000E+0	3.67733544E+0	-2.41400000E+3	5.81221362E-1
289	12/06/2023	18:05:27.938	0.00000000E+0	2.40331071E+2	5.00000000E+0	1.63330604E+0	-2.50600000E+3	5.98416999E-1
290	12/06/2023	18:05:29.918	0.00000000E+0	2.46614256E+2	5.00000000E+0	5.03260747E+0	-2.48200000E+3	5.32154695E-1
291	12/06/2023	18:05:31.727	0.00000000E+0	2.52897442E+2	5.00000000E+0	4.31662194E+0	-2.18800000E+3	6.47298542E-1
292	12/06/2023	18:05:33.553	0.00000000E+0	2.59180627E+2	5.00000000E+0	5.94264157E+0	-2.26600000E+3	5.90134854E-1
293	12/06/2023	18:05:35.409	0.00000000E+0	2.65463812E+2	5.00000000E+0	5.96258332E+0	-2.50800000E+3	6.40329351E-1
294	12/06/2023	18:05:37.311	0.00000000E+0	2.71746998E+2	5.00000000E+0	3.02385963E+0	-2.51000000E+3	5.55849560E-1
295	12/06/2023	18:05:39.235	0.00000000E+0	2.78030183E+2	5.00000000E+0	1.72381091E+0	-2.44900000E+3	4.83460538E-1
296	12/06/2023	18:05:41.208	0.00000000E+0	2.84313368E+2	5.00000000E+0	3.19719946E+0	-2.10400000E+3	6.17518227E-1
297	12/06/2023	18:05:43.210	0.00000000E+0	2.90596553E+2	5.00000000E+0	5.88473380E+0	-2.36300000E+3	3.66654703E-1
298	12/06/2023	18:05:45.262	0.00000000E+0	2.96879739E+2	5.00000000E+0	1.24252444E-1	-2.50700000E+3	5.94610296E-1
299	12/06/2023	18:05:47.487	0.00000000E+0	3.03162924E+2	5.00000000E+0	5.37545218E+0	-2.50000000E+3	2.89915964E-1
300	12/06/2023	18:05:49.440	0.00000000E+0	3.09446109E+2	5.00000000E+0	3.96265587E+0	-2.21900000E+3	5.17584976E-1
301	12/06/2023	18:05:51.606	0.00000000E+0	3.15729295E+2	5.00000000E+0	5.34477256E+0	-2.25600000E+3	2.97232762E-1
302	12/06/2023	18:05:53.443	0.00000000E+0	3.22012480E+2	5.00000000E+0	5.01918514E+0	-2.49800000E+3	3.84919855E-1
303	12/06/2023	18:05:55.286	0.00000000E+0	3.28295665E+2	5.00000000E+0	2.18592262E-2	-2.51300000E+3	3.36898034E-1
304	12/06/2023	18:05:57.183	0.00000000E+0	3.34578851E+2	5.00000000E+0	3.27044704E+0	-2.47400000E+3	3.24630990E-1
305	12/06/2023	18:05:59.031	0.00000000E+0	3.40862036E+2	5.00000000E+0	8.85106915E-1	-2.20800000E+3	6.51172280E-1
306	12/06/2023	18:06:00.942	0.00000000E+0	3.47145221E+2	5.00000000E+0	1.98957308E+0	-2.21300000E+3	4.89195084E-1
307	12/06/2023	18:06:02.947	0.00000000E+0	3.53428407E+2	5.00000000E+0	4.23685494E+0	-2.49000000E+3	3.00229784E-1
308	12/06/2023	18:06:04.882	0.00000000E+0	3.59711592E+2	5.00000000E+0	4.81133074E+0	-2.49800000E+3	6.00623623E-1
309	12/06/2023	18:06:07.054	0.00000000E+0	3.65994777E+2	5.00000000E+0	1.72994683E+0	-2.48300000E+3	4.66132683E-1
310	12/06/2023	18:06:08.987	0.00000000E+0	3.72277962E+2	5.00000000E+0	6.32767075E-2	-2.19600000E+3	6.92451546E-1
311	12/06/2023	18:06:10.989	0.00000000E+0	3.78561148E+2	5.00000000E+0	3.32030142E+0	-2.13300000E+3	6.58317594E-1
312	12/06/2023	18:06:12.930	0.00000000E+0	3.84844333E+2	5.00000000E+0	4.59350547E+0	-2.47300000E+3	3.19713368E-1
313	12/06/2023	18:06:14.915	0.00000000E+0	3.91127518E+2	5.00000000E+0	3.35098103E+0	-2.50800000E+3	4.72151989E-1
314	12/06/2023	18:06:16.781	0.00000000E+0	3.97410704E+2	5.00000000E+0	1.81239830E+0	-2.48000000E+3	3.92604057E-1
315	12/06/2023	18:06:18.765	0.00000000E+0	4.03693889E+2	5.00000000E+0	2.93105379E+0	-2.20100000E+3	4.01021775E-1
316	12/06/2023	18:06:20.541	0.00000000E+0	4.09977074E+2	5.00000000E+0	3.42537910E+0	-2.22300000E+3	3.62337483E-1
317	12/06/2023	18:06:22.441	0.00000000E+0	4.16260260E+2	5.00000000E+0	1.68622838E+0	-2.49600000E+3	3.92529196E-1
318	12/06/2023	18:06:24.242	0.00000000E+0	4.22543445E+2	5.00000000E+0	4.41287923E+0	-2.48200000E+3	4.63831444E-1
319	12/06/2023	18:06:26.281	0.00000000E+0	4.28826630E+2	5.00000000E+0	5.00959776E+0	-2.51100000E+3	4.74642087E-1
320	12/06/2023	18:06:28.210	0.00000000E+0	4.35109816E+2	5.00000000E+0	3.35481598E+0	-2.31800000E+3	3.09031883E-1
321	12/06/2023	18:06:30.219	0.00000000E+0	4.41393001E+2	5.00000000E+0	4.17281124E+0	-2.34500000E+3	4.73753646E-1
322	12/06/2023	18:06:32.301	0.00000000E+0	4.47676186E+2	5.00000000E+0	2.54717510E+0	-2.51300000E+3	6.36010293E-1
323	12/06/2023	18:06:34.314	0.00000000E+0	4.53959371E+2	5.00000000E+0	6.18386005E+0	-2.51200000E+3	4.21973798E-1
324	12/06/2023	18:06:36.409	0.00000000E+0	4.60242557E+2	5.00000000E+0	3.22135965E-2	-2.36500000E+3	3.90134844E-1
325	12/06/2023	18:06:38.435	0.00000000E+0	4.66525742E+2	5.00000000E+0	1.02700014E+0	-2.10100000E+3	4.57574934E-1
326	12/06/2023	18:06:40.332	0.00000000E+0	4.72808927E+2	5.00000000E+0	2.48274791E+0	-2.41100000E+3	6.62147055E-1
327	12/06/2023	18:06:42.158	0.00000000E+0	4.79092113E+2	5.00000000E+0	3.17879169E+0	-2.51200000E+3	6.16939735E-1
328	12/06/2023	18:06:43.968	0.00000000E+0	4.85375298E+2	5.00000000E+0	2.91648097E+0	-2.51300000E+3	6.46997047E-1
329	12/06/2023	18:06:45.804	0.00000000E+0	4.91658483E+2	5.00000000E+0	3.38319463E+0	-2.37600000E+3	3.14463311E-1
330	12/06/2023	18:06:47.702	0.00000000E+0	4.97941669E+2	5.00000000E+0	6.10639402E+0	-2.08100000E+3	3.39529563E-1
331	12/06/2023	18:06:49.712	0.00000000E+0	5.04224854E+2	5.00000000E+0	6.04580178E+0	-2.41700000E+3	5.61183826E-1
332	12/06/2023	18:06:51.725	0.00000000E+0	5.10508039E+2	5.00000000E+0	8.77820506E-1	-2.50500000E+3	5.79464431E-1
333	12/06/2023	18:06:53.719	0.00000000E+0	5.16791225E+2	5.00000000E+0	2.13338378E+0	-2.50700000E+3	3.47243739E-1
334	12/06/2023	18:06:55.667	0.00000000E+0	5.23074410E+2	5.00000000E+0	2.34315565E-1	-2.24700000E+3	6.83797505E-1
335	12/06/2023	18:06:57.672	0.00000000E+0	5.29357595E+2	5.00000000E+0	2.78801008E+0	-2.17600000E+3	3.85919759E-1
336	12/06/2023	18:06:59.614	0.00000000E+0	5.35640780E+2	5.00000000E+0	4.60194236E-2	-2.47600000E+3	3.14795059E-1
337	12/06/2023	18:07:01.611	0.00000000E+0	5.41923966E+2	5.00000000E+0	5.67918037E+0	-2.50800000E+3	5.38025261E-1
338	12/06/2023	18:07:03.522	0.00000000E+0	5.48207151E+2	5.00000000E+0	7.10616600E-1	-2.49100000E+3	5.36620586E-1
339	12/06/2023	18:07:05.372	0.00000000E+0	5.54490336E+2	5.00000000E+0	2.42752460E+0	-2.24700000E+3	5.89547597E-1
340	12/06/2023	18:07:07.364	0.00000000E+0	5.60773522E+2	5.00000000E+0	2.31055856E+0	-2.35700000E+3	3.77800206E-1
341	12/06/2023	18:07:09.211	0.00000000E+0	5.67056707E+2	5.00000000E+0	5.83219496E+0	-2.51900000E+3	6.32664786E-1
342	12/06/2023	18:07:11.039	0.00000000E+0	5.73339892E+2	5.00000000E+0	4.90912202E+0	-2.51300000E+3	4.04602755E-1
343	12/06/2023	18:07:13.041	0.00000000E+0	5.79623078E+2	5.00000000E+0	2.89117029E+0	-2.47300000E+3	2.96816618E-1
344	12/06/2023	18:07:14.975	0.00000000E+0	5.85906263E+2	5.00000000E+0	7.98437000E-1	-2.26400000E+3	3.78113658E-1
345	12/06/2023	18:07:16.951	0.00000000E+0	5.92189448E+2	5.00000000E+0	1.08874286E+0	-2.40500000E+3	6.56752948E-1
346	12/06/2023	18:07:18.971	0.00000000E+0	5.98472634E+2	5.00000000E+0	2.66874308E+0	-2.51500000E+3	5.76659319E-1
347	12/06/2023	18:07:20.932	0.00000000E+0	6.04755819E+2	5.00000000E+0	5.72558329E+0	-2.52000000E+3	6.44435594E-1
348	12/06/2023	18:07:22.975	0.00000000E+0	6.11039004E+2	5.00000000E+0	6.02854450E+0	-2.39800000E+3	6.61396430E-1
349	12/06/2023	18:07:24.973	0.00000000E+0	6.17322189E+2	5.00000000E+0	4.28785980E+0	-2.09600000E+3	6.25944371E-1
350	12/06/2023	18:07:26.809	0.00000000E+0	6.23605375E+2	5.00000000E+0	5.12349583E-1	-2.30300000E+3	3.31880073E-1
351	12/06/2023	18:07:28.743	0.00000000E+0	6.29888560E+2	5.00000000E+0	4.98236960E+0	-2.49500000E+3	3.01644910E-1
352	12/06/2023	18:07:30.496	0.00000000E+0	6.36171745E+2	5.00000000E+0	2.37306828E+0	-2.51800000E+3	6.21445741E-1
353	12/06/2023	18:07:32.470	0.00000000E+0	6.42454931E+2	5.00000000E+0	5.26270459E+0	-2.50000000E+3	5.88756997E-1
354	12/06/2023	18:07:34.303	0.00000000E+0	6.48738116E+2	5.00000000E+0	3.57034028E+0	-2.33700000E+3	3.82322469E-1
355	12/06/2023	18:07:36.207	0.00000000E+0	6.55021301E+2	5.00000000E+0	1.82582063E+0	-2.11100000E+3	4.28818467E-1
356	12/06/2023	18:07:38.248	0.00000000E+0	6.61304487E+2	5.00000000E+0	9.13102064E-1	-2.37500000E+3	6.36100223E-1
357	12/06/2023	18:07:40.282	0.00000000E+0	6.67587672E+2	5.00000000E+0	2.49732072E+0	-2.51800000E+3	3.36551805E-1
358	12/06/2023	18:07:42.225	0.00000000E+0	6.73870857E+2	5.00000000E+0	2.13568475E+0	-2.52000000E+3	5.10853224E-1
359	12/06/2023	18:07:44.288	0.00000000E+0	6.80154043E+2	5.00000000E+0	9.11184588E-1	-2.46500000E+3	2.82025370E-1
360	12/06/2023	18:07:46.230	0.00000000E+0	6.86437228E+2	5.00000000E+0	2.60776734E-2	-2.27100000E+3	3.32985439E-1
361	12/06/2023	18:07:48.251	0.00000000E+0	6.92720413E+2	5.00000000E+0	2.51304403E+0	-2.27400000E+3	4.25377922E-1
362	12/06/2023	18:07:50.138	0.00000000E+0	6.99003598E+2	5.00000000E+0	1.91325754E+0	-2.46800000E+3	3.54835167E-1
363	12/06/2023	18:07:52.144	0.00000000E+0	7.05286784E+2	5.00000000E+0	3.20448587E+0	-2.51400000E+3	6.45394704E-1
364	12/06/2023	18:07:54.162	0.00000000E+0	7.11569969E+2	5.00000000E+0	1.45383029E+0	-2.51700000E+3	5.59888950E-1
365	12/06/2023	18:07:55.990	0.00000000E+0	7.17853154E+2	5.00000000E+0	3.26968005E+0	-2.45800000E+3	3.99384267E-1
366	12/06/2023	18:07:57.906	0.00000000E+0	7.24136340E+2	5.00000000E+0	3.44455386E+0	-2.20400000E+3	5.65282452E-1
367	12/06/2023	18:07:59.888	0.00000000E+0	7.30419525E+2	5.00000000E+0	1.60070895E+0	-2.03800000E+3	3.17880254E-1
368	12/06/2023	18:08:01.891	0.00000000E+0	7.36702710E+2	5.00000000E+0	1.99647600E+0	-2.42700000E+3	6.62534417E-1
369	12/06/2023	18:08:04.002	0.00000000E+0	7.42985896E+2	5.00000000E+0	5.15839389E+0	-2.50400000E+3	5.05676648E-1
370	12/06/2023	18:08:05.993	0.00000000E+0	7.49269081E+2	5.00000000E+0	3.04571885E+0	-2.51800000E+3	4.87892555E-1
371	12/06/2023	18:08:07.869	0.00000000E+0	7.55552266E+2	5.00000000E+0	4.21269474E+0	-2.47000000E+3	3.36382493E-1
372	12/06/2023	18:08:09.936	0.00000000E+0	7.61835452E+2	5.00000000E+0	5.72980174E+0	-2.12400000E+3	6.49499848E-1
373	12/06/2023	18:08:11.944	0.00000000E+0	7.68118637E+2	5.00000000E+0	2.80948581E+0	-2.27600000E+3	5.96570819E-1
374	12/06/2023	18:08:14.095	0.00000000E+0	7.74401822E+2	5.00000000E+0	4.52831129E+0	-2.52500000E+3	4.30240284E-1
375	12/06/2023	18:08:16.111	0.00000000E+0	7.80685007E+2	5.00000000E+0	1.86110219E+0	-2.51600000E+3	6.66205497E-1
376	12/06/2023	18:08:17.955	0.00000000E+0	7.86968193E+2	5.00000000E+0	3.30726258E+0	-2.40400000E+3	6.41239290E-1
377	12/06/2023	18:08:19.855	0.00000000E+0	7.93251378E+2	5.00000000E+0	4.82973851E+0	-2.07500000E+3	3.74658201E-1
378	12/06/2023	18:08:21.624	0.00000000E+0	7.99534563E+2	5.00000000E+0	9.19237987E-1	-2.22000000E+3	3.75016214E-1
379	12/06/2023	18:08:23.698	0.00000000E+0	8.05817749E+2	5.00000000E+0	6.19766588E+0	-2.48300000E+3	3.05995006E-1
380	12/06/2023	18:08:25.708	0.00000000E+0	8.12100934E+2	5.00000000E+0	4.96702979E+0	-2.51400000E+3	5.42795418E-1
381	12/06/2023	18:08:27.637	0.00000000E+0	8.18384119E+2	5.00000000E+0	3.21790820E+0	-2.45200000E+3	3.81272818E-1
382	12/06/2023	18:08:29.812	0.00000000E+0	8.24667305E+2	5.00000000E+0	6.02087459E-1	-2.17500000E+3	6.23448021E-1
383	12/06/2023	18:08:31.756	0.00000000E+0	8.30950490E+2	5.00000000E+0	5.19214147E+0	-2.23300000E+3	5.38162717E-1
384	12/06/2023	18:08:33.736	0.00000000E+0	8.37233675E+2	5.00000000E+0	2.86701009E+0	-2.47200000E+3	4.57215417E-1
385	12/06/2023	18:08:35.824	0.00000000E+0	8.43516860E+2	5.00000000E+0	9.39946728E-1	-2.51000000E+3	6.24345150E-1
386	12/06/2023	18:08:37.746	0.00000000E+0	8.49800046E+2	5.00000000E+0	6.13208820E+0	-2.51000000E+3	3.56306517E-1
387	12/06/2023	18:08:39.620	0.00000000E+0	8.56083231E+2	5.00000000E+0	2.20049544E+0	-2.36700000E+3	6.39910682E-1
388	12/06/2023	18:08:41.429	0.00000000E+0	8.62366416E+2	5.00000000E+0	5.74169009E+0	-2.12900000E+3	6.44824883E-1
389	12/06/2023	18:08:43.357	0.00000000E+0	8.68649602E+2	5.00000000E+0	2.60278190E+0	-2.29600000E+3	3.15679489E-1
390	12/06/2023	18:08:45.245	0.00000000E+0	8.74932787E+2	5.00000000E+0	1.94700512E+0	-2.48900000E+3	3.35308835E-1
391	12/06/2023	18:08:47.019	0.00000000E+0	8.81215972E+2	5.00000000E+0	5.45905413E+0	-2.51200000E+3	4.99407251E-1
392	12/06/2023	18:08:49.022	0.00000000E+0	8.87499158E+2	5.00000000E+0	1.69581576E+0	-2.49400000E+3	2.88236863E-1
393	12/06/2023	18:08:50.997	0.00000000E+0	8.93782343E+2	5.00000000E+0	5.47554442E+0	-2.27200000E+3	5.86594344E-1
394	12/06/2023	18:08:52.975	0.00000000E+0	9.00065528E+2	5.00000000E+0	3.28885481E+0	-2.14400000E+3	3.13460262E-1
395	12/06/2023	18:08:55.015	0.00000000E+0	9.06348714E+2	5.00000000E+0	2.69827221E+0	-2.42100000E+3	6.10468089E-1
396	12/06/2023	18:08:57.032	0.00000000E+0	9.12631899E+2	5.00000000E+0	3.66046166E+0	-2.52000000E+3	5.29111566E-1
397	12/06/2023	18:08:59.050	0.00000000E+0	9.18915084E+2	5.00000000E+0	6.55776787E-1	-2.49800000E+3	5.26678622E-1
398	12/06/2023	18:09:01.186	0.00000000E+0	9.25198269E+2	5.00000000E+0	6.22604452E+0	-2.30000000E+3	4.38752443E-1
399	12/06/2023	18:09:03.177	0.00000000E+0	9.31481455E+2	5.00000000E+0	2.89960718E+0	-2.13900000E+3	6.33265093E-1
400	12/06/2023	18:09:05.098	0.00000000E+0	9.37764640E+2	5.00000000E+0	1.54241768E+0	-2.38400000E+3	6.26351797E-1
401	12/06/2023	18:09:07.008	0.00000000E+0	9.44047825E+2	5.00000000E+0	3.10937906E+0	-2.51300000E+3	5.52797631E-1
402	12/06/2023	18:09:08.780	0.00000000E+0	9.50331011E+2	5.00000000E+0	6.20840374E+0	-2.52100000E+3	5.41058061E-1
403	12/06/2023	18:09:10.626	0.00000000E+0	9.56614196E+2	5.00000000E+0	5.56758327E+0	-2.44200000E+3	6.02550231E-1
404	12/06/2023	18:09:12.582	0.00000000E+0	9.62897381E+2	5.00000000E+0	9.20004978E-1	-2.20800000E+3	6.58200488E-1
405	12/06/2023	18:09:14.564	0.00000000E+0	9.69180567E+2	5.00000000E+0	4.65486470E+0	-2.25400000E+3	3.18498965E-1
406	12/06/2023	18:09:16.615	0.00000000E+0	9.75463752E+2	5.00000000E+0	1.34645164E+0	-2.47800000E+3	3.76724193E-1
407	12/06/2023	18:09:18.621	0.00000000E+0	9.81746937E+2	5.00000000E+0	4.79253948E+0	-2.50800000E+3	5.37760934E-1
408	12/06/2023	18:09:20.673	0.00000000E+0	9.88030123E+2	5.00000000E+0	5.01956863E+0	-2.45500000E+3	6.05086149E-1
409	12/06/2023	18:09:22.556	0.00000000E+0	9.94313308E+2	5.00000000E+0	1.32075746E+0	-2.17800000E+3	4.15252707E-1
410	12/06/2023	18:09:24.455	0.00000000E+0	1.00059649E+3	5.00000000E+0	2.00683037E+0	-2.26600000E+3	2.94194970E-1
411	12/06/2023	18:09:26.476	0.00000000E+0	1.00687968E+3	5.00000000E+0	5.51657841E+0	-2.51100000E+3	5.79168114E-1
412	12/06/2023	18:09:28.402	0.00000000E+0	1.01316286E+3	5.00000000E+0	5.67227746E+0	-2.51000000E+3	6.72572689E-1
413	12/06/2023	18:09:30.339	0.00000000E+0	1.01944605E+3	5.00000000E+0	5.57602016E+0	-2.39800000E+3	5.83463633E-1
414	12/06/2023	18:09:32.234	0.00000000E+0	1.02572923E+3	5.00000000E+0	1.09296131E+0	-2.16400000E+3	3.14510010E-1
415	12/06/2023	18:09:34.064	0.00000000E+0	1.03201242E+3	5.00000000E+0	5.55531142E+0	-2.41900000E+3	6.44156875E-1
416	12/06/2023	18:09:36.160	0.00000000E+0	1.03829561E+3	5.00000000E+0	6.03199595E+0	-2.51500000E+3	6.17681284E-1
417	12/06/2023	18:09:38.165	0.00000000E+0	1.04457879E+3	5.00000000E+0	4.80442783E+0	-2.49900000E+3	4.00192537E-1
418	12/06/2023	18:09:40.254	0.00000000E+0	1.05086198E+3	5.00000000E+0	1.80472840E+0	-2.31600000E+3	3.70717100E-1
419	12/06/2023	18:09:42.321	0.00000000E+0	1.05714516E+3	5.00000000E+0	5.14343758E+0	-2.09800000E+3	6.48625574E-1
420	12/06/2023	18:09:44.206	0.00000000E+0	1.06342835E+3	5.00000000E+0	1.44769437E+0	-2.39700000E+3	5.83440389E-1
421	12/06/2023	18:09:46.189	0.00000000E+0	1.06971153E+3	5.00000000E+0	6.25480666E-1	-2.51100000E+3	6.12627237E-1
422	12/06/2023	18:09:47.964	0.00000000E+0	1.07599472E+3	5.00000000E+0	5.78732602E+0	-2.50600000E+3	6.43251801E-1
423	12/06/2023	18:09:49.821	0.00000000E+0	1.08227790E+3	5.00000000E+0	3.61252476E-1	-2.38800000E+3	6.56733532E-1
424	12/06/2023	18:09:51.723	0.00000000E+0	1.08856109E+3	5.00000000E+0	2.03981095E+0	-2.07800000E+3	6.08931326E-1
425	12/06/2023	18:09:53.566	0.00000000E+0	1.09484427E+3	5.00000000E+0	5.46020461E+0	-2.31400000E+3	4.80018472E-1
426	12/06/2023	18:09:55.330	0.00000000E+0	1.10112746E+3	5.00000000E+0	2.47737897E-1	-2.50200000E+3	4.44520962E-1
427	12/06/2023	18:09:57.329	0.00000000E+0	1.10741064E+3	5.00000000E+0	4.14289861E+0	-2.51100000E+3	5.84029389E-1
428	12/06/2023	18:09:59.304	0.00000000E+0	1.11369383E+3	5.00000000E+0	2.90344214E+0	-2.45100000E+3	3.50031286E-1
429	12/06/2023	18:10:01.433	0.00000000E+0	1.11997701E+3	5.00000000E+0	3.16882081E+0	-2.15300000E+3	3.21849395E-1
430	12/06/2023	18:10:03.488	0.00000000E+0	1.12626020E+3	5.00000000E+0	2.34008769E+0	-2.32500000E+3	3.39711017E-1
431	12/06/2023	18:10:05.508	0.00000000E+0	1.13254338E+3	5.00000000E+0	2.27029157E-1	-2.50800000E+3	3.26124877E-1
432	12/06/2023	18:10:07.543	0.00000000E+0	1.13882657E+3	5.00000000E+0	3.44340337E+0	-2.51800000E+3	3.20000641E-1
433	12/06/2023	18:10:09.531	0.00000000E+0	1.14510976E+3	5.00000000E+0	2.88886932E+0	-2.47000000E+3	2.94210681E-1
434	12/06/2023	18:10:11.528	0.00000000E+0	1.15139294E+3	5.00000000E+0	6.59611739E-2	-2.25500000E+3	4.93435160E-1
435	12/06/2023	18:10:13.698	0.00000000E+0	1.15767613E+3	5.00000000E+0	1.86647112E+0	-2.25500000E+3	3.29846620E-1
436	12/06/2023	18:10:15.538	0.00000000E+0	1.16395931E+3	5.00000000E+0	5.44179685E+0	-2.49200000E+3	3.01140796E-1
437	12/06/2023	18:10:17.450	0.00000000E+0	1.17024250E+3	5.00000000E+0	2.37843721E+0	-2.51700000E+3	3.14851100E-1
438	12/06/2023	18:10:19.299	0.00000000E+0	1.17652568E+3	5.00000000E+0	2.71169454E+0	-2.47000000E+3	3.00844858E-1
439	12/06/2023	18:10:21.116	0.00000000E+0	1.18280887E+3	5.00000000E+0	3.09288876E+0	-2.25300000E+3	3.90665192E-1
440	12/06/2023	18:10:23.204	0.00000000E+0	1.18909205E+3	5.00000000E+0	4.05009278E+0	-2.20100000E+3	3.13572188E-1
441	12/06/2023	18:10:25.181	0.00000000E+0	1.19537524E+3	5.00000000E+0	1.90520414E+0	-2.47500000E+3	3.60946687E-1
442	12/06/2023	18:10:27.278	0.00000000E+0	1.20165842E+3	5.00000000E+0	2.69213628E+0	-2.51400000E+3	5.19762758E-1
443	12/06/2023	18:10:29.253	0.00000000E+0	1.20794161E+3	5.00000000E+0	2.75426250E+0	-2.46000000E+3	6.45963227E-1
444	12/06/2023	18:10:31.221	0.00000000E+0	1.21422479E+3	5.00000000E+0	5.24544730E+0	-2.17900000E+3	3.02473939E-1
445	12/06/2023	18:10:33.078	0.00000000E+0	1.22050798E+3	5.00000000E+0	3.89554421E+0	-2.27700000E+3	3.11941779E-1
446	12/06/2023	18:10:35.047	0.00000000E+0	1.22679116E+3	5.00000000E+0	4.23762193E-1	-2.50000000E+3	3.08452483E-1
447	12/06/2023	18:10:36.999	0.00000000E+0	1.23307435E+3	5.00000000E+0	3.99640345E+0	-2.51600000E+3	3.58867984E-1
448	12/06/2023	18:10:38.898	0.00000000E+0	1.23935753E+3	5.00000000E+0	5.71599591E+0	-2.42500000E+3	6.55762345E-1
449	12/06/2023	18:10:40.861	0.00000000E+0	1.24564072E+3	5.00000000E+0	2.70402463E+0	-2.13700000E+3	6.50535491E-1
450	12/06/2023	18:10:42.758	0.00000000E+0	1.25192391E+3	5.00000000E+0	6.11943286E+0	-2.32100000E+3	3.24216471E-1
451	12/06/2023	18:10:44.586	0.00000000E+0	1.25820709E+3	5.00000000E+0	5.41917063E+0	-2.50900000E+3	3.97115947E-1
452	12/06/2023	18:10:46.525	0.00000000E+0	1.26449028E+3	5.00000000E+0	1.42736912E+0	-2.51000000E+3	5.19992281E-1
453	12/06/2023	18:10:48.601	0.00000000E+0	1.27077346E+3	5.00000000E+0	4.21691319E+0	-2.36300000E+3	3.23437326E-1
454	12/06/2023	18:10:50.606	0.00000000E+0	1.27705665E+3	5.00000000E+0	1.02354868E+0	-2.09200000E+3	3.87259656E-1
455	12/06/2023	18:10:52.626	0.00000000E+0	1.28333983E+3	5.00000000E+0	1.51634001E+0	-2.37200000E+3	5.50118338E-1
456	12/06/2023	18:10:54.704	0.00000000E+0	1.28962302E+3	5.00000000E+0	6.11291344E-1	-2.51000000E+3	6.37782979E-1
457	12/06/2023	18:10:56.737	0.00000000E+0	1.29590620E+3	5.00000000E+0	4.93289872E+0	-2.50100000E+3	4.07817094E-1
458	12/06/2023	18:10:58.774	0.00000000E+0	1.30218939E+3	5.00000000E+0	3.53390824E+0	-2.26700000E+3	6.07608214E-1
459	12/06/2023	18:11:00.688	0.00000000E+0	1.30847257E+3	5.00000000E+0	1.34606814E+0	-2.16800000E+3	2.99237196E-1
460	12/06/2023	18:11:02.495	0.00000000E+0	1.31475576E+3	5.00000000E+0	2.94677709E+0	-2.41100000E+3	5.95078572E-1
461	12/06/2023	18:11:04.424	0.00000000E+0	1.32103894E+3	5.00000000E+0	4.80135987E+0	-2.52100000E+3	6.45210220E-1
462	12/06/2023	18:11:06.357	0.00000000E+0	1.32732213E+3	5.00000000E+0	1.34798562E+0	-2.49500000E+3	3.26226946E-1
463	12/06/2023	18:11:08.267	0.00000000E+0	1.33360531E+3	5.00000000E+0	4.01020927E+0	-2.29100000E+3	3.08047639E-1
464	12/06/2023	18:11:10.176	0.00000000E+0	1.33988850E+3	5.00000000E+0	8.97762256E-1	-2.13500000E+3	5.78728064E-1
465	12/06/2023	18:11:12.181	0.00000000E+0	1.34617169E+3	5.00000000E+0	6.28203482E+0	-2.39400000E+3	6.60973936E-1
466	12/06/2023	18:11:14.256	0.00000000E+0	1.35245487E+3	5.00000000E+0	3.77551021E+0	-2.51600000E+3	6.14016528E-1
467	12/06/2023	18:11:16.131	0.00000000E+0	1.35873806E+3	5.00000000E+0	4.89608318E+0	-2.51800000E+3	3.50510631E-1
468	12/06/2023	18:11:18.125	0.00000000E+0	1.36502124E+3	5.00000000E+0	2.45743722E+0	-2.43900000E+3	6.69007688E-1
469	12/06/2023	18:11:20.111	0.00000000E+0	1.37130443E+3	5.00000000E+0	3.75288400E+0	-2.13800000E+3	4.64180689E-1
470	12/06/2023	18:11:22.117	0.00000000E+0	1.37758761E+3	5.00000000E+0	3.11014605E-1	-2.36600000E+3	4.25494179E-1
471	12/06/2023	18:11:24.065	0.00000000E+0	1.38387080E+3	5.00000000E+0	2.54103918E+0	-2.51400000E+3	3.69437948E-1
472	12/06/2023	18:11:25.895	0.00000000E+0	1.39015398E+3	5.00000000E+0	1.75717499E+0	-2.51300000E+3	4.64164288E-1
473	12/06/2023	18:11:27.805	0.00000000E+0	1.39643717E+3	5.00000000E+0	4.40597632E+0	-2.46300000E+3	3.54024573E-1
474	12/06/2023	18:11:29.821	0.00000000E+0	1.40272035E+3	5.00000000E+0	3.19834994E+0	-2.19900000E+3	3.76988743E-1
475	12/06/2023	18:11:31.649	0.00000000E+0	1.40900354E+3	5.00000000E+0	6.15011247E+0	-2.22700000E+3	5.05597128E-1
476	12/06/2023	18:11:33.655	0.00000000E+0	1.41528672E+3	5.00000000E+0	3.04188390E+0	-2.49200000E+3	2.76851216E-1
477	12/06/2023	18:11:35.576	0.00000000E+0	1.42156991E+3	5.00000000E+0	5.96641827E+0	-2.49200000E+3	6.33742809E-1
478	12/06/2023	18:11:37.582	0.00000000E+0	1.42785309E+3	5.00000000E+0	3.87100052E+0	-2.49900000E+3	3.20528223E-1
479	12/06/2023	18:11:39.601	0.00000000E+0	1.43413628E+3	5.00000000E+0	6.22681151E+0	-2.26800000E+3	5.77018929E-1
480	12/06/2023	18:11:41.468	0.00000000E+0	1.44041946E+3	5.00000000E+0	3.10401012E+0	-2.14600000E+3	2.98347268E-1
481	12/06/2023	18:11:43.485	0.00000000E+0	1.44670265E+3	5.00000000E+0	2.93028680E+0	-2.47400000E+3	3.83713609E-1
482	12/06/2023	18:11:45.633	0.00000000E+0	1.45298584E+3	5.00000000E+0	5.85673865E+0	-2.51000000E+3	6.26782568E-1
483	12/06/2023	18:11:47.521	0.00000000E+0	1.45926902E+3	5.00000000E+0	6.10946198E+0	-2.51200000E+3	6.22432815E-1
484	12/06/2023	18:11:49.436	0.00000000E+0	1.46555221E+3	5.00000000E+0	1.93358278E+0	-2.38500000E+3	5.95014672E-1
485	12/06/2023	18:11:51.322	0.00000000E+0	1.47183539E+3	5.00000000E+0	2.04211192E+0	-2.21200000E+3	3.42245914E-1
486	12/06/2023	18:11:53.174	0.00000000E+0	1.47811858E+3	5.00000000E+0	5.01956863E+0	-2.39500000E+3	5.63229187E-1
487	12/06/2023	18:11:55.094	0.00000000E+0	1.48440176E+3	5.00000000E+0	5.37161722E+0	-2.50200000E+3	5.19426516E-1
488	12/06/2023	18:11:57.028	0.00000000E+0	1.49068495E+3	5.00000000E+0	2.09081581E+0	-2.52200000E+3	3.50593935E-1
489	12/06/2023	18:11:59.471	0.00000000E+0	1.49696813E+3	5.00000000E+0	1.28854386E-1	-2.43600000E+3	3.91998138E-1
490	12/06/2023	18:12:01.529	0.00000000E+0	1.50325132E+3	5.00000000E+0	3.04495186E-1	-2.23300000E+3	4.40377270E-1
491	12/06/2023	18:12:03.477	0.00000000E+0	1.50953450E+3	5.00000000E+0	3.55231601E+0	-2.21600000E+3	3.15064609E-1
492	12/06/2023	18:12:05.539	0.00000000E+0	1.51581769E+3	5.00000000E+0	5.90697652E+0	-2.45200000E+3	4.68197973E-1
493	12/06/2023	18:12:07.476	0.00000000E+0	1.52210087E+3	5.00000000E+0	5.38235509E+0	-2.51700000E+3	5.54459527E-1
494	12/06/2023	18:12:09.468	0.00000000E+0	1.52838406E+3	5.00000000E+0	2.99663147E+0	-2.51300000E+3	5.81547012E-1
495	12/06/2023	18:12:11.571	0.00000000E+0	1.53466724E+3	5.00000000E+0	4.69666568E+0	-2.42900000E+3	3.12530571E-1
496	12/06/2023	18:12:13.396	0.00000000E+0	1.54095043E+3	5.00000000E+0	5.07057349E+0	-2.26300000E+3	6.58339714E-1
497	12/06/2023	18:12:15.423	0.00000000E+0	1.54723361E+3	5.00000000E+0	5.82529204E-1	-2.15900000E+3	6.04332533E-1
498	12/06/2023	18:12:17.340	0.00000000E+0	1.55351680E+3	5.00000000E+0	4.13676269E+0	-2.38100000E+3	6.64067643E-1
499	12/06/2023	18:12:19.118	0.00000000E+0	1.55979999E+3	5.00000000E+0	1.18308268E+0	-2.49600000E+3	3.43211262E-1
500	12/06/2023	18:12:21.183	0.00000000E+0	1.56608317E+3	5.00000000E+0	2.82827708E+0	-2.50600000E+3	4.61963832E-1
