#Iteration	Date	Time	STSX	STSY	RotationRateX	RotationRateY	FrCntX	FrCntY	TiptiltCmd1	TiptiltCmd2	TiptiltMonitor1	TiptiltMonitor2
1	12/06/2023	17:56:02.483	0.00000E+0	0.00000E+0	-1.31648E-1	-1.20073E-1	0.00000E+0	0.00000E+0	1.95541E+1	1.36222E+1	1.95540E+1	1.36221E+1
2	12/06/2023	17:56:04.335	0.00000E+0	0.00000E+0	-5.44800E-2	-1.19550E-1	0.00000E+0	0.00000E+0	1.95530E+1	1.36207E+1	1.95541E+1	1.36216E+1
3	12/06/2023	17:56:06.225	0.00000E+0	0.00000E+0	8.81844E-2	-4.14532E-3	0.00000E+0	0.00000E+0	1.95518E+1	1.36188E+1	1.95492E+1	1.36173E+1
4	12/06/2023	17:56:08.065	0.00000E+0	0.00000E+0	-1.46472E-1	-6.12117E-2	0.00000E+0	0.00000E+0	1.95573E+1	1.36230E+1	1.95598E+1	1.36209E+1
5	12/06/2023	17:56:10.098	0.00000E+0	0.00000E+0	-4.98692E-1	-3.10043E+0	0.00000E+0	0.00000E+0	1.95868E+1	1.36672E+1	1.95873E+1	1.36646E+1
6	12/06/2023	17:56:12.157	0.00000E+0	0.00000E+0	8.30078E+1	1.25178E+0	0.00000E+0	0.00000E+0	2.07358E+1	1.24787E+1	2.07364E+1	1.24802E+1
7	12/06/2023	17:56:14.160	0.00000E+0	0.00000E+0	6.95094E+1	-1.03456E-1	0.00000E+0	0.00000E+0	2.05409E+1	1.26567E+1	2.05408E+1	1.26566E+1
8	12/06/2023	17:56:16.349	0.00000E+0	0.00000E+0	-2.85020E+1	-4.53476E-1	0.00000E+0	0.00000E+0	1.91497E+1	1.40144E+1	1.91526E+1	1.40128E+1
9	12/06/2023	17:56:18.331	0.00000E+0	0.00000E+0	-4.88956E+1	4.31942E-1	0.00000E+0	0.00000E+0	1.89132E+1	1.42478E+1	1.89127E+1	1.42490E+1
10	12/06/2023	17:56:20.230	0.00000E+0	0.00000E+0	-1.06114E+2	-1.37272E+0	0.00000E+0	0.00000E+0	1.79352E+1	1.51900E+1	1.79365E+1	1.51902E+1
11	12/06/2023	17:56:22.053	0.00000E+0	0.00000E+0	1.13574E+2	5.80219E-1	0.00000E+0	0.00000E+0	2.11401E+1	1.20576E+1	2.11370E+1	1.20538E+1
12	12/06/2023	17:56:23.947	0.00000E+0	0.00000E+0	1.69265E+2	1.07297E+0	0.00000E+0	0.00000E+0	2.19625E+1	1.12504E+1	2.19649E+1	1.12520E+1
13	12/06/2023	17:56:25.837	0.00000E+0	0.00000E+0	-1.72645E+2	-2.60401E+0	0.00000E+0	0.00000E+0	1.71527E+1	1.59974E+1	1.71511E+1	1.59963E+1
14	12/06/2023	17:56:27.577	0.00000E+0	0.00000E+0	-1.40791E+2	-1.08386E+0	0.00000E+0	0.00000E+0	1.74976E+1	1.56372E+1	1.74979E+1	1.56398E+1
15	12/06/2023	17:56:29.445	0.00000E+0	0.00000E+0	7.48404E+1	-1.41656E-1	0.00000E+0	0.00000E+0	2.05748E+1	1.26211E+1	2.05771E+1	1.26205E+1
16	12/06/2023	17:56:31.209	0.00000E+0	0.00000E+0	1.18512E+2	4.79537E-1	0.00000E+0	0.00000E+0	2.12294E+1	1.20086E+1	2.12304E+1	1.20088E+1
17	12/06/2023	17:56:32.933	0.00000E+0	0.00000E+0	1.14643E+2	2.97052E-1	0.00000E+0	0.00000E+0	2.12691E+1	1.19598E+1	2.12685E+1	1.19611E+1
18	12/06/2023	17:56:34.781	0.00000E+0	0.00000E+0	-1.74023E+2	-1.78762E+0	0.00000E+0	0.00000E+0	1.70934E+1	1.60415E+1	1.70961E+1	1.60412E+1
19	12/06/2023	17:56:36.618	0.00000E+0	0.00000E+0	-7.17999E+1	-5.43954E-1	0.00000E+0	0.00000E+0	1.83594E+1	1.47969E+1	1.83589E+1	1.47990E+1
20	12/06/2023	17:56:38.550	0.00000E+0	0.00000E+0	1.32903E+2	5.01618E-1	0.00000E+0	0.00000E+0	2.14404E+1	1.17656E+1	2.14396E+1	1.17660E+1
21	12/06/2023	17:56:40.757	0.00000E+0	0.00000E+0	1.35077E+2	1.54863E+0	0.00000E+0	0.00000E+0	2.15417E+1	1.16653E+1	2.15404E+1	1.16625E+1
22	12/06/2023	17:56:42.633	0.00000E+0	0.00000E+0	-2.26278E+2	-2.56471E+0	0.00000E+0	0.00000E+0	1.63901E+1	1.67262E+1	1.63924E+1	1.67267E+1
23	12/06/2023	17:56:44.727	0.00000E+0	0.00000E+0	-1.06378E+2	-5.00619E-1	0.00000E+0	0.00000E+0	1.79987E+1	1.51557E+1	1.80015E+1	1.51564E+1
24	12/06/2023	17:56:46.738	0.00000E+0	0.00000E+0	1.22094E+2	-4.73876E-1	0.00000E+0	0.00000E+0	2.12585E+1	1.19025E+1	2.12593E+1	1.19013E+1
25	12/06/2023	17:56:48.570	0.00000E+0	0.00000E+0	1.98886E+2	9.85122E-1	0.00000E+0	0.00000E+0	2.23775E+1	1.08347E+1	2.23783E+1	1.08324E+1
26	12/06/2023	17:56:50.534	0.00000E+0	0.00000E+0	-2.60896E+1	8.05516E-1	0.00000E+0	0.00000E+0	1.93407E+1	1.38242E+1	1.93415E+1	1.38226E+1
27	12/06/2023	17:56:52.405	0.00000E+0	0.00000E+0	-2.04453E+2	-1.74714E+0	0.00000E+0	0.00000E+0	1.66904E+1	1.64634E+1	1.66900E+1	1.64653E+1
28	12/06/2023	17:56:54.264	0.00000E+0	0.00000E+0	-6.49296E+1	3.37867E-1	0.00000E+0	0.00000E+0	1.84977E+1	1.46312E+1	1.84982E+1	1.46349E+1
29	12/06/2023	17:56:56.173	0.00000E+0	0.00000E+0	1.52095E+2	2.38262E-1	0.00000E+0	0.00000E+0	2.16500E+1	1.15697E+1	2.16516E+1	1.15686E+1
30	12/06/2023	17:56:58.097	0.00000E+0	0.00000E+0	2.12047E+2	1.37571E+0	0.00000E+0	0.00000E+0	2.26224E+1	1.05898E+1	2.26220E+1	1.05927E+1
31	12/06/2023	17:57:00.040	0.00000E+0	0.00000E+0	-1.34535E+2	-1.61835E+0	0.00000E+0	0.00000E+0	1.76939E+1	1.54495E+1	1.76926E+1	1.54542E+1
32	12/06/2023	17:57:01.965	0.00000E+0	0.00000E+0	-2.24654E+2	-3.17210E+0	0.00000E+0	0.00000E+0	1.63248E+1	1.68009E+1	1.63251E+1	1.68003E+1
33	12/06/2023	17:57:03.972	0.00000E+0	0.00000E+0	1.20570E+2	2.71535E+0	0.00000E+0	0.00000E+0	2.12055E+1	1.20157E+1	2.12047E+1	1.20166E+1
34	12/06/2023	17:57:06.058	0.00000E+0	0.00000E+0	2.16456E+2	2.96398E+0	0.00000E+0	0.00000E+0	2.26482E+1	1.05843E+1	2.26500E+1	1.05839E+1
35	12/06/2023	17:57:08.057	0.00000E+0	0.00000E+0	-1.42485E+2	-1.66659E+0	0.00000E+0	0.00000E+0	1.76307E+1	1.55126E+1	1.76315E+1	1.55140E+1
36	12/06/2023	17:57:10.143	0.00000E+0	0.00000E+0	-1.95720E+2	-2.67685E+0	0.00000E+0	0.00000E+0	1.67015E+1	1.64151E+1	1.67023E+1	1.64132E+1
37	12/06/2023	17:57:12.235	0.00000E+0	0.00000E+0	1.16257E+2	2.21255E+0	0.00000E+0	0.00000E+0	2.11353E+1	1.20399E+1	2.11357E+1	1.20389E+1
38	12/06/2023	17:57:14.066	0.00000E+0	0.00000E+0	2.15045E+2	2.09137E+0	0.00000E+0	0.00000E+0	2.25989E+1	1.06298E+1	2.26016E+1	1.06317E+1
39	12/06/2023	17:57:16.020	0.00000E+0	0.00000E+0	-4.06696E+1	-5.97168E-1	0.00000E+0	0.00000E+0	1.91311E+1	1.40491E+1	1.91331E+1	1.40462E+1
40	12/06/2023	17:57:17.839	0.00000E+0	0.00000E+0	-1.99376E+2	-2.37139E+0	0.00000E+0	0.00000E+0	1.67486E+1	1.63902E+1	1.67488E+1	1.63881E+1
41	12/06/2023	17:57:19.670	0.00000E+0	0.00000E+0	-1.33826E+2	2.58773E-1	0.00000E+0	0.00000E+0	1.74948E+1	1.56724E+1	1.74977E+1	1.56710E+1
42	12/06/2023	17:57:21.741	0.00000E+0	0.00000E+0	2.02989E+2	2.29643E+0	0.00000E+0	0.00000E+0	2.24509E+1	1.07863E+1	2.24508E+1	1.07856E+1
43	12/06/2023	17:57:23.608	0.00000E+0	0.00000E+0	1.60548E+2	1.62423E+0	0.00000E+0	0.00000E+0	2.18939E+1	1.12685E+1	2.18954E+1	1.12680E+1
44	12/06/2023	17:57:25.696	0.00000E+0	0.00000E+0	-2.30406E+2	-1.82908E+0	0.00000E+0	0.00000E+0	1.63076E+1	1.68663E+1	1.63053E+1	1.68672E+1
45	12/06/2023	17:57:27.802	0.00000E+0	0.00000E+0	-9.54404E+1	-1.42942E+0	0.00000E+0	0.00000E+0	1.80473E+1	1.51031E+1	1.80485E+1	1.51028E+1
46	12/06/2023	17:57:29.791	0.00000E+0	0.00000E+0	1.98706E+2	1.98381E+0	0.00000E+0	0.00000E+0	2.23770E+1	1.08839E+1	2.23769E+1	1.08834E+1
47	12/06/2023	17:57:31.817	0.00000E+0	0.00000E+0	7.56063E+1	-8.22206E-2	0.00000E+0	0.00000E+0	2.08183E+1	1.23867E+1	2.08165E+1	1.23879E+1
48	12/06/2023	17:57:33.824	0.00000E+0	0.00000E+0	-2.23869E+2	-1.91100E+0	0.00000E+0	0.00000E+0	1.63421E+1	1.67361E+1	1.63403E+1	1.67355E+1
49	12/06/2023	17:57:35.812	0.00000E+0	0.00000E+0	-5.98611E+1	7.78639E-1	0.00000E+0	0.00000E+0	1.84487E+1	1.46871E+1	1.84506E+1	1.46862E+1
50	12/06/2023	17:57:37.716	0.00000E+0	0.00000E+0	2.30228E+2	4.65453E-1	0.00000E+0	0.00000E+0	2.28278E+1	1.04198E+1	2.28260E+1	1.04212E+1
51	12/06/2023	17:57:39.653	0.00000E+0	0.00000E+0	7.59629E+0	4.91542E-1	0.00000E+0	0.00000E+0	1.98388E+1	1.33615E+1	1.98371E+1	1.33620E+1
52	12/06/2023	17:57:41.542	0.00000E+0	0.00000E+0	-2.08618E+2	-9.85063E-1	0.00000E+0	0.00000E+0	1.65653E+1	1.65242E+1	1.65638E+1	1.65229E+1
53	12/06/2023	17:57:43.375	0.00000E+0	0.00000E+0	-8.69813E+1	-1.34144E-1	0.00000E+0	0.00000E+0	1.81623E+1	1.50095E+1	1.81632E+1	1.50126E+1
54	12/06/2023	17:57:45.380	0.00000E+0	0.00000E+0	2.04840E+2	2.51938E+0	0.00000E+0	0.00000E+0	2.24384E+1	1.07531E+1	2.24365E+1	1.07510E+1
55	12/06/2023	17:57:47.402	0.00000E+0	0.00000E+0	1.24916E+2	1.79476E+0	0.00000E+0	0.00000E+0	2.14822E+1	1.17725E+1	2.14805E+1	1.17725E+1
56	12/06/2023	17:57:49.397	0.00000E+0	0.00000E+0	-2.28149E+2	-1.62075E+0	0.00000E+0	0.00000E+0	1.63120E+1	1.68118E+1	1.63138E+1	1.68107E+1
57	12/06/2023	17:57:51.431	0.00000E+0	0.00000E+0	-3.93955E+1	-1.26823E+0	0.00000E+0	0.00000E+0	1.88079E+1	1.43860E+1	1.88075E+1	1.43866E+1
58	12/06/2023	17:57:53.442	0.00000E+0	0.00000E+0	2.23297E+2	1.97645E+0	0.00000E+0	0.00000E+0	2.27457E+1	1.04917E+1	2.27444E+1	1.04935E+1
59	12/06/2023	17:57:55.450	0.00000E+0	0.00000E+0	-1.14584E+2	-7.17530E-1	0.00000E+0	0.00000E+0	1.80336E+1	1.51094E+1	1.80358E+1	1.51084E+1
60	12/06/2023	17:57:57.461	0.00000E+0	0.00000E+0	-2.02912E+2	-2.39979E+0	0.00000E+0	0.00000E+0	1.65496E+1	1.65482E+1	1.65491E+1	1.65492E+1
61	12/06/2023	17:57:59.425	0.00000E+0	0.00000E+0	1.40808E+2	-4.11601E-1	0.00000E+0	0.00000E+0	2.14686E+1	1.17434E+1	2.14673E+1	1.17440E+1
62	12/06/2023	17:58:01.323	0.00000E+0	0.00000E+0	1.92332E+2	1.77755E+0	0.00000E+0	0.00000E+0	2.23215E+1	1.09076E+1	2.23211E+1	1.09067E+1
63	12/06/2023	17:58:03.331	0.00000E+0	0.00000E+0	-1.75407E+2	-1.68802E+0	0.00000E+0	0.00000E+0	1.70927E+1	1.60496E+1	1.70935E+1	1.60515E+1
64	12/06/2023	17:58:05.079	0.00000E+0	0.00000E+0	-2.26525E+2	-2.15551E-1	0.00000E+0	0.00000E+0	1.62645E+1	1.68901E+1	1.62645E+1	1.68916E+1
65	12/06/2023	17:58:06.897	0.00000E+0	0.00000E+0	1.48886E+2	1.97979E+0	0.00000E+0	0.00000E+0	2.16043E+1	1.15968E+1	2.16082E+1	1.15939E+1
66	12/06/2023	17:58:08.857	0.00000E+0	0.00000E+0	2.37888E+2	2.12533E+0	0.00000E+0	0.00000E+0	2.29508E+1	1.02911E+1	2.29477E+1	1.02900E+1
67	12/06/2023	17:58:10.737	0.00000E+0	0.00000E+0	-1.66883E+2	-2.14884E+0	0.00000E+0	0.00000E+0	1.72227E+1	1.59153E+1	1.72253E+1	1.59165E+1
68	12/06/2023	17:58:12.821	0.00000E+0	0.00000E+0	-2.28113E+2	1.48871E+0	0.00000E+0	0.00000E+0	1.62816E+1	1.68618E+1	1.62829E+1	1.68639E+1
69	12/06/2023	17:58:14.826	0.00000E+0	0.00000E+0	2.16588E+2	1.03663E+0	0.00000E+0	0.00000E+0	2.25924E+1	1.06327E+1	2.25928E+1	1.06309E+1
70	12/06/2023	17:58:16.995	0.00000E+0	0.00000E+0	1.57526E+2	2.32134E+0	0.00000E+0	0.00000E+0	2.18631E+1	1.13624E+1	2.18635E+1	1.13626E+1
71	12/06/2023	17:58:19.036	0.00000E+0	0.00000E+0	-2.21786E+2	-1.38065E+0	0.00000E+0	0.00000E+0	1.64386E+1	1.67026E+1	1.64397E+1	1.67047E+1
72	12/06/2023	17:58:20.971	0.00000E+0	0.00000E+0	-1.44586E+2	-2.89853E-1	0.00000E+0	0.00000E+0	1.74185E+1	1.57629E+1	1.74180E+1	1.57652E+1
73	12/06/2023	17:58:22.789	0.00000E+0	0.00000E+0	2.26202E+2	2.03152E+0	0.00000E+0	0.00000E+0	2.27663E+1	1.04812E+1	2.27682E+1	1.04796E+1
74	12/06/2023	17:58:24.751	0.00000E+0	0.00000E+0	1.57206E+2	3.62723E+0	0.00000E+0	0.00000E+0	2.19289E+1	1.13086E+1	2.19310E+1	1.13080E+1
75	12/06/2023	17:58:26.539	0.00000E+0	0.00000E+0	-2.29323E+2	-1.38514E+0	0.00000E+0	0.00000E+0	1.63760E+1	1.67583E+1	1.63762E+1	1.67566E+1
76	12/06/2023	17:58:28.523	0.00000E+0	0.00000E+0	-1.58816E+2	-1.15070E+0	0.00000E+0	0.00000E+0	1.71942E+1	1.59606E+1	1.71958E+1	1.59599E+1
77	12/06/2023	17:58:30.370	0.00000E+0	0.00000E+0	2.06264E+2	9.03653E-1	0.00000E+0	0.00000E+0	2.24994E+1	1.07552E+1	2.24981E+1	1.07561E+1
78	12/06/2023	17:58:32.440	0.00000E+0	0.00000E+0	1.56812E+2	1.53291E+0	0.00000E+0	0.00000E+0	2.18537E+1	1.13577E+1	2.18544E+1	1.13574E+1
79	12/06/2023	17:58:34.392	0.00000E+0	0.00000E+0	-2.12375E+2	-2.28934E+0	0.00000E+0	0.00000E+0	1.65445E+1	1.65592E+1	1.65453E+1	1.65573E+1
80	12/06/2023	17:58:36.397	0.00000E+0	0.00000E+0	-1.67385E+2	-2.10322E+0	0.00000E+0	0.00000E+0	1.70679E+1	1.60329E+1	1.70697E+1	1.60334E+1
81	12/06/2023	17:58:38.439	0.00000E+0	0.00000E+0	1.77009E+2	1.85263E+0	0.00000E+0	0.00000E+0	2.20332E+1	1.11240E+1	2.20320E+1	1.11234E+1
82	12/06/2023	17:58:40.295	0.00000E+0	0.00000E+0	1.37508E+2	1.05878E+0	0.00000E+0	0.00000E+0	2.16648E+1	1.15305E+1	2.16662E+1	1.15306E+1
83	12/06/2023	17:58:42.263	0.00000E+0	0.00000E+0	-2.29087E+2	-8.43832E-1	0.00000E+0	0.00000E+0	1.62759E+1	1.67833E+1	1.62743E+1	1.67830E+1
84	12/06/2023	17:58:44.275	0.00000E+0	0.00000E+0	5.95826E+1	-6.33489E-1	0.00000E+0	0.00000E+0	2.02902E+1	1.29737E+1	2.02914E+1	1.29713E+1
85	12/06/2023	17:58:46.122	0.00000E+0	0.00000E+0	2.28728E+2	2.26766E+0	0.00000E+0	0.00000E+0	2.27823E+1	1.04786E+1	2.27800E+1	1.04762E+1
86	12/06/2023	17:58:48.152	0.00000E+0	0.00000E+0	-1.46097E+2	-3.08928E+0	0.00000E+0	0.00000E+0	1.75789E+1	1.55621E+1	1.75808E+1	1.55633E+1
87	12/06/2023	17:58:50.007	0.00000E+0	0.00000E+0	-2.49458E+2	-2.16435E+0	0.00000E+0	0.00000E+0	1.59749E+1	1.71719E+1	1.59747E+1	1.71728E+1
88	12/06/2023	17:58:52.033	0.00000E+0	0.00000E+0	1.71698E+2	1.44205E+0	0.00000E+0	0.00000E+0	2.19671E+1	1.12734E+1	2.19654E+1	1.12726E+1
89	12/06/2023	17:58:53.940	0.00000E+0	0.00000E+0	2.37439E+2	1.92227E+0	0.00000E+0	0.00000E+0	2.29783E+1	1.02581E+1	2.29805E+1	1.02569E+1
90	12/06/2023	17:58:55.882	0.00000E+0	0.00000E+0	-1.70682E+2	-6.15548E-1	0.00000E+0	0.00000E+0	1.71398E+1	1.59507E+1	1.71392E+1	1.59513E+1
91	12/06/2023	17:58:57.884	0.00000E+0	0.00000E+0	-2.07064E+2	-8.71674E-1	0.00000E+0	0.00000E+0	1.65620E+1	1.65438E+1	1.65587E+1	1.65472E+1
92	12/06/2023	17:58:59.891	0.00000E+0	0.00000E+0	1.95343E+2	1.80467E+0	0.00000E+0	0.00000E+0	2.23071E+1	1.09119E+1	2.23064E+1	1.09104E+1
93	12/06/2023	17:59:01.825	0.00000E+0	0.00000E+0	1.99746E+2	2.00630E+0	0.00000E+0	0.00000E+0	2.25662E+1	1.06653E+1	2.25672E+1	1.06629E+1
94	12/06/2023	17:59:03.831	0.00000E+0	0.00000E+0	-2.31465E+2	-2.25637E+0	0.00000E+0	0.00000E+0	1.62587E+1	1.68527E+1	1.62584E+1	1.68543E+1
95	12/06/2023	17:59:05.764	0.00000E+0	0.00000E+0	-1.01034E+2	-3.82381E-1	0.00000E+0	0.00000E+0	1.78945E+1	1.51972E+1	1.78937E+1	1.51972E+1
96	12/06/2023	17:59:07.743	0.00000E+0	0.00000E+0	2.20637E+2	1.45435E+0	0.00000E+0	0.00000E+0	2.27165E+1	1.05109E+1	2.27156E+1	1.05111E+1
97	12/06/2023	17:59:09.830	0.00000E+0	0.00000E+0	7.81128E+1	1.46331E+0	0.00000E+0	0.00000E+0	2.08374E+1	1.23668E+1	2.08350E+1	1.23673E+1
98	12/06/2023	17:59:11.783	0.00000E+0	0.00000E+0	-2.48184E+2	-2.98604E+0	0.00000E+0	0.00000E+0	1.60403E+1	1.70612E+1	1.60422E+1	1.70610E+1
99	12/06/2023	17:59:13.803	0.00000E+0	0.00000E+0	-3.75176E+1	-1.39968E+0	0.00000E+0	0.00000E+0	1.87573E+1	1.43965E+1	1.87587E+1	1.43948E+1
100	12/06/2023	17:59:15.590	0.00000E+0	0.00000E+0	2.42257E+2	9.34762E-1	0.00000E+0	0.00000E+0	2.29552E+1	1.02795E+1	2.29522E+1	1.02783E+1
101	12/06/2023	17:59:17.362	0.00000E+0	0.00000E+0	1.17975E+1	-5.15664E-1	0.00000E+0	0.00000E+0	1.99502E+1	1.32415E+1	1.99521E+1	1.32416E+1
102	12/06/2023	17:59:19.359	0.00000E+0	0.00000E+0	-2.16368E+2	-1.50856E+0	0.00000E+0	0.00000E+0	1.64699E+1	1.66388E+1	1.64684E+1	1.66385E+1
103	12/06/2023	17:59:21.213	0.00000E+0	0.00000E+0	4.21330E+1	2.24750E+0	0.00000E+0	0.00000E+0	1.99947E+1	1.31681E+1	1.99955E+1	1.31687E+1
104	12/06/2023	17:59:23.388	0.00000E+0	0.00000E+0	2.51757E+2	2.44400E+0	0.00000E+0	0.00000E+0	2.32028E+1	1.00629E+1	2.32055E+1	1.00651E+1
105	12/06/2023	17:59:25.338	0.00000E+0	0.00000E+0	-1.22769E+2	-1.00023E+0	0.00000E+0	0.00000E+0	1.79140E+1	1.52442E+1	1.79154E+1	1.52465E+1
106	12/06/2023	17:59:27.401	0.00000E+0	0.00000E+0	-2.41521E+2	-6.20881E-1	0.00000E+0	0.00000E+0	1.61052E+1	1.70195E+1	1.61054E+1	1.70177E+1
107	12/06/2023	17:59:29.492	0.00000E+0	0.00000E+0	2.14695E+2	1.76708E+0	0.00000E+0	0.00000E+0	2.25446E+1	1.06410E+1	2.25442E+1	1.06409E+1
108	12/06/2023	17:59:31.495	0.00000E+0	0.00000E+0	1.82741E+2	1.99741E+0	0.00000E+0	0.00000E+0	2.22788E+1	1.09771E+1	2.22768E+1	1.09782E+1
109	12/06/2023	17:59:33.502	0.00000E+0	0.00000E+0	-2.14686E+2	-1.56130E+0	0.00000E+0	0.00000E+0	1.65126E+1	1.65835E+1	1.65129E+1	1.65837E+1
110	12/06/2023	17:59:35.527	0.00000E+0	0.00000E+0	-1.77925E+2	-2.00722E+0	0.00000E+0	0.00000E+0	1.69531E+1	1.61929E+1	1.69539E+1	1.61930E+1
111	12/06/2023	17:59:37.358	0.00000E+0	0.00000E+0	2.17830E+2	2.99468E+0	0.00000E+0	0.00000E+0	2.25907E+1	1.05951E+1	2.25905E+1	1.05937E+1
112	12/06/2023	17:59:39.201	0.00000E+0	0.00000E+0	2.14011E+2	2.72169E+0	0.00000E+0	0.00000E+0	2.26635E+1	1.05513E+1	2.26650E+1	1.05515E+1
113	12/06/2023	17:59:40.953	0.00000E+0	0.00000E+0	-1.64277E+2	-1.36156E+0	0.00000E+0	0.00000E+0	1.72975E+1	1.58303E+1	1.72969E+1	1.58303E+1
114	12/06/2023	17:59:42.946	0.00000E+0	0.00000E+0	-2.12742E+2	-6.37957E-1	0.00000E+0	0.00000E+0	1.64880E+1	1.65986E+1	1.64875E+1	1.65988E+1
115	12/06/2023	17:59:44.963	0.00000E+0	0.00000E+0	1.54966E+2	-4.45542E-1	0.00000E+0	0.00000E+0	2.16788E+1	1.15173E+1	2.16809E+1	1.15169E+1
116	12/06/2023	17:59:47.019	0.00000E+0	0.00000E+0	2.25913E+2	2.06030E+0	0.00000E+0	0.00000E+0	2.28063E+1	1.04038E+1	2.28064E+1	1.04063E+1
117	12/06/2023	17:59:49.006	0.00000E+0	0.00000E+0	-1.71567E+2	-1.61670E+0	0.00000E+0	0.00000E+0	1.72254E+1	1.59039E+1	1.72243E+1	1.59066E+1
118	12/06/2023	17:59:51.140	0.00000E+0	0.00000E+0	-2.14605E+2	-2.55287E+0	0.00000E+0	0.00000E+0	1.64356E+1	1.66461E+1	1.64377E+1	1.66469E+1
119	12/06/2023	17:59:53.114	0.00000E+0	0.00000E+0	1.70708E+2	2.82967E-1	0.00000E+0	0.00000E+0	2.18893E+1	1.12976E+1	2.18895E+1	1.12976E+1
120	12/06/2023	17:59:55.178	0.00000E+0	0.00000E+0	2.26460E+2	1.49159E+0	0.00000E+0	0.00000E+0	2.28041E+1	1.04157E+1	2.28053E+1	1.04136E+1
121	12/06/2023	17:59:57.131	0.00000E+0	0.00000E+0	-2.11880E+2	-1.13740E+0	0.00000E+0	0.00000E+0	1.65968E+1	1.65528E+1	1.65971E+1	1.65518E+1
122	12/06/2023	17:59:59.009	0.00000E+0	0.00000E+0	-2.43301E+2	-2.15514E+0	0.00000E+0	0.00000E+0	1.59926E+1	1.70934E+1	1.59916E+1	1.70922E+1
123	12/06/2023	18:00:01.029	0.00000E+0	0.00000E+0	1.02238E+2	6.40353E-2	0.00000E+0	0.00000E+0	2.09234E+1	1.23301E+1	2.09256E+1	1.23295E+1
124	12/06/2023	18:00:03.026	0.00000E+0	0.00000E+0	1.90653E+2	2.82447E+0	0.00000E+0	0.00000E+0	2.23129E+1	1.09559E+1	2.23161E+1	1.09556E+1
125	12/06/2023	18:00:04.924	0.00000E+0	0.00000E+0	-5.19143E+1	1.01388E+0	0.00000E+0	0.00000E+0	1.88675E+1	1.42936E+1	1.88677E+1	1.42938E+1
126	12/06/2023	18:00:06.936	0.00000E+0	0.00000E+0	-1.95427E+2	-1.03259E+0	0.00000E+0	0.00000E+0	1.67935E+1	1.63176E+1	1.67917E+1	1.63180E+1
127	12/06/2023	18:00:08.863	0.00000E+0	0.00000E+0	2.34589E+1	1.32867E+0	0.00000E+0	0.00000E+0	1.98046E+1	1.34351E+1	1.98053E+1	1.34344E+1
128	12/06/2023	18:00:10.885	0.00000E+0	0.00000E+0	1.59241E+2	2.29784E+0	0.00000E+0	0.00000E+0	2.18280E+1	1.14012E+1	2.18288E+1	1.14002E+1
129	12/06/2023	18:00:12.839	0.00000E+0	0.00000E+0	1.36867E+2	5.34255E-1	0.00000E+0	0.00000E+0	2.15646E+1	1.16665E+1	2.15656E+1	1.16657E+1
130	12/06/2023	18:00:14.833	0.00000E+0	0.00000E+0	-1.55969E+2	-1.02225E+0	0.00000E+0	0.00000E+0	1.73562E+1	1.57616E+1	1.73572E+1	1.57636E+1
131	12/06/2023	18:00:16.942	0.00000E+0	0.00000E+0	-1.71423E+2	-1.32529E+0	0.00000E+0	0.00000E+0	1.70369E+1	1.60310E+1	1.70357E+1	1.60329E+1
132	12/06/2023	18:00:18.946	0.00000E+0	0.00000E+0	1.06792E+2	1.33765E+0	0.00000E+0	0.00000E+0	2.10287E+1	1.21721E+1	2.10301E+1	1.21743E+1
133	12/06/2023	18:00:21.012	0.00000E+0	0.00000E+0	2.03137E+2	1.61144E+0	0.00000E+0	0.00000E+0	2.24707E+1	1.07244E+1	2.24709E+1	1.07264E+1
134	12/06/2023	18:00:22.945	0.00000E+0	0.00000E+0	-6.00827E+1	7.39952E-1	0.00000E+0	0.00000E+0	1.89191E+1	1.42762E+1	1.89183E+1	1.42785E+1
135	12/06/2023	18:00:24.876	0.00000E+0	0.00000E+0	-2.25691E+2	-1.73258E+0	0.00000E+0	0.00000E+0	1.63081E+1	1.68272E+1	1.63078E+1	1.68266E+1
136	12/06/2023	18:00:26.765	0.00000E+0	0.00000E+0	-1.06802E+1	1.23052E+0	0.00000E+0	0.00000E+0	1.92477E+1	1.39192E+1	1.92463E+1	1.39199E+1
137	12/06/2023	18:00:28.613	0.00000E+0	0.00000E+0	1.80271E+2	1.42323E+0	0.00000E+0	0.00000E+0	2.21168E+1	1.11025E+1	2.21180E+1	1.11007E+1
138	12/06/2023	18:00:30.429	0.00000E+0	0.00000E+0	1.80302E+2	2.26729E+0	0.00000E+0	0.00000E+0	2.21368E+1	1.10695E+1	2.21356E+1	1.10692E+1
139	12/06/2023	18:00:32.438	0.00000E+0	0.00000E+0	-1.89755E+2	-1.65418E+0	0.00000E+0	0.00000E+0	1.68850E+1	1.62645E+1	1.68820E+1	1.62652E+1
140	12/06/2023	18:00:34.440	0.00000E+0	0.00000E+0	-1.83224E+2	-1.90319E+0	0.00000E+0	0.00000E+0	1.68788E+1	1.62141E+1	1.68781E+1	1.62150E+1
141	12/06/2023	18:00:36.559	0.00000E+0	0.00000E+0	1.67221E+2	2.88342E+0	0.00000E+0	0.00000E+0	2.18668E+1	1.13378E+1	2.18712E+1	1.13366E+1
142	12/06/2023	18:00:38.486	0.00000E+0	0.00000E+0	1.99252E+2	1.47616E+0	0.00000E+0	0.00000E+0	2.24187E+1	1.08294E+1	2.24183E+1	1.08305E+1
143	12/06/2023	18:00:40.516	0.00000E+0	0.00000E+0	-1.30598E+2	-1.88210E+0	0.00000E+0	0.00000E+0	1.77878E+1	1.53628E+1	1.77883E+1	1.53629E+1
144	12/06/2023	18:00:42.665	0.00000E+0	0.00000E+0	-1.84576E+2	-2.42482E+0	0.00000E+0	0.00000E+0	1.68926E+1	1.62284E+1	1.68910E+1	1.62280E+1
145	12/06/2023	18:00:44.659	0.00000E+0	0.00000E+0	3.21653E+1	-7.48613E-1	0.00000E+0	0.00000E+0	1.98689E+1	1.33493E+1	1.98726E+1	1.33514E+1
146	12/06/2023	18:00:46.586	0.00000E+0	0.00000E+0	1.84833E+2	1.87193E+0	0.00000E+0	0.00000E+0	2.22102E+1	1.10488E+1	2.22096E+1	1.10482E+1
147	12/06/2023	18:00:48.436	0.00000E+0	0.00000E+0	1.67070E+2	1.09505E+0	0.00000E+0	0.00000E+0	2.20107E+1	1.12557E+1	2.20127E+1	1.12571E+1
148	12/06/2023	18:00:50.299	0.00000E+0	0.00000E+0	-1.53410E+2	-2.13548E+0	0.00000E+0	0.00000E+0	1.73987E+1	1.57228E+1	1.73974E+1	1.57238E+1
149	12/06/2023	18:00:52.169	0.00000E+0	0.00000E+0	-1.86374E+2	-2.04684E+0	0.00000E+0	0.00000E+0	1.69009E+1	1.62315E+1	1.69035E+1	1.62329E+1
150	12/06/2023	18:00:54.002	0.00000E+0	0.00000E+0	-6.11063E+0	-6.34856E-1	0.00000E+0	0.00000E+0	1.92534E+1	1.39121E+1	1.92556E+1	1.39138E+1
151	12/06/2023	18:00:56.022	0.00000E+0	0.00000E+0	1.87967E+2	2.20225E+0	0.00000E+0	0.00000E+0	2.22511E+1	1.10103E+1	2.22491E+1	1.10089E+1
152	12/06/2023	18:00:58.129	0.00000E+0	0.00000E+0	1.53900E+2	2.40110E+0	0.00000E+0	0.00000E+0	2.18137E+1	1.13644E+1	2.18124E+1	1.13665E+1
153	12/06/2023	18:01:00.134	0.00000E+0	0.00000E+0	-1.74820E+2	-1.86887E+0	0.00000E+0	0.00000E+0	1.71016E+1	1.60412E+1	1.71018E+1	1.60414E+1
154	12/06/2023	18:01:02.169	0.00000E+0	0.00000E+0	-2.00561E+2	-2.53585E+0	0.00000E+0	0.00000E+0	1.66063E+1	1.64751E+1	1.66053E+1	1.64711E+1
155	12/06/2023	18:01:04.171	0.00000E+0	0.00000E+0	1.30243E+2	1.11571E+0	0.00000E+0	0.00000E+0	2.13248E+1	1.18975E+1	2.13226E+1	1.18970E+1
156	12/06/2023	18:01:06.090	0.00000E+0	0.00000E+0	1.98142E+2	1.41770E+0	0.00000E+0	0.00000E+0	2.23760E+1	1.08432E+1	2.23791E+1	1.08425E+1
157	12/06/2023	18:01:08.227	0.00000E+0	0.00000E+0	1.76704E+1	-5.97679E-2	0.00000E+0	0.00000E+0	1.99317E+1	1.32311E+1	1.99301E+1	1.32284E+1
158	12/06/2023	18:01:10.170	0.00000E+0	0.00000E+0	-1.84983E+2	-1.82859E+0	0.00000E+0	0.00000E+0	1.69477E+1	1.62031E+1	1.69491E+1	1.62031E+1
159	12/06/2023	18:01:12.135	0.00000E+0	0.00000E+0	-1.69657E+2	-3.90214E-1	0.00000E+0	0.00000E+0	1.71151E+1	1.60639E+1	1.71171E+1	1.60636E+1
160	12/06/2023	18:01:14.088	0.00000E+0	0.00000E+0	1.71049E+2	2.43176E+0	0.00000E+0	0.00000E+0	2.19635E+1	1.12714E+1	2.19652E+1	1.12707E+1
161	12/06/2023	18:01:15.927	0.00000E+0	0.00000E+0	1.89099E+2	2.49578E+0	0.00000E+0	0.00000E+0	2.22605E+1	1.09280E+1	2.22604E+1	1.09304E+1
162	12/06/2023	18:01:17.778	0.00000E+0	0.00000E+0	-1.37023E+1	6.45100E-1	0.00000E+0	0.00000E+0	1.94623E+1	1.37015E+1	1.94628E+1	1.37015E+1
163	12/06/2023	18:01:19.769	0.00000E+0	0.00000E+0	-2.03243E+2	-9.46870E-1	0.00000E+0	0.00000E+0	1.66456E+1	1.64745E+1	1.66439E+1	1.64747E+1
164	12/06/2023	18:01:21.704	0.00000E+0	0.00000E+0	-1.48387E+2	-2.04135E+0	0.00000E+0	0.00000E+0	1.73690E+1	1.57598E+1	1.73702E+1	1.57584E+1
165	12/06/2023	18:01:23.805	0.00000E+0	0.00000E+0	1.68491E+2	5.92638E-1	0.00000E+0	0.00000E+0	2.19034E+1	1.13084E+1	2.19028E+1	1.13076E+1
166	12/06/2023	18:01:25.740	0.00000E+0	0.00000E+0	1.94247E+2	2.18657E+0	0.00000E+0	0.00000E+0	2.23189E+1	1.08997E+1	2.23185E+1	1.09007E+1
167	12/06/2023	18:01:27.827	0.00000E+0	0.00000E+0	-6.86570E+1	-1.71344E+0	0.00000E+0	0.00000E+0	1.87019E+1	1.44725E+1	1.87016E+1	1.44694E+1
168	12/06/2023	18:01:29.825	0.00000E+0	0.00000E+0	-1.99037E+2	-1.45844E+0	0.00000E+0	0.00000E+0	1.67208E+1	1.63968E+1	1.67203E+1	1.63979E+1
169	12/06/2023	18:01:31.691	0.00000E+0	0.00000E+0	-1.65328E+2	-1.30357E+0	0.00000E+0	0.00000E+0	1.71722E+1	1.59877E+1	1.71721E+1	1.59881E+1
170	12/06/2023	18:01:33.842	0.00000E+0	0.00000E+0	1.80678E+2	6.15196E-1	0.00000E+0	0.00000E+0	2.20782E+1	1.11165E+1	2.20792E+1	1.11173E+1
171	12/06/2023	18:01:35.667	0.00000E+0	0.00000E+0	2.11780E+2	1.85034E+0	0.00000E+0	0.00000E+0	2.25684E+1	1.06517E+1	2.25685E+1	1.06496E+1
172	12/06/2023	18:01:37.534	0.00000E+0	0.00000E+0	1.44921E+1	-1.33451E+0	0.00000E+0	0.00000E+0	1.99574E+1	1.32283E+1	1.99585E+1	1.32262E+1
173	12/06/2023	18:01:39.436	0.00000E+0	0.00000E+0	-1.97050E+2	-8.27949E-1	0.00000E+0	0.00000E+0	1.67631E+1	1.64072E+1	1.67636E+1	1.64076E+1
174	12/06/2023	18:01:41.277	0.00000E+0	0.00000E+0	-1.87945E+2	-1.19504E+0	0.00000E+0	0.00000E+0	1.68931E+1	1.62809E+1	1.68921E+1	1.62825E+1
175	12/06/2023	18:01:43.277	0.00000E+0	0.00000E+0	1.28764E+2	1.21061E+0	0.00000E+0	0.00000E+0	2.12934E+1	1.18884E+1	2.12931E+1	1.18888E+1
176	12/06/2023	18:01:45.187	0.00000E+0	0.00000E+0	1.82504E+2	9.15530E-1	0.00000E+0	0.00000E+0	2.21900E+1	1.10498E+1	2.21901E+1	1.10509E+1
177	12/06/2023	18:01:47.208	0.00000E+0	0.00000E+0	6.51532E+1	3.26219E-1	0.00000E+0	0.00000E+0	2.06649E+1	1.25353E+1	2.06646E+1	1.25347E+1
178	12/06/2023	18:01:49.283	0.00000E+0	0.00000E+0	-2.23306E+2	-2.30634E+0	0.00000E+0	0.00000E+0	1.64073E+1	1.67264E+1	1.64112E+1	1.67253E+1
179	12/06/2023	18:01:51.279	0.00000E+0	0.00000E+0	-6.07628E+1	-5.71227E-1	0.00000E+0	0.00000E+0	1.84723E+1	1.46916E+1	1.84721E+1	1.46920E+1
180	12/06/2023	18:01:53.269	0.00000E+0	0.00000E+0	1.40342E+2	-1.23973E+0	0.00000E+0	0.00000E+0	2.15560E+1	1.16315E+1	2.15550E+1	1.16317E+1
181	12/06/2023	18:01:55.323	0.00000E+0	0.00000E+0	1.78880E+2	1.12483E+0	0.00000E+0	0.00000E+0	2.21695E+1	1.10767E+1	2.21698E+1	1.10791E+1
182	12/06/2023	18:01:57.326	0.00000E+0	0.00000E+0	-1.50606E+2	-1.97761E+0	0.00000E+0	0.00000E+0	1.74378E+1	1.56996E+1	1.74367E+1	1.57012E+1
183	12/06/2023	18:01:59.207	0.00000E+0	0.00000E+0	-2.13991E+2	-3.13378E+0	0.00000E+0	0.00000E+0	1.65646E+1	1.65824E+1	1.65640E+1	1.65847E+1
184	12/06/2023	18:02:01.064	0.00000E+0	0.00000E+0	8.67546E+1	-4.76026E-1	0.00000E+0	0.00000E+0	2.06105E+1	1.25519E+1	2.06097E+1	1.25507E+1
185	12/06/2023	18:02:02.823	0.00000E+0	0.00000E+0	1.98179E+2	2.04795E+0	0.00000E+0	0.00000E+0	2.24080E+1	1.07885E+1	2.24080E+1	1.07885E+1
186	12/06/2023	18:02:04.742	0.00000E+0	0.00000E+0	1.57818E+2	2.53123E+0	0.00000E+0	0.00000E+0	2.18577E+1	1.13653E+1	2.18572E+1	1.13623E+1
187	12/06/2023	18:02:06.720	0.00000E+0	0.00000E+0	-1.50391E+2	-1.29467E+0	0.00000E+0	0.00000E+0	1.74390E+1	1.57106E+1	1.74374E+1	1.57111E+1
188	12/06/2023	18:02:08.750	0.00000E+0	0.00000E+0	-1.63727E+2	-1.62241E+0	0.00000E+0	0.00000E+0	1.72240E+1	1.59010E+1	1.72241E+1	1.59014E+1
189	12/06/2023	18:02:10.815	0.00000E+0	0.00000E+0	5.18842E+1	2.42077E+0	0.00000E+0	0.00000E+0	2.01976E+1	1.30088E+1	2.01989E+1	1.30103E+1
190	12/06/2023	18:02:12.770	0.00000E+0	0.00000E+0	1.56645E+2	1.63796E+0	0.00000E+0	0.00000E+0	2.17726E+1	1.14290E+1	2.17728E+1	1.14286E+1
191	12/06/2023	18:02:14.896	0.00000E+0	0.00000E+0	1.56876E+2	-6.99010E-3	0.00000E+0	0.00000E+0	2.18240E+1	1.14017E+1	2.18254E+1	1.14039E+1
192	12/06/2023	18:02:16.780	0.00000E+0	0.00000E+0	-1.46197E+2	-1.28346E+0	0.00000E+0	0.00000E+0	1.75081E+1	1.56150E+1	1.75073E+1	1.56141E+1
193	12/06/2023	18:02:18.746	0.00000E+0	0.00000E+0	-1.77065E+2	-1.79065E+0	0.00000E+0	0.00000E+0	1.70267E+1	1.61035E+1	1.70282E+1	1.61054E+1
194	12/06/2023	18:02:20.775	0.00000E+0	0.00000E+0	-3.89590E+1	-1.40411E+0	0.00000E+0	0.00000E+0	1.88629E+1	1.43073E+1	1.88628E+1	1.43101E+1
195	12/06/2023	18:02:22.600	0.00000E+0	0.00000E+0	1.44277E+2	2.30583E+0	0.00000E+0	0.00000E+0	2.15948E+1	1.16282E+1	2.15959E+1	1.16304E+1
196	12/06/2023	18:02:24.594	0.00000E+0	0.00000E+0	1.91714E+2	1.20631E+0	0.00000E+0	0.00000E+0	2.22953E+1	1.09082E+1	2.22998E+1	1.09090E+1
197	12/06/2023	18:02:26.437	0.00000E+0	0.00000E+0	-8.58200E+1	-2.68051E+0	0.00000E+0	0.00000E+0	1.84089E+1	1.47608E+1	1.84087E+1	1.47618E+1
198	12/06/2023	18:02:28.360	0.00000E+0	0.00000E+0	-1.99492E+2	-1.13431E+0	0.00000E+0	0.00000E+0	1.67360E+1	1.63987E+1	1.67344E+1	1.63993E+1
199	12/06/2023	18:02:30.397	0.00000E+0	0.00000E+0	-8.76795E+1	-1.03064E+0	0.00000E+0	0.00000E+0	1.81885E+1	1.49247E+1	1.81889E+1	1.49256E+1
200	12/06/2023	18:02:32.376	0.00000E+0	0.00000E+0	1.47227E+2	6.38147E-1	0.00000E+0	0.00000E+0	2.16784E+1	1.15554E+1	2.16772E+1	1.15557E+1
201	12/06/2023	18:02:34.441	0.00000E+0	0.00000E+0	1.69920E+2	2.89126E+0	0.00000E+0	0.00000E+0	2.20111E+1	1.12082E+1	2.20109E+1	1.12072E+1
202	12/06/2023	18:02:36.459	0.00000E+0	0.00000E+0	-9.26931E+1	6.33730E-1	0.00000E+0	0.00000E+0	1.83064E+1	1.48395E+1	1.83067E+1	1.48402E+1
203	12/06/2023	18:02:38.465	0.00000E+0	0.00000E+0	-1.84938E+2	-2.03960E+0	0.00000E+0	0.00000E+0	1.68935E+1	1.62099E+1	1.68947E+1	1.62092E+1
204	12/06/2023	18:02:40.389	0.00000E+0	0.00000E+0	-1.03919E+2	-9.83543E-1	0.00000E+0	0.00000E+0	1.80541E+1	1.51359E+1	1.80522E+1	1.51368E+1
205	12/06/2023	18:02:42.389	0.00000E+0	0.00000E+0	1.63282E+2	1.76585E+0	0.00000E+0	0.00000E+0	2.18906E+1	1.13192E+1	2.18902E+1	1.13199E+1
206	12/06/2023	18:02:44.331	0.00000E+0	0.00000E+0	1.84223E+2	2.35218E+0	0.00000E+0	0.00000E+0	2.22284E+1	1.10092E+1	2.22269E+1	1.10101E+1
207	12/06/2023	18:02:46.232	0.00000E+0	0.00000E+0	-9.04229E+1	5.79451E-2	0.00000E+0	0.00000E+0	1.83539E+1	1.47949E+1	1.83514E+1	1.47973E+1
208	12/06/2023	18:02:48.085	0.00000E+0	0.00000E+0	-1.95809E+2	-1.59751E+0	0.00000E+0	0.00000E+0	1.67374E+1	1.63858E+1	1.67344E+1	1.63861E+1
209	12/06/2023	18:02:49.998	0.00000E+0	0.00000E+0	-1.22435E+2	-9.46814E-1	0.00000E+0	0.00000E+0	1.77596E+1	1.53868E+1	1.77573E+1	1.53871E+1
210	12/06/2023	18:02:51.830	0.00000E+0	0.00000E+0	1.44151E+2	1.24183E+0	0.00000E+0	0.00000E+0	2.15785E+1	1.16455E+1	2.15766E+1	1.16456E+1
211	12/06/2023	18:02:53.753	0.00000E+0	0.00000E+0	1.72912E+2	1.07489E+0	0.00000E+0	0.00000E+0	2.20235E+1	1.11803E+1	2.20250E+1	1.11804E+1
212	12/06/2023	18:02:55.771	0.00000E+0	0.00000E+0	1.58265E+1	5.65910E-1	0.00000E+0	0.00000E+0	1.98917E+1	1.32812E+1	1.98917E+1	1.32811E+1
213	12/06/2023	18:02:57.780	0.00000E+0	0.00000E+0	-1.69241E+2	-1.80167E+0	0.00000E+0	0.00000E+0	1.71580E+1	1.59815E+1	1.71583E+1	1.59802E+1
214	12/06/2023	18:02:59.799	0.00000E+0	0.00000E+0	-1.47100E+2	-1.90555E-1	0.00000E+0	0.00000E+0	1.74071E+1	1.57522E+1	1.74053E+1	1.57529E+1
215	12/06/2023	18:03:01.868	0.00000E+0	0.00000E+0	1.56928E+2	1.10158E+0	0.00000E+0	0.00000E+0	2.17385E+1	1.14591E+1	2.17391E+1	1.14564E+1
216	12/06/2023	18:03:03.885	0.00000E+0	0.00000E+0	1.90514E+2	1.95101E+0	0.00000E+0	0.00000E+0	2.23049E+1	1.09087E+1	2.23043E+1	1.09076E+1
217	12/06/2023	18:03:06.046	0.00000E+0	0.00000E+0	-1.12163E+2	-8.01548E-1	0.00000E+0	0.00000E+0	1.80569E+1	1.51240E+1	1.80562E+1	1.51246E+1
218	12/06/2023	18:03:07.909	0.00000E+0	0.00000E+0	-1.64111E+2	-1.07028E+0	0.00000E+0	0.00000E+0	1.72198E+1	1.59286E+1	1.72212E+1	1.59306E+1
219	12/06/2023	18:03:09.871	0.00000E+0	0.00000E+0	-1.38180E+2	-5.75660E-1	0.00000E+0	0.00000E+0	1.75546E+1	1.56024E+1	1.75557E+1	1.56037E+1
220	12/06/2023	18:03:11.825	0.00000E+0	0.00000E+0	1.83078E+2	2.24741E+0	0.00000E+0	0.00000E+0	2.21364E+1	1.10995E+1	2.21378E+1	1.10997E+1
221	12/06/2023	18:03:13.646	0.00000E+0	0.00000E+0	1.71356E+2	1.65706E+0	0.00000E+0	0.00000E+0	2.20199E+1	1.12018E+1	2.20225E+1	1.12019E+1
222	12/06/2023	18:03:15.483	0.00000E+0	0.00000E+0	3.93192E+1	-8.29530E-2	0.00000E+0	0.00000E+0	2.02094E+1	1.29743E+1	2.02104E+1	1.29732E+1
223	12/06/2023	18:03:17.488	0.00000E+0	0.00000E+0	-1.84085E+2	-1.16584E+0	0.00000E+0	0.00000E+0	1.69490E+1	1.61783E+1	1.69497E+1	1.61765E+1
224	12/06/2023	18:03:19.418	0.00000E+0	0.00000E+0	-1.47317E+2	-1.55412E+0	0.00000E+0	0.00000E+0	1.74395E+1	1.56960E+1	1.74413E+1	1.56958E+1
225	12/06/2023	18:03:21.503	0.00000E+0	0.00000E+0	1.25873E+2	1.45519E+0	0.00000E+0	0.00000E+0	2.13153E+1	1.18673E+1	2.13141E+1	1.18668E+1
226	12/06/2023	18:03:23.348	0.00000E+0	0.00000E+0	2.25159E+2	2.27934E+0	0.00000E+0	0.00000E+0	2.27652E+1	1.04666E+1	2.27660E+1	1.04670E+1
227	12/06/2023	18:03:25.289	0.00000E+0	0.00000E+0	-1.17291E+2	-1.06659E-1	0.00000E+0	0.00000E+0	1.79539E+1	1.52021E+1	1.79544E+1	1.52006E+1
228	12/06/2023	18:03:27.299	0.00000E+0	0.00000E+0	-1.87699E+2	1.37109E-1	0.00000E+0	0.00000E+0	1.68523E+1	1.63235E+1	1.68501E+1	1.63242E+1
229	12/06/2023	18:03:29.458	0.00000E+0	0.00000E+0	-1.07432E+2	-9.28554E-1	0.00000E+0	0.00000E+0	1.79852E+1	1.51806E+1	1.79831E+1	1.51813E+1
230	12/06/2023	18:03:31.529	0.00000E+0	0.00000E+0	1.54810E+2	-8.85871E-1	0.00000E+0	0.00000E+0	2.17791E+1	1.14691E+1	2.17803E+1	1.14680E+1
231	12/06/2023	18:03:33.384	0.00000E+0	0.00000E+0	1.90587E+2	9.96176E-1	0.00000E+0	0.00000E+0	2.22892E+1	1.09192E+1	2.22891E+1	1.09179E+1
232	12/06/2023	18:03:35.232	0.00000E+0	0.00000E+0	4.06479E+1	2.51108E-1	0.00000E+0	0.00000E+0	2.02801E+1	1.29131E+1	2.02832E+1	1.29128E+1
233	12/06/2023	18:03:37.191	0.00000E+0	0.00000E+0	-1.36279E+2	-7.91617E-1	0.00000E+0	0.00000E+0	1.76430E+1	1.54852E+1	1.76455E+1	1.54832E+1
234	12/06/2023	18:03:38.966	0.00000E+0	0.00000E+0	-1.48496E+2	-1.06624E+0	0.00000E+0	0.00000E+0	1.73948E+1	1.57473E+1	1.73959E+1	1.57461E+1
235	12/06/2023	18:03:41.073	0.00000E+0	0.00000E+0	-7.52442E+1	1.01011E-1	0.00000E+0	0.00000E+0	1.84624E+1	1.47415E+1	1.84601E+1	1.47413E+1
236	12/06/2023	18:03:43.066	0.00000E+0	0.00000E+0	1.08360E+2	1.19691E+0	0.00000E+0	0.00000E+0	2.10713E+1	1.21377E+1	2.10716E+1	1.21367E+1
237	12/06/2023	18:03:45.029	0.00000E+0	0.00000E+0	1.63212E+2	1.27040E+0	0.00000E+0	0.00000E+0	2.18671E+1	1.13376E+1	2.18687E+1	1.13370E+1
238	12/06/2023	18:03:47.074	0.00000E+0	0.00000E+0	7.02843E+1	1.25195E+0	0.00000E+0	0.00000E+0	2.06443E+1	1.25558E+1	2.06420E+1	1.25558E+1
239	12/06/2023	18:03:49.097	0.00000E+0	0.00000E+0	-1.55231E+2	-8.05546E-1	0.00000E+0	0.00000E+0	1.73510E+1	1.57629E+1	1.73513E+1	1.57637E+1
240	12/06/2023	18:03:51.044	0.00000E+0	0.00000E+0	-1.53446E+2	-1.95916E+0	0.00000E+0	0.00000E+0	1.73347E+1	1.58000E+1	1.73356E+1	1.58007E+1
241	12/06/2023	18:03:53.551	0.00000E+0	0.00000E+0	1.34157E+2	9.16680E-1	0.00000E+0	0.00000E+0	2.14786E+1	1.17517E+1	2.14786E+1	1.17535E+1
242	12/06/2023	18:03:55.690	0.00000E+0	0.00000E+0	1.76046E+2	2.04278E+0	0.00000E+0	0.00000E+0	2.20260E+1	1.11758E+1	2.20262E+1	1.11772E+1
243	12/06/2023	18:03:57.642	0.00000E+0	0.00000E+0	-3.58404E+1	-9.10860E-1	0.00000E+0	0.00000E+0	1.91523E+1	1.40128E+1	1.91510E+1	1.40149E+1
244	12/06/2023	18:03:59.465	0.00000E+0	0.00000E+0	-1.55740E+2	-2.19812E+0	0.00000E+0	0.00000E+0	1.73386E+1	1.57913E+1	1.73374E+1	1.57931E+1
245	12/06/2023	18:04:01.218	0.00000E+0	0.00000E+0	-1.57187E+2	-4.98074E-1	0.00000E+0	0.00000E+0	1.72650E+1	1.58524E+1	1.72666E+1	1.58502E+1
246	12/06/2023	18:04:03.134	0.00000E+0	0.00000E+0	9.15405E+0	-3.21895E-1	0.00000E+0	0.00000E+0	1.95232E+1	1.36794E+1	1.95196E+1	1.36810E+1
247	12/06/2023	18:04:05.142	0.00000E+0	0.00000E+0	1.72932E+2	-2.41212E-1	0.00000E+0	0.00000E+0	2.20141E+1	1.12006E+1	2.20148E+1	1.12004E+1
248	12/06/2023	18:04:07.046	0.00000E+0	0.00000E+0	1.57354E+2	1.37833E+0	0.00000E+0	0.00000E+0	2.18192E+1	1.13934E+1	2.18171E+1	1.13948E+1
249	12/06/2023	18:04:09.143	0.00000E+0	0.00000E+0	-1.36929E+2	-1.45104E+0	0.00000E+0	0.00000E+0	1.76026E+1	1.55031E+1	1.76031E+1	1.55036E+1
250	12/06/2023	18:04:11.157	0.00000E+0	0.00000E+0	-1.74746E+2	-2.01716E+0	0.00000E+0	0.00000E+0	1.70523E+1	1.60828E+1	1.70523E+1	1.60823E+1
251	12/06/2023	18:04:13.178	0.00000E+0	0.00000E+0	6.43392E+1	1.79481E+0	0.00000E+0	0.00000E+0	2.03828E+1	1.28315E+1	2.03867E+1	1.28320E+1
252	12/06/2023	18:04:15.259	0.00000E+0	0.00000E+0	1.76873E+2	1.08889E+0	0.00000E+0	0.00000E+0	2.20781E+1	1.11466E+1	2.20795E+1	1.11475E+1
253	12/06/2023	18:04:17.229	0.00000E+0	0.00000E+0	6.62702E+1	1.63951E+0	0.00000E+0	0.00000E+0	2.07151E+1	1.25210E+1	2.07142E+1	1.25223E+1
254	12/06/2023	18:04:19.304	0.00000E+0	0.00000E+0	-1.94663E+2	-1.78588E+0	0.00000E+0	0.00000E+0	1.67870E+1	1.63327E+1	1.67873E+1	1.63327E+1
255	12/06/2023	18:04:21.091	0.00000E+0	0.00000E+0	-1.35980E+2	-9.93294E-1	0.00000E+0	0.00000E+0	1.75917E+1	1.55466E+1	1.75942E+1	1.55462E+1
256	12/06/2023	18:04:22.947	0.00000E+0	0.00000E+0	1.20254E+2	-7.34947E-1	0.00000E+0	0.00000E+0	2.11877E+1	1.20030E+1	2.11870E+1	1.20034E+1
257	12/06/2023	18:04:24.786	0.00000E+0	0.00000E+0	1.83307E+2	4.77704E-1	0.00000E+0	0.00000E+0	2.21853E+1	1.10662E+1	2.21872E+1	1.10634E+1
258	12/06/2023	18:04:26.591	0.00000E+0	0.00000E+0	5.39488E+1	1.04682E+0	0.00000E+0	0.00000E+0	2.04748E+1	1.27131E+1	2.04737E+1	1.27143E+1
259	12/06/2023	18:04:28.802	0.00000E+0	0.00000E+0	-1.79533E+2	-1.01493E+0	0.00000E+0	0.00000E+0	1.69978E+1	1.61370E+1	1.69965E+1	1.61392E+1
260	12/06/2023	18:04:30.667	0.00000E+0	0.00000E+0	-1.51067E+2	-1.74980E+0	0.00000E+0	0.00000E+0	1.73986E+1	1.57358E+1	1.73965E+1	1.57377E+1
261	12/06/2023	18:04:32.672	0.00000E+0	0.00000E+0	1.46215E+2	1.13462E+0	0.00000E+0	0.00000E+0	2.15961E+1	1.16252E+1	2.15966E+1	1.16258E+1
262	12/06/2023	18:04:34.815	0.00000E+0	0.00000E+0	1.68074E+2	1.68359E+0	0.00000E+0	0.00000E+0	2.19609E+1	1.12459E+1	2.19602E+1	1.12459E+1
263	12/06/2023	18:04:36.762	0.00000E+0	0.00000E+0	-1.16325E+2	-6.20007E-1	0.00000E+0	0.00000E+0	1.79303E+1	1.52161E+1	1.79315E+1	1.52172E+1
264	12/06/2023	18:04:38.731	0.00000E+0	0.00000E+0	-1.85627E+2	-2.08087E+0	0.00000E+0	0.00000E+0	1.69277E+1	1.62099E+1	1.69279E+1	1.62100E+1
265	12/06/2023	18:04:40.684	0.00000E+0	0.00000E+0	-9.01119E+0	6.15715E-2	0.00000E+0	0.00000E+0	1.92574E+1	1.39148E+1	1.92572E+1	1.39173E+1
266	12/06/2023	18:04:42.632	0.00000E+0	0.00000E+0	1.60914E+2	1.12200E+0	0.00000E+0	0.00000E+0	2.18866E+1	1.13803E+1	2.18848E+1	1.13768E+1
267	12/06/2023	18:04:44.579	0.00000E+0	0.00000E+0	1.72132E+2	1.29814E+0	0.00000E+0	0.00000E+0	2.20539E+1	1.11842E+1	2.20537E+1	1.11850E+1
268	12/06/2023	18:04:46.590	0.00000E+0	0.00000E+0	-1.42480E+2	2.29991E-1	0.00000E+0	0.00000E+0	1.75656E+1	1.55582E+1	1.75660E+1	1.55580E+1
269	12/06/2023	18:04:48.434	0.00000E+0	0.00000E+0	-1.75234E+2	-9.77710E-1	0.00000E+0	0.00000E+0	1.70248E+1	1.60910E+1	1.70253E+1	1.60922E+1
270	12/06/2023	18:04:50.446	0.00000E+0	0.00000E+0	-4.06071E+1	4.31340E-1	0.00000E+0	0.00000E+0	1.88314E+1	1.43072E+1	1.88329E+1	1.43064E+1
271	12/06/2023	18:04:52.442	0.00000E+0	0.00000E+0	1.93989E+2	2.87044E+0	0.00000E+0	0.00000E+0	2.22729E+1	1.09317E+1	2.22734E+1	1.09306E+1
272	12/06/2023	18:04:54.418	0.00000E+0	0.00000E+0	1.62088E+2	6.93762E-1	0.00000E+0	0.00000E+0	2.19069E+1	1.13037E+1	2.19084E+1	1.13013E+1
273	12/06/2023	18:04:56.423	0.00000E+0	0.00000E+0	-1.61434E+2	-1.81208E+0	0.00000E+0	0.00000E+0	1.72803E+1	1.58647E+1	1.72813E+1	1.58667E+1
274	12/06/2023	18:04:58.390	0.00000E+0	0.00000E+0	-1.83650E+2	-5.15660E-2	0.00000E+0	0.00000E+0	1.68691E+1	1.61962E+1	1.68682E+1	1.61947E+1
275	12/06/2023	18:05:00.525	0.00000E+0	0.00000E+0	9.57100E+1	1.75942E+0	0.00000E+0	0.00000E+0	2.08650E+1	1.23423E+1	2.08650E+1	1.23408E+1
276	12/06/2023	18:05:02.528	0.00000E+0	0.00000E+0	1.88995E+2	3.84398E+0	0.00000E+0	0.00000E+0	2.22658E+1	1.09969E+1	2.22633E+1	1.09963E+1
277	12/06/2023	18:05:04.607	0.00000E+0	0.00000E+0	9.88928E+1	1.48713E+0	0.00000E+0	0.00000E+0	2.10659E+1	1.21384E+1	2.10650E+1	1.21397E+1
278	12/06/2023	18:05:06.460	0.00000E+0	0.00000E+0	-1.45294E+2	-1.60052E+0	0.00000E+0	0.00000E+0	1.75012E+1	1.56377E+1	1.75007E+1	1.56369E+1
279	12/06/2023	18:05:08.273	0.00000E+0	0.00000E+0	-1.94952E+2	-2.09779E+0	0.00000E+0	0.00000E+0	1.68102E+1	1.63386E+1	1.68120E+1	1.63405E+1
280	12/06/2023	18:05:10.135	0.00000E+0	0.00000E+0	5.15612E+1	2.29955E+0	0.00000E+0	0.00000E+0	2.01832E+1	1.29978E+1	2.01852E+1	1.29992E+1
281	12/06/2023	18:05:11.945	0.00000E+0	0.00000E+0	1.92592E+2	1.92159E+0	0.00000E+0	0.00000E+0	2.23123E+1	1.09498E+1	2.23122E+1	1.09519E+1
282	12/06/2023	18:05:13.766	0.00000E+0	0.00000E+0	1.44217E+2	1.03348E-1	0.00000E+0	0.00000E+0	2.16729E+1	1.15427E+1	2.16728E+1	1.15454E+1
283	12/06/2023	18:05:15.776	0.00000E+0	0.00000E+0	-1.74157E+2	-1.85512E+0	0.00000E+0	0.00000E+0	1.70954E+1	1.60237E+1	1.70942E+1	1.60237E+1
284	12/06/2023	18:05:17.715	0.00000E+0	0.00000E+0	-1.88702E+2	-1.12071E+0	0.00000E+0	0.00000E+0	1.68030E+1	1.62754E+1	1.68022E+1	1.62752E+1
285	12/06/2023	18:05:19.797	0.00000E+0	0.00000E+0	1.28983E+2	1.37358E+0	0.00000E+0	0.00000E+0	2.13503E+1	1.18661E+1	2.13528E+1	1.18639E+1
286	12/06/2023	18:05:21.820	0.00000E+0	0.00000E+0	1.96465E+2	2.18667E+0	0.00000E+0	0.00000E+0	2.23378E+1	1.08936E+1	2.23383E+1	1.08919E+1
287	12/06/2023	18:05:23.819	0.00000E+0	0.00000E+0	-5.77551E+1	-1.95904E-2	0.00000E+0	0.00000E+0	1.88279E+1	1.43351E+1	1.88262E+1	1.43341E+1
288	12/06/2023	18:05:25.878	0.00000E+0	0.00000E+0	-2.06541E+2	-6.97344E-1	0.00000E+0	0.00000E+0	1.66307E+1	1.64811E+1	1.66293E+1	1.64813E+1
289	12/06/2023	18:05:27.938	0.00000E+0	0.00000E+0	-1.24990E+1	-1.20382E+0	0.00000E+0	0.00000E+0	1.91628E+1	1.40140E+1	1.91630E+1	1.40163E+1
290	12/06/2023	18:05:29.918	0.00000E+0	0.00000E+0	1.89659E+2	2.62051E+0	0.00000E+0	0.00000E+0	2.22721E+1	1.09806E+1	2.22737E+1	1.09789E+1
291	12/06/2023	18:05:31.727	0.00000E+0	0.00000E+0	1.56299E+2	1.86847E+0	0.00000E+0	0.00000E+0	2.19031E+1	1.13623E+1	2.19044E+1	1.13634E+1
292	12/06/2023	18:05:33.553	0.00000E+0	0.00000E+0	-2.03955E+2	-2.94356E+0	0.00000E+0	0.00000E+0	1.66779E+1	1.64516E+1	1.66776E+1	1.64534E+1
293	12/06/2023	18:05:35.409	0.00000E+0	0.00000E+0	-1.74697E+2	-2.01339E+0	0.00000E+0	0.00000E+0	1.70100E+1	1.60978E+1	1.70106E+1	1.60970E+1
294	12/06/2023	18:05:37.311	0.00000E+0	0.00000E+0	6.81926E+1	1.88940E+0	0.00000E+0	0.00000E+0	2.04365E+1	1.27042E+1	2.04402E+1	1.27048E+1
295	12/06/2023	18:05:39.235	0.00000E+0	0.00000E+0	2.07370E+2	3.34949E+0	0.00000E+0	0.00000E+0	2.25044E+1	1.06819E+1	2.25023E+1	1.06847E+1
296	12/06/2023	18:05:41.208	0.00000E+0	0.00000E+0	6.26366E+1	4.31045E-1	0.00000E+0	0.00000E+0	2.05690E+1	1.26176E+1	2.05679E+1	1.26176E+1
297	12/06/2023	18:05:43.210	0.00000E+0	0.00000E+0	-2.06095E+2	-1.90583E+0	0.00000E+0	0.00000E+0	1.66512E+1	1.64621E+1	1.66530E+1	1.64590E+1
298	12/06/2023	18:05:45.262	0.00000E+0	0.00000E+0	-9.87783E+1	-1.94806E+0	0.00000E+0	0.00000E+0	1.80042E+1	1.51317E+1	1.80039E+1	1.51330E+1
299	12/06/2023	18:05:47.487	0.00000E+0	0.00000E+0	1.83432E+2	9.77569E-1	0.00000E+0	0.00000E+0	2.21451E+1	1.10672E+1	2.21469E+1	1.10659E+1
300	12/06/2023	18:05:49.440	0.00000E+0	0.00000E+0	1.55711E+2	1.42236E+0	0.00000E+0	0.00000E+0	2.18224E+1	1.13825E+1	2.18201E+1	1.13812E+1
301	12/06/2023	18:05:51.606	0.00000E+0	0.00000E+0	-1.59758E+2	-5.12024E-2	0.00000E+0	0.00000E+0	1.72744E+1	1.58269E+1	1.72732E+1	1.58263E+1
302	12/06/2023	18:05:53.443	0.00000E+0	0.00000E+0	-1.94205E+2	-2.27270E+0	0.00000E+0	0.00000E+0	1.67801E+1	1.63636E+1	1.67817E+1	1.63618E+1
303	12/06/2023	18:05:55.286	0.00000E+0	0.00000E+0	5.11465E+1	1.61535E+0	0.00000E+0	0.00000E+0	2.01916E+1	1.29427E+1	2.01920E+1	1.29426E+1
304	12/06/2023	18:05:57.183	0.00000E+0	0.00000E+0	1.75311E+2	2.05745E+0	0.00000E+0	0.00000E+0	2.20427E+1	1.11982E+1	2.20422E+1	1.11976E+1
305	12/06/2023	18:05:59.031	0.00000E+0	0.00000E+0	1.63158E+2	2.15207E+0	0.00000E+0	0.00000E+0	2.19080E+1	1.12913E+1	2.19084E+1	1.12917E+1
306	12/06/2023	18:06:00.942	0.00000E+0	0.00000E+0	-1.63478E+2	-1.71875E+0	0.00000E+0	0.00000E+0	1.72387E+1	1.58895E+1	1.72411E+1	1.58899E+1
307	12/06/2023	18:06:02.947	0.00000E+0	0.00000E+0	-1.71732E+2	-2.05448E+0	0.00000E+0	0.00000E+0	1.70955E+1	1.60626E+1	1.70966E+1	1.60647E+1
308	12/06/2023	18:06:04.882	0.00000E+0	0.00000E+0	-6.06992E+0	1.07936E+0	0.00000E+0	0.00000E+0	1.92925E+1	1.39271E+1	1.92937E+1	1.39256E+1
309	12/06/2023	18:06:07.054	0.00000E+0	0.00000E+0	1.87102E+2	2.36704E+0	0.00000E+0	0.00000E+0	2.22580E+1	1.09630E+1	2.22601E+1	1.09635E+1
310	12/06/2023	18:06:08.987	0.00000E+0	0.00000E+0	1.74011E+2	1.52116E+0	0.00000E+0	0.00000E+0	2.20164E+1	1.11979E+1	2.20170E+1	1.11989E+1
311	12/06/2023	18:06:10.989	0.00000E+0	0.00000E+0	-1.65291E+2	-1.61973E+0	0.00000E+0	0.00000E+0	1.72467E+1	1.58836E+1	1.72470E+1	1.58843E+1
312	12/06/2023	18:06:12.930	0.00000E+0	0.00000E+0	-1.98137E+2	-5.13777E-1	0.00000E+0	0.00000E+0	1.66975E+1	1.64456E+1	1.66966E+1	1.64502E+1
313	12/06/2023	18:06:14.915	0.00000E+0	0.00000E+0	4.25494E+1	3.29417E+0	0.00000E+0	0.00000E+0	1.99810E+1	1.31846E+1	1.99800E+1	1.31849E+1
314	12/06/2023	18:06:16.781	0.00000E+0	0.00000E+0	1.74363E+2	-3.44011E-1	0.00000E+0	0.00000E+0	2.20490E+1	1.11942E+1	2.20494E+1	1.11933E+1
315	12/06/2023	18:06:18.765	0.00000E+0	0.00000E+0	1.48202E+2	2.55838E+0	0.00000E+0	0.00000E+0	2.16911E+1	1.14786E+1	2.16879E+1	1.14795E+1
316	12/06/2023	18:06:20.541	0.00000E+0	0.00000E+0	-1.61906E+2	-1.27315E+0	0.00000E+0	0.00000E+0	1.72896E+1	1.58538E+1	1.72918E+1	1.58538E+1
317	12/06/2023	18:06:22.441	0.00000E+0	0.00000E+0	-2.00281E+2	-1.63499E+0	0.00000E+0	0.00000E+0	1.66711E+1	1.64566E+1	1.66722E+1	1.64548E+1
318	12/06/2023	18:06:24.242	0.00000E+0	0.00000E+0	-1.05830E+2	7.64883E-1	0.00000E+0	0.00000E+0	1.79918E+1	1.51675E+1	1.79934E+1	1.51632E+1
319	12/06/2023	18:06:26.281	0.00000E+0	0.00000E+0	1.87236E+2	1.98896E+0	0.00000E+0	0.00000E+0	2.22017E+1	1.10212E+1	2.22040E+1	1.10208E+1
320	12/06/2023	18:06:28.210	0.00000E+0	0.00000E+0	1.59739E+2	1.57468E+0	0.00000E+0	0.00000E+0	2.18700E+1	1.13481E+1	2.18696E+1	1.13491E+1
321	12/06/2023	18:06:30.219	0.00000E+0	0.00000E+0	-1.65581E+2	-1.33624E+0	0.00000E+0	0.00000E+0	1.72404E+1	1.58961E+1	1.72395E+1	1.58963E+1
322	12/06/2023	18:06:32.301	0.00000E+0	0.00000E+0	-1.63843E+2	-3.06071E+0	0.00000E+0	0.00000E+0	1.72320E+1	1.59390E+1	1.72327E+1	1.59396E+1
323	12/06/2023	18:06:34.314	0.00000E+0	0.00000E+0	1.41076E+2	6.55724E-2	0.00000E+0	0.00000E+0	2.15360E+1	1.16839E+1	2.15346E+1	1.16864E+1
324	12/06/2023	18:06:36.409	0.00000E+0	0.00000E+0	1.89238E+2	1.56766E+0	0.00000E+0	0.00000E+0	2.22855E+1	1.09819E+1	2.22849E+1	1.09822E+1
325	12/06/2023	18:06:38.435	0.00000E+0	0.00000E+0	-9.66269E+1	-7.85232E-1	0.00000E+0	0.00000E+0	1.82788E+1	1.48685E+1	1.82781E+1	1.48699E+1
326	12/06/2023	18:06:40.332	0.00000E+0	0.00000E+0	-1.86374E+2	-2.98046E-1	0.00000E+0	0.00000E+0	1.69330E+1	1.62017E+1	1.69317E+1	1.62011E+1
327	12/06/2023	18:06:42.158	0.00000E+0	0.00000E+0	-1.50932E+2	-1.45519E+0	0.00000E+0	0.00000E+0	1.73532E+1	1.58317E+1	1.73543E+1	1.58326E+1
328	12/06/2023	18:06:43.968	0.00000E+0	0.00000E+0	1.61454E+2	2.67349E-1	0.00000E+0	0.00000E+0	2.18096E+1	1.14211E+1	2.18121E+1	1.14211E+1
329	12/06/2023	18:06:45.804	0.00000E+0	0.00000E+0	1.89503E+2	1.06173E+0	0.00000E+0	0.00000E+0	2.22773E+1	1.09609E+1	2.22808E+1	1.09567E+1
330	12/06/2023	18:06:47.702	0.00000E+0	0.00000E+0	-3.36653E+1	-5.76866E-1	0.00000E+0	0.00000E+0	1.92417E+1	1.39089E+1	1.92420E+1	1.39099E+1
331	12/06/2023	18:06:49.712	0.00000E+0	0.00000E+0	-2.07276E+2	-1.39755E+0	0.00000E+0	0.00000E+0	1.66029E+1	1.65340E+1	1.66037E+1	1.65345E+1
332	12/06/2023	18:06:51.725	0.00000E+0	0.00000E+0	-1.06384E+2	-1.90394E+0	0.00000E+0	0.00000E+0	1.79674E+1	1.51742E+1	1.79706E+1	1.51731E+1
333	12/06/2023	18:06:53.719	0.00000E+0	0.00000E+0	1.85507E+2	3.20729E+0	0.00000E+0	0.00000E+0	2.21488E+1	1.10260E+1	2.21472E+1	1.10264E+1
334	12/06/2023	18:06:55.667	0.00000E+0	0.00000E+0	1.82998E+2	1.82510E+0	0.00000E+0	0.00000E+0	2.21813E+1	1.10333E+1	2.21817E+1	1.10328E+1
335	12/06/2023	18:06:57.672	0.00000E+0	0.00000E+0	-1.30267E+2	-4.25111E-1	0.00000E+0	0.00000E+0	1.77644E+1	1.53886E+1	1.77647E+1	1.53892E+1
336	12/06/2023	18:06:59.614	0.00000E+0	0.00000E+0	-2.00392E+2	-6.25094E-1	0.00000E+0	0.00000E+0	1.67158E+1	1.64283E+1	1.67140E+1	1.64310E+1
337	12/06/2023	18:07:01.611	0.00000E+0	0.00000E+0	1.58060E+1	-1.13134E+0	0.00000E+0	0.00000E+0	1.97264E+1	1.34644E+1	1.97254E+1	1.34648E+1
338	12/06/2023	18:07:03.522	0.00000E+0	0.00000E+0	1.86979E+2	3.18950E+0	0.00000E+0	0.00000E+0	2.21774E+1	1.10111E+1	2.21765E+1	1.10126E+1
339	12/06/2023	18:07:05.372	0.00000E+0	0.00000E+0	1.13268E+2	7.85024E-1	0.00000E+0	0.00000E+0	2.12190E+1	1.19887E+1	2.12167E+1	1.19883E+1
340	12/06/2023	18:07:07.364	0.00000E+0	0.00000E+0	-1.76385E+2	-1.10418E+0	0.00000E+0	0.00000E+0	1.70531E+1	1.60777E+1	1.70519E+1	1.60788E+1
341	12/06/2023	18:07:09.211	0.00000E+0	0.00000E+0	-1.69574E+2	-3.89800E+0	0.00000E+0	0.00000E+0	1.71596E+1	1.60190E+1	1.71618E+1	1.60195E+1
342	12/06/2023	18:07:11.039	0.00000E+0	0.00000E+0	1.07317E+2	1.34950E-1	0.00000E+0	0.00000E+0	2.10372E+1	1.21747E+1	2.10365E+1	1.21738E+1
343	12/06/2023	18:07:13.041	0.00000E+0	0.00000E+0	1.38050E+2	1.21176E+0	0.00000E+0	0.00000E+0	2.15323E+1	1.16993E+1	2.15317E+1	1.16982E+1
344	12/06/2023	18:07:14.975	0.00000E+0	0.00000E+0	4.55597E+1	7.59682E-1	0.00000E+0	0.00000E+0	2.03294E+1	1.28750E+1	2.03303E+1	1.28738E+1
345	12/06/2023	18:07:16.951	0.00000E+0	0.00000E+0	-1.42455E+2	-1.11415E+0	0.00000E+0	0.00000E+0	1.75358E+1	1.56116E+1	1.75378E+1	1.56101E+1
346	12/06/2023	18:07:18.971	0.00000E+0	0.00000E+0	-1.08168E+2	-9.11560E-1	0.00000E+0	0.00000E+0	1.79653E+1	1.51350E+1	1.79652E+1	1.51351E+1
347	12/06/2023	18:07:20.932	0.00000E+0	0.00000E+0	1.18248E+2	2.10031E+0	0.00000E+0	0.00000E+0	2.11823E+1	1.20129E+1	2.11823E+1	1.20132E+1
348	12/06/2023	18:07:22.975	0.00000E+0	0.00000E+0	1.48184E+2	2.81579E+0	0.00000E+0	0.00000E+0	2.16514E+1	1.15477E+1	2.16495E+1	1.15473E+1
349	12/06/2023	18:07:24.973	0.00000E+0	0.00000E+0	4.44410E+0	7.10030E-4	0.00000E+0	0.00000E+0	1.97708E+1	1.34069E+1	1.97718E+1	1.34083E+1
350	12/06/2023	18:07:26.809	0.00000E+0	0.00000E+0	-1.48865E+2	-2.03134E+0	0.00000E+0	0.00000E+0	1.74373E+1	1.56896E+1	1.74369E+1	1.56893E+1
351	12/06/2023	18:07:28.743	0.00000E+0	0.00000E+0	-1.20281E+2	-1.64585E+0	0.00000E+0	0.00000E+0	1.77675E+1	1.53689E+1	1.77657E+1	1.36203E+1
352	12/06/2023	18:07:30.496	0.00000E+0	0.00000E+0	-4.48263E+1	3.96864E-1	0.00000E+0	0.00000E+0	1.87895E+1	1.43437E+1	1.87880E+1	1.43453E+1
353	12/06/2023	18:07:32.470	0.00000E+0	0.00000E+0	1.36408E+2	6.30154E-1	0.00000E+0	0.00000E+0	2.14897E+1	1.17261E+1	2.14897E+1	1.17274E+1
354	12/06/2023	18:07:34.303	0.00000E+0	0.00000E+0	1.60569E+2	1.49724E+0	0.00000E+0	0.00000E+0	2.18318E+1	1.13604E+1	2.18331E+1	1.13605E+1
355	12/06/2023	18:07:36.207	0.00000E+0	0.00000E+0	-5.49942E+1	1.53480E-2	0.00000E+0	0.00000E+0	1.88370E+1	1.43051E+1	1.88385E+1	1.43066E+1
356	12/06/2023	18:07:38.248	0.00000E+0	0.00000E+0	-1.43859E+2	-1.89470E+0	0.00000E+0	0.00000E+0	1.74877E+1	1.56562E+1	1.74875E+1	1.56549E+1
357	12/06/2023	18:07:40.282	0.00000E+0	0.00000E+0	-1.30132E+2	2.26145E-1	0.00000E+0	0.00000E+0	1.77119E+1	1.55443E+1	1.77134E+1	1.55448E+1
358	12/06/2023	18:07:42.225	0.00000E+0	0.00000E+0	7.31280E+1	-2.93469E-2	0.00000E+0	0.00000E+0	2.05994E+1	1.26445E+1	2.05973E+1	1.26450E+1
359	12/06/2023	18:07:44.288	0.00000E+0	0.00000E+0	1.21267E+2	1.26520E-2	0.00000E+0	0.00000E+0	2.13129E+1	1.19113E+1	2.13139E+1	1.19116E+1
360	12/06/2023	18:07:46.230	0.00000E+0	0.00000E+0	1.51616E+2	1.13273E+0	0.00000E+0	0.00000E+0	2.17473E+1	1.14591E+1	2.17475E+1	1.14579E+1
361	12/06/2023	18:07:48.251	0.00000E+0	0.00000E+0	-1.16848E+2	-3.93003E-2	0.00000E+0	0.00000E+0	1.79067E+1	1.52371E+1	1.79088E+1	1.52365E+1
362	12/06/2023	18:07:50.138	0.00000E+0	0.00000E+0	-1.37058E+2	-2.06320E+0	0.00000E+0	0.00000E+0	1.75902E+1	1.55643E+1	1.75896E+1	1.55655E+1
363	12/06/2023	18:07:52.144	0.00000E+0	0.00000E+0	-8.31531E+1	-1.04801E-1	0.00000E+0	0.00000E+0	1.83070E+1	1.48249E+1	1.83079E+1	1.48235E+1
364	12/06/2023	18:07:54.162	0.00000E+0	0.00000E+0	9.49090E+1	2.60056E-1	0.00000E+0	0.00000E+0	2.08618E+1	1.23065E+1	2.08609E+1	1.23051E+1
365	12/06/2023	18:07:55.990	0.00000E+0	0.00000E+0	1.28927E+2	1.18659E+0	0.00000E+0	0.00000E+0	2.13709E+1	1.17928E+1	2.13708E+1	1.17919E+1
366	12/06/2023	18:07:57.906	0.00000E+0	0.00000E+0	1.62056E+2	1.62874E+0	0.00000E+0	0.00000E+0	2.18558E+1	1.13506E+1	2.18564E+1	1.13499E+1
367	12/06/2023	18:07:59.888	0.00000E+0	0.00000E+0	-1.23655E+2	-1.03964E+0	0.00000E+0	0.00000E+0	1.78546E+1	1.52814E+1	1.78528E+1	1.52809E+1
368	12/06/2023	18:08:01.891	0.00000E+0	0.00000E+0	-1.82225E+2	-2.36044E+0	0.00000E+0	0.00000E+0	1.69479E+1	1.62005E+1	1.69488E+1	1.61997E+1
369	12/06/2023	18:08:04.002	0.00000E+0	0.00000E+0	-1.14781E+2	4.95061E-1	0.00000E+0	0.00000E+0	1.78782E+1	1.52868E+1	1.78762E+1	1.52881E+1
370	12/06/2023	18:08:05.993	0.00000E+0	0.00000E+0	8.65860E+1	1.75972E+0	0.00000E+0	0.00000E+0	2.07979E+1	1.24256E+1	2.08007E+1	1.24260E+1
371	12/06/2023	18:08:07.869	0.00000E+0	0.00000E+0	1.45377E+2	1.94676E+0	0.00000E+0	0.00000E+0	2.15660E+1	1.16251E+1	2.15672E+1	1.16224E+1
372	12/06/2023	18:08:09.936	0.00000E+0	0.00000E+0	1.61665E+2	2.94679E+0	0.00000E+0	0.00000E+0	2.19646E+1	1.12730E+1	2.19650E+1	1.12732E+1
373	12/06/2023	18:08:11.944	0.00000E+0	0.00000E+0	-1.97598E+2	-2.35075E+0	0.00000E+0	0.00000E+0	1.67849E+1	1.63851E+1	1.67835E+1	1.63865E+1
374	12/06/2023	18:08:14.095	0.00000E+0	0.00000E+0	-1.29523E+2	-2.35080E+0	0.00000E+0	0.00000E+0	1.76853E+1	1.53900E+1	1.76849E+1	1.53898E+1
375	12/06/2023	18:08:16.111	0.00000E+0	0.00000E+0	1.11921E+2	1.19436E+0	0.00000E+0	0.00000E+0	2.11269E+1	1.20536E+1	2.11284E+1	1.20538E+1
376	12/06/2023	18:08:17.955	0.00000E+0	0.00000E+0	1.58856E+2	1.61453E+0	0.00000E+0	0.00000E+0	2.18159E+1	1.13952E+1	2.18151E+1	1.13936E+1
377	12/06/2023	18:08:19.855	0.00000E+0	0.00000E+0	7.46669E+1	4.29012E-2	0.00000E+0	0.00000E+0	2.09014E+1	1.23148E+1	2.09013E+1	1.23150E+1
378	12/06/2023	18:08:21.624	0.00000E+0	0.00000E+0	-1.10133E+2	-2.14463E+0	0.00000E+0	0.00000E+0	1.80335E+1	1.51724E+1	1.80313E+1	1.51740E+1
379	12/06/2023	18:08:23.698	0.00000E+0	0.00000E+0	-1.93200E+2	-1.24621E+0	0.00000E+0	0.00000E+0	1.67982E+1	1.63561E+1	1.67992E+1	1.63542E+1
380	12/06/2023	18:08:25.708	0.00000E+0	0.00000E+0	7.96626E+1	1.17265E-1	0.00000E+0	0.00000E+0	2.06561E+1	1.25519E+1	2.06574E+1	1.25514E+1
381	12/06/2023	18:08:27.637	0.00000E+0	0.00000E+0	1.41364E+2	1.08055E+0	0.00000E+0	0.00000E+0	2.15736E+1	1.16696E+1	2.15729E+1	1.16681E+1
382	12/06/2023	18:08:29.812	0.00000E+0	0.00000E+0	1.09515E+2	1.17104E+0	0.00000E+0	0.00000E+0	2.11548E+1	1.20593E+1	2.11566E+1	1.20588E+1
383	12/06/2023	18:08:31.756	0.00000E+0	0.00000E+0	-1.15338E+2	-2.02111E+0	0.00000E+0	0.00000E+0	1.79177E+1	1.52436E+1	1.79176E+1	1.52444E+1
384	12/06/2023	18:08:33.736	0.00000E+0	0.00000E+0	-1.67195E+2	-1.41587E+0	0.00000E+0	0.00000E+0	1.71731E+1	1.59520E+1	1.71733E+1	1.59522E+1
385	12/06/2023	18:08:35.824	0.00000E+0	0.00000E+0	-2.01096E+1	8.85615E-1	0.00000E+0	0.00000E+0	1.90882E+1	1.40958E+1	1.90880E+1	1.40954E+1
386	12/06/2023	18:08:37.746	0.00000E+0	0.00000E+0	1.26890E+2	-8.62864E-1	0.00000E+0	0.00000E+0	2.13331E+1	1.18537E+1	2.13331E+1	1.18546E+1
387	12/06/2023	18:08:39.620	0.00000E+0	0.00000E+0	1.36515E+2	7.11045E-1	0.00000E+0	0.00000E+0	2.14948E+1	1.17104E+1	2.14930E+1	1.17094E+1
388	12/06/2023	18:08:41.429	0.00000E+0	0.00000E+0	7.77907E+1	1.31011E+0	0.00000E+0	0.00000E+0	2.07579E+1	1.24376E+1	2.07582E+1	1.24372E+1
389	12/06/2023	18:08:43.357	0.00000E+0	0.00000E+0	-1.42871E+2	-1.61644E+0	0.00000E+0	0.00000E+0	1.75165E+1	1.56215E+1	1.75158E+1	1.56215E+1
390	12/06/2023	18:08:45.245	0.00000E+0	0.00000E+0	-1.37646E+2	-1.78109E-1	0.00000E+0	0.00000E+0	1.75687E+1	1.55821E+1	1.75665E+1	1.55827E+1
391	12/06/2023	18:08:47.019	0.00000E+0	0.00000E+0	-4.63428E+1	9.46540E-1	0.00000E+0	0.00000E+0	1.87642E+1	1.44320E+1	1.87629E+1	1.44292E+1
392	12/06/2023	18:08:49.022	0.00000E+0	0.00000E+0	1.57231E+2	1.75908E+0	0.00000E+0	0.00000E+0	2.18196E+1	1.14151E+1	2.18200E+1	1.14145E+1
393	12/06/2023	18:08:50.997	0.00000E+0	0.00000E+0	1.20900E+2	2.26344E-1	0.00000E+0	0.00000E+0	2.12852E+1	1.19229E+1	2.12884E+1	1.19217E+1
394	12/06/2023	18:08:52.975	0.00000E+0	0.00000E+0	-9.64793E+1	-4.88442E-1	0.00000E+0	0.00000E+0	1.82905E+1	1.48856E+1	1.82897E+1	1.48831E+1
395	12/06/2023	18:08:55.015	0.00000E+0	0.00000E+0	-1.52862E+2	-2.38672E+0	0.00000E+0	0.00000E+0	1.73886E+1	1.57615E+1	1.73899E+1	1.57630E+1
396	12/06/2023	18:08:57.032	0.00000E+0	0.00000E+0	-6.82000E+1	-8.19033E-1	0.00000E+0	0.00000E+0	1.85082E+1	1.46651E+1	1.85088E+1	1.46669E+1
397	12/06/2023	18:08:59.050	0.00000E+0	0.00000E+0	1.27479E+2	9.66092E-1	0.00000E+0	0.00000E+0	2.13712E+1	1.18659E+1	2.13717E+1	1.18657E+1
398	12/06/2023	18:09:01.186	0.00000E+0	0.00000E+0	1.44482E+2	1.79208E+0	0.00000E+0	0.00000E+0	2.16432E+1	1.15728E+1	2.16433E+1	1.15723E+1
399	12/06/2023	18:09:03.177	0.00000E+0	0.00000E+0	-6.20940E+1	-5.06243E-1	0.00000E+0	0.00000E+0	1.87539E+1	1.44358E+1	1.87541E+1	1.44390E+1
400	12/06/2023	18:09:05.098	0.00000E+0	0.00000E+0	-1.49325E+2	-4.55474E-1	0.00000E+0	0.00000E+0	1.74381E+1	1.56962E+1	1.74383E+1	1.56966E+1
401	12/06/2023	18:09:07.008	0.00000E+0	0.00000E+0	-1.05402E+2	2.33657E+0	0.00000E+0	0.00000E+0	1.80340E+1	1.50928E+1	1.80337E+1	1.50926E+1
402	12/06/2023	18:09:08.780	0.00000E+0	0.00000E+0	9.86549E+1	-1.31687E+0	0.00000E+0	0.00000E+0	2.09304E+1	1.22760E+1	2.09304E+1	1.22764E+1
403	12/06/2023	18:09:10.626	0.00000E+0	0.00000E+0	1.43579E+2	1.84309E+0	0.00000E+0	0.00000E+0	2.15949E+1	1.16065E+1	2.15970E+1	1.16058E+1
404	12/06/2023	18:09:12.582	0.00000E+0	0.00000E+0	1.03809E+2	1.06734E+0	0.00000E+0	0.00000E+0	2.10685E+1	1.21525E+1	2.10687E+1	1.21499E+1
405	12/06/2023	18:09:14.564	0.00000E+0	0.00000E+0	-1.35369E+2	-1.30052E+0	0.00000E+0	0.00000E+0	1.76493E+1	1.55018E+1	1.76514E+1	1.55019E+1
406	12/06/2023	18:09:16.615	0.00000E+0	0.00000E+0	-1.70304E+2	-2.08569E+0	0.00000E+0	0.00000E+0	1.71453E+1	1.60028E+1	1.71456E+1	1.60012E+1
407	12/06/2023	18:09:18.621	0.00000E+0	0.00000E+0	4.84850E+1	-2.91943E+0	0.00000E+0	0.00000E+0	2.01718E+1	1.30049E+1	2.01715E+1	1.30045E+1
408	12/06/2023	18:09:20.673	0.00000E+0	0.00000E+0	1.69028E+2	9.83011E-1	0.00000E+0	0.00000E+0	2.19621E+1	1.12528E+1	2.19620E+1	1.12528E+1
409	12/06/2023	18:09:22.556	0.00000E+0	0.00000E+0	1.23036E+2	1.22766E+0	0.00000E+0	0.00000E+0	2.13524E+1	1.18515E+1	2.13521E+1	1.18512E+1
410	12/06/2023	18:09:24.455	0.00000E+0	0.00000E+0	-1.61784E+2	-2.01532E+0	0.00000E+0	0.00000E+0	1.72827E+1	1.58354E+1	1.72838E+1	1.58354E+1
411	12/06/2023	18:09:26.476	0.00000E+0	0.00000E+0	-1.54399E+2	-3.25306E+0	0.00000E+0	0.00000E+0	1.73085E+1	1.58582E+1	1.73097E+1	1.58585E+1
412	12/06/2023	18:09:28.402	0.00000E+0	0.00000E+0	1.00506E+2	9.96734E-1	0.00000E+0	0.00000E+0	2.09272E+1	1.22420E+1	2.09266E+1	1.22416E+1
413	12/06/2023	18:09:30.339	0.00000E+0	0.00000E+0	1.64195E+2	1.62543E+0	0.00000E+0	0.00000E+0	2.19295E+1	1.13008E+1	2.19261E+1	1.13008E+1
414	12/06/2023	18:09:32.234	0.00000E+0	0.00000E+0	-3.67909E+1	-4.44337E-1	0.00000E+0	0.00000E+0	1.91416E+1	1.40314E+1	1.91417E+1	1.40326E+1
415	12/06/2023	18:09:34.064	0.00000E+0	0.00000E+0	-1.70956E+2	-2.26041E+0	0.00000E+0	0.00000E+0	1.71105E+1	1.60032E+1	1.71114E+1	1.60058E+1
416	12/06/2023	18:09:36.160	0.00000E+0	0.00000E+0	-8.50986E+1	-5.16838E-1	0.00000E+0	0.00000E+0	1.83296E+1	1.48265E+1	1.83312E+1	1.48250E+1
417	12/06/2023	18:09:38.165	0.00000E+0	0.00000E+0	1.16137E+2	6.86616E-1	0.00000E+0	0.00000E+0	2.12086E+1	1.20127E+1	2.12112E+1	1.20119E+1
418	12/06/2023	18:09:40.254	0.00000E+0	0.00000E+0	1.59379E+2	1.23867E+0	0.00000E+0	0.00000E+0	2.18454E+1	1.13856E+1	2.18448E+1	1.13858E+1
419	12/06/2023	18:09:42.321	0.00000E+0	0.00000E+0	-6.95636E+1	-8.03350E-1	0.00000E+0	0.00000E+0	1.86137E+1	1.45466E+1	1.86153E+1	1.45478E+1
420	12/06/2023	18:09:44.206	0.00000E+0	0.00000E+0	-1.88002E+2	-1.37736E+0	0.00000E+0	0.00000E+0	1.68507E+1	1.62669E+1	1.68517E+1	1.62672E+1
421	12/06/2023	18:09:46.189	0.00000E+0	0.00000E+0	-8.26734E+1	-2.31692E-1	0.00000E+0	0.00000E+0	1.83299E+1	1.48493E+1	1.83293E+1	1.48495E+1
422	12/06/2023	18:09:47.964	0.00000E+0	0.00000E+0	1.16743E+2	1.12220E+0	0.00000E+0	0.00000E+0	2.12265E+1	1.19900E+1	2.12274E+1	1.19886E+1
423	12/06/2023	18:09:49.821	0.00000E+0	0.00000E+0	1.49155E+2	1.37078E+0	0.00000E+0	0.00000E+0	2.17065E+1	1.15218E+1	2.17063E+1	1.15226E+1
424	12/06/2023	18:09:51.723	0.00000E+0	0.00000E+0	5.96583E+1	1.54840E+0	0.00000E+0	0.00000E+0	2.05569E+1	1.26080E+1	2.05547E+1	1.26079E+1
425	12/06/2023	18:09:53.566	0.00000E+0	0.00000E+0	-2.03081E+2	-1.59040E+0	0.00000E+0	0.00000E+0	1.66864E+1	1.64600E+1	1.66887E+1	1.64589E+1
426	12/06/2023	18:09:55.330	0.00000E+0	0.00000E+0	-1.38279E+2	-1.14796E+0	0.00000E+0	0.00000E+0	1.75415E+1	1.55685E+1	1.75429E+1	1.55693E+1
427	12/06/2023	18:09:57.329	0.00000E+0	0.00000E+0	1.10048E+2	2.89847E-1	0.00000E+0	0.00000E+0	2.10938E+1	1.21203E+1	2.10939E+1	1.21193E+1
428	12/06/2023	18:09:59.304	0.00000E+0	0.00000E+0	1.49843E+2	1.91383E+0	0.00000E+0	0.00000E+0	2.16614E+1	1.15589E+1	2.16643E+1	1.15583E+1
429	12/06/2023	18:10:01.433	0.00000E+0	0.00000E+0	8.31219E+1	-3.07275E-1	0.00000E+0	0.00000E+0	2.09447E+1	1.23015E+1	2.09456E+1	1.23027E+1
430	12/06/2023	18:10:03.488	0.00000E+0	0.00000E+0	-1.54966E+2	-9.86078E-1	0.00000E+0	0.00000E+0	1.73516E+1	1.57807E+1	1.73525E+1	1.57819E+1
431	12/06/2023	18:10:05.508	0.00000E+0	0.00000E+0	-1.25618E+2	5.61996E-1	0.00000E+0	0.00000E+0	1.76989E+1	1.54412E+1	1.76969E+1	1.54439E+1
432	12/06/2023	18:10:07.543	0.00000E+0	0.00000E+0	7.35026E+1	1.29415E+0	0.00000E+0	0.00000E+0	2.05597E+1	1.26578E+1	2.05592E+1	1.26583E+1
433	12/06/2023	18:10:09.531	0.00000E+0	0.00000E+0	1.25433E+2	2.82318E+0	0.00000E+0	0.00000E+0	2.13177E+1	1.18727E+1	2.13172E+1	1.18707E+1
434	12/06/2023	18:10:11.528	0.00000E+0	0.00000E+0	1.32445E+2	-4.51493E-2	0.00000E+0	0.00000E+0	2.14521E+1	1.17849E+1	2.14514E+1	1.17857E+1
435	12/06/2023	18:10:13.698	0.00000E+0	0.00000E+0	-1.55245E+2	-1.56260E+0	0.00000E+0	0.00000E+0	1.73827E+1	1.57617E+1	1.73813E+1	1.57595E+1
436	12/06/2023	18:10:15.538	0.00000E+0	0.00000E+0	-1.66517E+2	-3.83607E-1	0.00000E+0	0.00000E+0	1.71480E+1	1.59880E+1	1.71465E+1	1.59853E+1
437	12/06/2023	18:10:17.450	0.00000E+0	0.00000E+0	7.46584E+1	-1.06577E+0	0.00000E+0	0.00000E+0	2.05656E+1	1.26637E+1	2.05633E+1	1.26619E+1
438	12/06/2023	18:10:19.299	0.00000E+0	0.00000E+0	1.33250E+2	-8.27725E-3	0.00000E+0	0.00000E+0	2.14784E+1	1.17816E+1	2.14782E+1	1.17785E+1
439	12/06/2023	18:10:21.116	0.00000E+0	0.00000E+0	1.58508E+2	5.75611E-1	0.00000E+0	0.00000E+0	2.18305E+1	1.14073E+1	2.18314E+1	1.14083E+1
440	12/06/2023	18:10:23.204	0.00000E+0	0.00000E+0	-1.45000E+2	-1.93877E+0	0.00000E+0	0.00000E+0	1.75315E+1	1.55996E+1	1.75311E+1	1.55992E+1
441	12/06/2023	18:10:25.181	0.00000E+0	0.00000E+0	-1.72298E+2	-1.12005E+0	0.00000E+0	0.00000E+0	1.70585E+1	1.60591E+1	1.70579E+1	1.60593E+1
442	12/06/2023	18:10:27.278	0.00000E+0	0.00000E+0	5.28503E+1	1.00932E+0	0.00000E+0	0.00000E+0	2.02260E+1	1.29594E+1	2.02266E+1	1.29623E+1
443	12/06/2023	18:10:29.253	0.00000E+0	0.00000E+0	1.77099E+2	1.69813E+0	0.00000E+0	0.00000E+0	2.20392E+1	1.11458E+1	2.20401E+1	1.11433E+1
444	12/06/2023	18:10:31.221	0.00000E+0	0.00000E+0	1.25966E+2	1.18034E+0	0.00000E+0	0.00000E+0	2.14140E+1	1.17920E+1	2.14131E+1	1.17904E+1
445	12/06/2023	18:10:33.078	0.00000E+0	0.00000E+0	-1.61690E+2	-4.33524E-1	0.00000E+0	0.00000E+0	1.72620E+1	1.58745E+1	1.72625E+1	1.58735E+1
446	12/06/2023	18:10:35.047	0.00000E+0	0.00000E+0	-1.51177E+2	-2.74584E+0	0.00000E+0	0.00000E+0	1.73962E+1	1.57496E+1	1.73953E+1	1.57510E+1
447	12/06/2023	18:10:36.999	0.00000E+0	0.00000E+0	9.11138E+1	2.25201E+0	0.00000E+0	0.00000E+0	2.07787E+1	1.24295E+1	2.07791E+1	1.24292E+1
448	12/06/2023	18:10:38.898	0.00000E+0	0.00000E+0	1.60621E+2	1.25802E+0	0.00000E+0	0.00000E+0	2.18505E+1	1.13976E+1	2.18486E+1	1.13963E+1
449	12/06/2023	18:10:40.861	0.00000E+0	0.00000E+0	7.78079E+1	2.11415E-1	0.00000E+0	0.00000E+0	2.07523E+1	1.24414E+1	2.07531E+1	1.24405E+1
450	12/06/2023	18:10:42.758	0.00000E+0	0.00000E+0	-1.60713E+2	-6.17909E-1	0.00000E+0	0.00000E+0	1.72645E+1	1.58605E+1	1.72644E+1	1.58605E+1
451	12/06/2023	18:10:44.586	0.00000E+0	0.00000E+0	-1.79671E+2	-3.41857E-1	0.00000E+0	0.00000E+0	1.69514E+1	1.61365E+1	1.69512E+1	1.61365E+1
452	12/06/2023	18:10:46.525	0.00000E+0	0.00000E+0	1.22838E+2	2.29374E+0	0.00000E+0	0.00000E+0	2.12635E+1	1.19350E+1	2.12651E+1	1.19334E+1
453	12/06/2023	18:10:48.601	0.00000E+0	0.00000E+0	1.73420E+2	2.02703E+0	0.00000E+0	0.00000E+0	2.20323E+1	1.11797E+1	2.20337E+1	1.11812E+1
454	12/06/2023	18:10:50.606	0.00000E+0	0.00000E+0	-3.46882E+1	-4.20205E-1	0.00000E+0	0.00000E+0	1.91626E+1	1.40229E+1	1.91645E+1	1.40234E+1
455	12/06/2023	18:10:52.626	0.00000E+0	0.00000E+0	-1.69030E+2	-8.70787E-1	0.00000E+0	0.00000E+0	1.71457E+1	1.59968E+1	1.71475E+1	1.59988E+1
456	12/06/2023	18:10:54.704	0.00000E+0	0.00000E+0	-1.26497E+2	-4.14133E-1	0.00000E+0	0.00000E+0	1.77192E+1	1.54316E+1	1.77186E+1	1.54290E+1
457	12/06/2023	18:10:56.737	0.00000E+0	0.00000E+0	1.67386E+2	3.00169E+0	0.00000E+0	0.00000E+0	2.19438E+1	1.13206E+1	2.19458E+1	1.13192E+1
458	12/06/2023	18:10:58.774	0.00000E+0	0.00000E+0	1.75784E+2	1.41123E+0	0.00000E+0	0.00000E+0	2.20748E+1	1.11479E+1	2.20734E+1	1.11500E+1
459	12/06/2023	18:11:00.688	0.00000E+0	0.00000E+0	-1.15769E+2	-2.23170E+0	0.00000E+0	0.00000E+0	1.79631E+1	1.52112E+1	1.79614E+1	1.52088E+1
460	12/06/2023	18:11:02.495	0.00000E+0	0.00000E+0	-1.75594E+2	-2.07889E+0	0.00000E+0	0.00000E+0	1.70793E+1	1.60818E+1	1.70814E+1	1.60822E+1
461	12/06/2023	18:11:04.424	0.00000E+0	0.00000E+0	-9.32222E+1	-1.04848E+0	0.00000E+0	0.00000E+0	1.81498E+1	1.49735E+1	1.81488E+1	1.49716E+1
462	12/06/2023	18:11:06.357	0.00000E+0	0.00000E+0	1.59873E+2	1.93494E+0	0.00000E+0	0.00000E+0	2.18499E+1	1.13842E+1	2.18490E+1	1.13846E+1
463	12/06/2023	18:11:08.267	0.00000E+0	0.00000E+0	1.46084E+2	1.53602E+0	0.00000E+0	0.00000E+0	2.16725E+1	1.15373E+1	2.16715E+1	1.15370E+1
464	12/06/2023	18:11:10.176	0.00000E+0	0.00000E+0	-8.86334E+1	-1.74405E+0	0.00000E+0	0.00000E+0	1.83612E+1	1.47914E+1	1.83614E+1	1.47911E+1
465	12/06/2023	18:11:12.181	0.00000E+0	0.00000E+0	-1.42631E+2	-2.47159E+0	0.00000E+0	0.00000E+0	1.75476E+1	1.56275E+1	1.75463E+1	1.56273E+1
466	12/06/2023	18:11:14.256	0.00000E+0	0.00000E+0	-1.34055E+2	-2.16417E-1	0.00000E+0	0.00000E+0	1.75972E+1	1.55351E+1	1.75968E+1	1.55374E+1
467	12/06/2023	18:11:16.131	0.00000E+0	0.00000E+0	9.01744E+1	1.09956E+0	0.00000E+0	0.00000E+0	2.07894E+1	1.24285E+1	2.07896E+1	1.24296E+1
468	12/06/2023	18:11:18.125	0.00000E+0	0.00000E+0	1.64716E+2	3.14173E+0	0.00000E+0	0.00000E+0	2.18790E+1	1.13116E+1	2.18795E+1	1.13118E+1
469	12/06/2023	18:11:20.111	0.00000E+0	0.00000E+0	5.39300E+1	7.86085E-1	0.00000E+0	0.00000E+0	2.05002E+1	1.26998E+1	2.04989E+1	1.27004E+1
470	12/06/2023	18:11:22.117	0.00000E+0	0.00000E+0	-1.69459E+2	-1.63006E+0	0.00000E+0	0.00000E+0	1.71354E+1	1.60016E+1	1.71370E+1	1.60016E+1
471	12/06/2023	18:11:24.065	0.00000E+0	0.00000E+0	-1.29142E+2	-1.69390E+0	0.00000E+0	0.00000E+0	1.76658E+1	1.54805E+1	1.76640E+1	1.54809E+1
472	12/06/2023	18:11:25.895	0.00000E+0	0.00000E+0	7.24113E+1	-1.22195E+0	0.00000E+0	0.00000E+0	2.05451E+1	1.26581E+1	2.05441E+1	1.26580E+1
473	12/06/2023	18:11:27.805	0.00000E+0	0.00000E+0	1.29757E+2	2.87227E+0	0.00000E+0	0.00000E+0	2.13884E+1	1.18087E+1	2.13867E+1	1.18070E+1
474	12/06/2023	18:11:29.821	0.00000E+0	0.00000E+0	1.36231E+2	7.02554E-1	0.00000E+0	0.00000E+0	2.15177E+1	1.16801E+1	2.15165E+1	1.16795E+1
475	12/06/2023	18:11:31.649	0.00000E+0	0.00000E+0	-1.22635E+2	-4.09646E-1	0.00000E+0	0.00000E+0	1.78493E+1	1.52756E+1	1.78482E+1	1.52752E+1
476	12/06/2023	18:11:33.655	0.00000E+0	0.00000E+0	-1.79545E+2	-4.41694E-1	0.00000E+0	0.00000E+0	1.69777E+1	1.61572E+1	1.69757E+1	1.61589E+1
477	12/06/2023	18:11:35.576	0.00000E+0	0.00000E+0	-1.22172E+1	5.34948E-1	0.00000E+0	0.00000E+0	1.92098E+1	1.39265E+1	1.92105E+1	1.39275E+1
478	12/06/2023	18:11:37.582	0.00000E+0	0.00000E+0	1.53659E+2	1.58950E+0	0.00000E+0	0.00000E+0	2.17643E+1	1.14352E+1	2.17646E+1	1.14343E+1
479	12/06/2023	18:11:39.601	0.00000E+0	0.00000E+0	1.79561E+2	2.25374E+0	0.00000E+0	0.00000E+0	2.21152E+1	1.10846E+1	2.21181E+1	1.10862E+1
480	12/06/2023	18:11:41.468	0.00000E+0	0.00000E+0	-1.23224E+2	-1.34649E+0	0.00000E+0	0.00000E+0	1.78423E+1	1.52968E+1	1.78432E+1	1.52969E+1
481	12/06/2023	18:11:43.485	0.00000E+0	0.00000E+0	-1.86904E+2	-1.41520E+0	0.00000E+0	0.00000E+0	1.68725E+1	1.62643E+1	1.68729E+1	1.62651E+1
482	12/06/2023	18:11:45.633	0.00000E+0	0.00000E+0	8.83852E+0	-8.54777E-1	0.00000E+0	0.00000E+0	1.95799E+1	1.36231E+1	1.95794E+1	1.36211E+1
483	12/06/2023	18:11:47.521	0.00000E+0	0.00000E+0	1.07052E+2	2.73101E-1	0.00000E+0	0.00000E+0	2.10859E+1	1.21080E+1	2.10886E+1	1.21076E+1
484	12/06/2023	18:11:49.436	0.00000E+0	0.00000E+0	1.65511E+2	1.04494E+0	0.00000E+0	0.00000E+0	2.19217E+1	1.13373E+1	2.19231E+1	1.13373E+1
485	12/06/2023	18:11:51.322	0.00000E+0	0.00000E+0	-5.01985E+1	-8.18469E-1	0.00000E+0	0.00000E+0	1.89093E+1	1.42083E+1	1.89084E+1	1.42084E+1
486	12/06/2023	18:11:53.174	0.00000E+0	0.00000E+0	-1.05181E+2	-1.41047E+0	0.00000E+0	0.00000E+0	1.80214E+1	1.51297E+1	1.80246E+1	1.51303E+1
487	12/06/2023	18:11:55.094	0.00000E+0	0.00000E+0	-1.06940E+2	-2.97836E+0	0.00000E+0	0.00000E+0	1.80140E+1	1.50836E+1	1.80154E+1	1.50862E+1
488	12/06/2023	18:11:57.028	0.00000E+0	0.00000E+0	6.86843E+1	9.89832E-1	0.00000E+0	0.00000E+0	2.05501E+1	1.26785E+1	2.05493E+1	1.26802E+1
489	12/06/2023	18:11:59.471	0.00000E+0	0.00000E+0	1.02790E+2	8.48129E-1	0.00000E+0	0.00000E+0	2.10345E+1	1.21731E+1	2.10336E+1	1.21724E+1
490	12/06/2023	18:12:01.529	0.00000E+0	0.00000E+0	9.00698E+1	4.94682E-1	0.00000E+0	0.00000E+0	2.08403E+1	1.23824E+1	2.08420E+1	1.23823E+1
491	12/06/2023	18:12:03.477	0.00000E+0	0.00000E+0	-1.15633E+2	-5.09703E-1	0.00000E+0	0.00000E+0	1.79360E+1	1.52250E+1	1.79373E+1	1.52257E+1
492	12/06/2023	18:12:05.539	0.00000E+0	0.00000E+0	-1.41983E+2	-8.14954E-1	0.00000E+0	0.00000E+0	1.75504E+1	1.56052E+1	1.75511E+1	1.56053E+1
493	12/06/2023	18:12:07.476	0.00000E+0	0.00000E+0	-7.71658E+1	-1.07919E+0	0.00000E+0	0.00000E+0	1.84407E+1	1.47340E+1	1.84411E+1	1.47349E+1
494	12/06/2023	18:12:09.468	0.00000E+0	0.00000E+0	1.17657E+2	1.27009E+0	0.00000E+0	0.00000E+0	2.11794E+1	1.20494E+1	2.11796E+1	1.20489E+1
495	12/06/2023	18:12:11.571	0.00000E+0	0.00000E+0	1.00011E+2	1.14303E+0	0.00000E+0	0.00000E+0	2.09750E+1	1.22167E+1	2.09767E+1	1.22167E+1
496	12/06/2023	18:12:13.396	0.00000E+0	0.00000E+0	1.06620E+2	1.03795E+0	0.00000E+0	0.00000E+0	2.10768E+1	1.21249E+1	2.10780E+1	1.21250E+1
497	12/06/2023	18:12:15.423	0.00000E+0	0.00000E+0	-6.22127E+1	-1.75850E+0	0.00000E+0	0.00000E+0	1.87074E+1	1.44514E+1	1.87064E+1	1.44538E+1
498	12/06/2023	18:12:17.340	0.00000E+0	0.00000E+0	-1.30422E+2	-1.29174E+0	0.00000E+0	0.00000E+0	1.76819E+1	1.54470E+1	1.76791E+1	1.54464E+1
499	12/06/2023	18:12:19.118	0.00000E+0	0.00000E+0	-1.15940E+2	-4.73017E-1	0.00000E+0	0.00000E+0	1.79169E+1	1.52255E+1	1.79174E+1	1.52261E+1
500	12/06/2023	18:12:21.183	0.00000E+0	0.00000E+0	1.66390E+1	1.03240E+0	0.00000E+0	0.00000E+0	1.96678E+1	1.34966E+1	1.96711E+1	1.34934E+1
