#Iteration	Date	Time	RTPhase	NFringe	AccelAxis	AccelMean	AccelTemp
1	12/06/2023	17:56:02.483	2.24229642E+0	-2.51900000E+3	2.00000000E+0	-9.80612648E+0	7.21921100E+6
2	12/06/2023	17:56:04.335	5.26538905E-1	-2.51800000E+3	2.00000000E+0	-9.80612648E+0	7.21921100E+6
3	12/06/2023	17:56:06.225	5.28264634E+0	-2.51600000E+3	2.00000000E+0	-9.80612648E+0	7.21921100E+6
4	12/06/2023	17:56:08.065	4.78065113E+0	-2.51700000E+3	2.00000000E+0	-9.80612648E+0	7.21921100E+6
5	12/06/2023	17:56:10.098	1.45689825E+0	-2.52000000E+3	2.00000000E+0	-9.80612648E+0	7.21921100E+6
6	12/06/2023	17:56:12.157	4.48344235E+0	-2.50900000E+3	2.00000000E+0	-9.80612648E+0	7.21921100E+6
7	12/06/2023	17:56:14.160	4.20425784E+0	-2.46300000E+3	2.00000000E+0	-9.80612648E+0	7.21921100E+6
8	12/06/2023	17:56:16.349	2.76001493E+0	-2.42400000E+3	2.00000000E+0	-9.80612648E+0	7.21921100E+6
9	12/06/2023	17:56:18.331	3.78049565E+0	-2.44600000E+3	2.00000000E+0	-9.80612648E+0	7.21921100E+6
10	12/06/2023	17:56:20.230	5.42492306E+0	-2.51300000E+3	2.00000000E+0	-9.80612648E+0	7.21921100E+6
11	12/06/2023	17:56:22.053	6.15586490E+0	-2.50800000E+3	2.00000000E+0	-9.80612648E+0	7.21921100E+6
12	12/06/2023	17:56:23.947	5.56950075E+0	-2.39200000E+3	2.00000000E+0	-9.80612648E+0	7.21921100E+6
13	12/06/2023	17:56:25.837	4.06313161E+0	-2.35900000E+3	2.00000000E+0	-9.80612648E+0	7.21921100E+6
14	12/06/2023	17:56:27.577	1.14243219E+0	-2.51200000E+3	2.00000000E+0	-9.80612648E+0	7.21921100E+6
15	12/06/2023	17:56:29.445	6.13515616E+0	-2.52100000E+3	2.00000000E+0	-9.80612648E+0	7.21921100E+6
16	12/06/2023	17:56:31.209	5.34477256E+0	-2.48300000E+3	2.00000000E+0	-9.80612648E+0	7.21921100E+6
17	12/06/2023	17:56:32.933	4.09381123E+0	-2.31200000E+3	2.00000000E+0	-9.80612648E+0	7.21921100E+6
18	12/06/2023	17:56:34.781	5.09128223E+0	-2.43300000E+3	2.00000000E+0	-9.80612648E+0	7.21921100E+6
19	12/06/2023	17:56:36.618	3.63553447E-1	-2.51500000E+3	2.00000000E+0	-9.80612648E+0	7.21921100E+6
20	12/06/2023	17:56:38.550	9.58354497E-1	-2.49600000E+3	2.00000000E+0	-9.80612648E+0	7.21921100E+6
21	12/06/2023	17:56:40.757	2.64726734E+0	-2.26400000E+3	2.00000000E+0	-9.80612648E+0	7.21921100E+6
22	12/06/2023	17:56:42.633	1.56082545E+0	-2.35300000E+3	2.00000000E+0	-9.80612648E+0	7.21921100E+6
23	12/06/2023	17:56:44.727	1.62371866E+0	-2.51300000E+3	2.00000000E+0	-9.80612648E+0	7.21921100E+6
24	12/06/2023	17:56:46.738	1.15048559E+0	-2.51400000E+3	2.00000000E+0	-9.80612648E+0	7.21921100E+6
25	12/06/2023	17:56:48.570	2.26147118E+0	-2.42800000E+3	2.00000000E+0	-9.80612648E+0	7.21921100E+6
26	12/06/2023	17:56:50.534	4.85466570E+0	-2.15600000E+3	2.00000000E+0	-9.80612648E+0	7.21921100E+6
27	12/06/2023	17:56:52.405	3.84914129E+0	-2.40400000E+3	2.00000000E+0	-9.80612648E+0	7.21921100E+6
28	12/06/2023	17:56:54.264	2.12839834E-1	-2.50700000E+3	2.00000000E+0	-9.80612648E+0	7.21921100E+6
29	12/06/2023	17:56:56.173	8.19912731E-1	-2.51200000E+3	2.00000000E+0	-9.80612648E+0	7.21921100E+6
30	12/06/2023	17:56:58.097	2.01488376E+0	-2.30200000E+3	2.00000000E+0	-9.80612648E+0	7.21921100E+6
31	12/06/2023	17:57:00.040	3.23094703E+0	-2.17000000E+3	2.00000000E+0	-9.80612648E+0	7.21921100E+6
32	12/06/2023	17:57:01.965	2.33241779E+0	-2.48600000E+3	2.00000000E+0	-9.80612648E+0	7.21921100E+6
33	12/06/2023	17:57:03.972	2.80373339E+0	-2.51100000E+3	2.00000000E+0	-9.80612648E+0	7.21921100E+6
34	12/06/2023	17:57:06.058	3.73677720E+0	-2.34000000E+3	2.00000000E+0	-9.80612648E+0	7.21921100E+6
35	12/06/2023	17:57:08.057	1.33686426E+0	-2.14800000E+3	2.00000000E+0	-9.80612648E+0	7.21921100E+6
36	12/06/2023	17:57:10.143	3.70533059E+0	-2.49600000E+3	2.00000000E+0	-9.80612648E+0	7.21921100E+6
37	12/06/2023	17:57:12.235	5.29300071E+0	-2.51800000E+3	2.00000000E+0	-9.80612648E+0	7.21921100E+6
38	12/06/2023	17:57:14.066	2.04019445E+0	-2.38600000E+3	2.00000000E+0	-9.80612648E+0	7.21921100E+6
39	12/06/2023	17:57:16.020	8.78204001E-1	-2.04400000E+3	2.00000000E+0	-9.80612648E+0	7.21921100E+6
40	12/06/2023	17:57:17.839	3.61635971E+0	-2.36200000E+3	2.00000000E+0	-9.80612648E+0	7.21921100E+6
41	12/06/2023	17:57:19.670	4.34039864E+0	-2.51800000E+3	2.00000000E+0	-9.80612648E+0	7.21921100E+6
42	12/06/2023	17:57:21.741	7.88849620E-1	-2.49100000E+3	2.00000000E+0	-9.80612648E+0	7.21921100E+6
43	12/06/2023	17:57:23.608	1.17733025E+0	-2.13900000E+3	2.00000000E+0	-9.80612648E+0	7.21921100E+6
44	12/06/2023	17:57:25.696	5.33135023E+0	-2.33800000E+3	2.00000000E+0	-9.80612648E+0	7.21921100E+6
45	12/06/2023	17:57:27.802	4.51143750E+0	-2.51800000E+3	2.00000000E+0	-9.80612648E+0	7.21921100E+6
46	12/06/2023	17:57:29.791	5.92691827E+0	-2.48200000E+3	2.00000000E+0	-9.80612648E+0	7.21921100E+6
47	12/06/2023	17:57:31.817	1.86378666E-1	-2.09800000E+3	2.00000000E+0	-9.80612648E+0	7.21921100E+6
48	12/06/2023	17:57:33.824	2.38303915E+0	-2.36800000E+3	2.00000000E+0	-9.80612648E+0	7.21921100E+6
49	12/06/2023	17:57:35.812	4.13292774E+0	-2.52300000E+3	2.00000000E+0	-9.80612648E+0	7.21921100E+6
50	12/06/2023	17:57:37.716	8.88558371E-1	-2.45200000E+3	2.00000000E+0	-9.80612648E+0	7.21921100E+6
51	12/06/2023	17:57:39.653	1.81278180E+0	-2.09400000E+3	2.00000000E+0	-9.80612648E+0	7.21921100E+6
52	12/06/2023	17:57:41.542	7.26723398E-1	-2.40400000E+3	2.00000000E+0	-9.80612648E+0	7.21921100E+6
53	12/06/2023	17:57:43.375	2.01066532E+0	-2.51200000E+3	2.00000000E+0	-9.80612648E+0	7.21921100E+6
54	12/06/2023	17:57:45.380	5.35052499E+0	-2.48100000E+3	2.00000000E+0	-9.80612648E+0	7.21921100E+6
55	12/06/2023	17:57:47.402	4.43243749E+0	-2.14400000E+3	2.00000000E+0	-9.80612648E+0	7.21921100E+6
56	12/06/2023	17:57:49.397	4.22803455E+0	-2.36400000E+3	2.00000000E+0	-9.80612648E+0	7.21921100E+6
57	12/06/2023	17:57:51.431	1.23255356E+0	-2.51700000E+3	2.00000000E+0	-9.80612648E+0	7.21921100E+6
58	12/06/2023	17:57:53.442	8.16461274E-1	-2.41400000E+3	2.00000000E+0	-9.80612648E+0	7.21921100E+6
59	12/06/2023	17:57:55.450	2.86931106E+0	-2.18700000E+3	2.00000000E+0	-9.80612648E+0	7.21921100E+6
60	12/06/2023	17:57:57.461	2.55637898E+0	-2.49000000E+3	2.00000000E+0	-9.80612648E+0	7.21921100E+6
61	12/06/2023	17:57:59.425	3.30342763E+0	-2.51400000E+3	2.00000000E+0	-9.80612648E+0	7.21921100E+6
62	12/06/2023	17:58:01.323	5.31524343E+0	-2.33500000E+3	2.00000000E+0	-9.80612648E+0	7.21921100E+6
63	12/06/2023	17:58:03.331	4.75802491E+0	-2.23400000E+3	2.00000000E+0	-9.80612648E+0	7.21921100E+6
64	12/06/2023	17:58:05.079	3.12088391E+0	-2.50800000E+3	2.00000000E+0	-9.80612648E+0	7.21921100E+6
65	12/06/2023	17:58:06.897	3.70954904E+0	-2.51400000E+3	2.00000000E+0	-9.80612648E+0	7.21921100E+6
66	12/06/2023	17:58:08.857	4.33234524E+0	-2.31000000E+3	2.00000000E+0	-9.80612648E+0	7.21921100E+6
67	12/06/2023	17:58:10.737	4.11030152E+0	-2.20900000E+3	2.00000000E+0	-9.80612648E+0	7.21921100E+6
68	12/06/2023	17:58:12.821	3.01427225E-1	-2.50500000E+3	2.00000000E+0	-9.80612648E+0	7.21921100E+6
69	12/06/2023	17:58:14.826	1.46111670E+0	-2.50800000E+3	2.00000000E+0	-9.80612648E+0	7.21921100E+6
70	12/06/2023	17:58:16.995	4.83549094E+0	-2.20200000E+3	2.00000000E+0	-9.80612648E+0	7.21921100E+6
71	12/06/2023	17:58:19.036	2.08276241E+0	-2.34000000E+3	2.00000000E+0	-9.80612648E+0	7.21921100E+6
72	12/06/2023	17:58:20.971	4.17012677E+0	-2.51300000E+3	2.00000000E+0	-9.80612648E+0	7.21921100E+6
73	12/06/2023	17:58:22.789	4.79637443E+0	-2.50300000E+3	2.00000000E+0	-9.80612648E+0	7.21921100E+6
74	12/06/2023	17:58:24.751	2.45897120E+0	-2.15800000E+3	2.00000000E+0	-9.80612648E+0	7.21921100E+6
75	12/06/2023	17:58:26.539	6.24713676E-1	-2.30500000E+3	2.00000000E+0	-9.80612648E+0	7.21921100E+6
76	12/06/2023	17:58:28.523	6.14090859E+0	-2.51800000E+3	2.00000000E+0	-9.80612648E+0	7.21921100E+6
77	12/06/2023	17:58:30.370	3.99908791E+0	-2.50700000E+3	2.00000000E+0	-9.80612648E+0	7.21921100E+6
78	12/06/2023	17:58:32.440	2.14067019E+0	-2.19700000E+3	2.00000000E+0	-9.80612648E+0	7.21921100E+6
79	12/06/2023	17:58:34.392	6.08338431E+0	-2.28500000E+3	2.00000000E+0	-9.80612648E+0	7.21921100E+6
80	12/06/2023	17:58:36.397	2.97553923E+0	-2.51500000E+3	2.00000000E+0	-9.80612648E+0	7.21921100E+6
81	12/06/2023	17:58:38.439	7.40145730E-1	-2.51300000E+3	2.00000000E+0	-9.80612648E+0	7.21921100E+6
82	12/06/2023	17:58:40.295	3.17687421E+0	-2.29700000E+3	2.00000000E+0	-9.80612648E+0	7.21921100E+6
83	12/06/2023	17:58:42.263	3.89477722E+0	-2.42700000E+3	2.00000000E+0	-9.80612648E+0	7.21921100E+6
84	12/06/2023	17:58:44.275	2.98014118E+0	-2.51000000E+3	2.00000000E+0	-9.80612648E+0	7.21921100E+6
85	12/06/2023	17:58:46.122	5.12656379E+0	-2.43000000E+3	2.00000000E+0	-9.80612648E+0	7.21921100E+6
86	12/06/2023	17:58:48.152	3.01618972E+0	-2.15200000E+3	2.00000000E+0	-9.80612648E+0	7.21921100E+6
87	12/06/2023	17:58:50.007	1.02048072E+0	-2.49000000E+3	2.00000000E+0	-9.80612648E+0	7.21921100E+6
88	12/06/2023	17:58:52.033	4.93174823E+0	-2.51400000E+3	2.00000000E+0	-9.80612648E+0	7.21921100E+6
89	12/06/2023	17:58:53.940	4.56589382E+0	-2.31700000E+3	2.00000000E+0	-9.80612648E+0	7.21921100E+6
90	12/06/2023	17:58:55.882	1.67280605E+0	-2.22500000E+3	2.00000000E+0	-9.80612648E+0	7.21921100E+6
91	12/06/2023	17:58:57.884	5.64965124E+0	-2.50900000E+3	2.00000000E+0	-9.80612648E+0	7.21921100E+6
92	12/06/2023	17:58:59.891	2.02447114E+0	-2.51300000E+3	2.00000000E+0	-9.80612648E+0	7.21921100E+6
93	12/06/2023	17:59:01.825	4.08230637E+0	-2.16800000E+3	2.00000000E+0	-9.80612648E+0	7.21921100E+6
94	12/06/2023	17:59:03.831	2.17211680E+0	-2.33400000E+3	2.00000000E+0	-9.80612648E+0	7.21921100E+6
95	12/06/2023	17:59:05.764	6.80703975E-1	-2.50800000E+3	2.00000000E+0	-9.80612648E+0	7.21921100E+6
96	12/06/2023	17:59:07.743	2.92300039E+0	-2.47100000E+3	2.00000000E+0	-9.80612648E+0	7.21921100E+6
97	12/06/2023	17:59:09.830	5.98252507E+0	-2.09400000E+3	2.00000000E+0	-9.80612648E+0	7.21921100E+6
98	12/06/2023	17:59:11.783	1.39170407E+0	-2.38500000E+3	2.00000000E+0	-9.80612648E+0	7.21921100E+6
99	12/06/2023	17:59:13.803	3.56765582E+0	-2.50400000E+3	2.00000000E+0	-9.80612648E+0	7.21921100E+6
100	12/06/2023	17:59:15.590	2.54142267E+0	-2.45700000E+3	2.00000000E+0	-9.80612648E+0	7.21921100E+6
101	12/06/2023	17:59:17.362	2.70824308E+0	-2.16100000E+3	2.00000000E+0	-9.80612648E+0	7.21921100E+6
102	12/06/2023	17:59:19.359	2.74697610E+0	-2.46100000E+3	2.00000000E+0	-9.80612648E+0	7.21921100E+6
103	12/06/2023	17:59:21.213	2.03520901E+0	-2.50000000E+3	2.00000000E+0	-9.80612648E+0	7.21921100E+6
104	12/06/2023	17:59:23.388	3.11091304E+0	-2.41300000E+3	2.00000000E+0	-9.80612648E+0	7.21921100E+6
105	12/06/2023	17:59:25.338	2.94601010E+0	-2.11800000E+3	2.00000000E+0	-9.80612648E+0	7.21921100E+6
106	12/06/2023	17:59:27.401	3.00545186E+0	-2.49300000E+3	2.00000000E+0	-9.80612648E+0	7.21921100E+6
107	12/06/2023	17:59:29.492	4.50760255E+0	-2.51800000E+3	2.00000000E+0	-9.80612648E+0	7.21921100E+6
108	12/06/2023	17:59:31.495	2.93680622E+0	-2.21700000E+3	2.00000000E+0	-9.80612648E+0	7.21921100E+6
109	12/06/2023	17:59:33.502	1.85803423E+0	-2.32600000E+3	2.00000000E+0	-9.80612648E+0	7.21921100E+6
110	12/06/2023	17:59:35.527	5.43642791E+0	-2.52000000E+3	2.00000000E+0	-9.80612648E+0	7.21921100E+6
111	12/06/2023	17:59:37.358	4.97968513E+0	-2.51100000E+3	2.00000000E+0	-9.80612648E+0	7.21921100E+6
112	12/06/2023	17:59:39.201	2.73470425E+0	-2.26900000E+3	2.00000000E+0	-9.80612648E+0	7.21921100E+6
113	12/06/2023	17:59:40.953	1.34760212E+0	-2.16300000E+3	2.00000000E+0	-9.80612648E+0	7.21921100E+6
114	12/06/2023	17:59:42.946	3.57954417E+0	-2.49300000E+3	2.00000000E+0	-9.80612648E+0	7.21921100E+6
115	12/06/2023	17:59:44.963	2.26032069E+0	-2.51500000E+3	2.00000000E+0	-9.80612648E+0	7.21921100E+6
116	12/06/2023	17:59:47.019	1.85228180E+0	-2.31600000E+3	2.00000000E+0	-9.80612648E+0	7.21921100E+6
117	12/06/2023	17:59:49.006	5.99824838E+0	-2.12400000E+3	2.00000000E+0	-9.80612648E+0	7.21921100E+6
118	12/06/2023	17:59:51.140	3.04725284E+0	-2.50300000E+3	2.00000000E+0	-9.80612648E+0	7.21921100E+6
119	12/06/2023	17:59:53.114	5.59212696E+0	-2.51700000E+3	2.00000000E+0	-9.80612648E+0	7.21921100E+6
120	12/06/2023	17:59:55.178	5.17296671E+0	-2.26200000E+3	2.00000000E+0	-9.80612648E+0	7.21921100E+6
121	12/06/2023	17:59:57.131	4.73578219E+0	-2.16000000E+3	2.00000000E+0	-9.80612648E+0	7.21921100E+6
122	12/06/2023	17:59:59.009	1.38786912E+0	-2.50600000E+3	2.00000000E+0	-9.80612648E+0	7.21921100E+6
123	12/06/2023	18:00:01.029	2.48850033E+0	-2.50300000E+3	2.00000000E+0	-9.80612648E+0	7.21921100E+6
124	12/06/2023	18:00:03.026	5.05715116E+0	-2.45900000E+3	2.00000000E+0	-9.80612648E+0	7.21921100E+6
125	12/06/2023	18:00:04.924	2.84553436E+0	-2.26900000E+3	2.00000000E+0	-9.80612648E+0	7.21921100E+6
126	12/06/2023	18:00:06.936	2.37767022E-2	-2.46400000E+3	2.00000000E+0	-9.80612648E+0	7.21921100E+6
127	12/06/2023	18:00:08.863	6.13822412E+0	-2.50900000E+3	2.00000000E+0	-9.80612648E+0	7.21921100E+6
128	12/06/2023	18:00:10.885	4.72312685E+0	-2.48100000E+3	2.00000000E+0	-9.80612648E+0	7.21921100E+6
129	12/06/2023	18:00:12.839	1.18001472E+0	-2.21000000E+3	2.00000000E+0	-9.80612648E+0	7.21921100E+6
130	12/06/2023	18:00:14.833	3.41157327E+0	-2.21100000E+3	2.00000000E+0	-9.80612648E+0	7.21921100E+6
131	12/06/2023	18:00:16.942	2.21123331E+0	-2.51200000E+3	2.00000000E+0	-9.80612648E+0	7.21921100E+6
132	12/06/2023	18:00:18.946	2.36923333E+0	-2.51700000E+3	2.00000000E+0	-9.80612648E+0	7.21921100E+6
133	12/06/2023	18:00:21.012	6.13362218E+0	-2.39300000E+3	2.00000000E+0	-9.80612648E+0	7.21921100E+6
134	12/06/2023	18:00:22.945	3.56305388E+0	-2.07700000E+3	2.00000000E+0	-9.80612648E+0	7.21921100E+6
135	12/06/2023	18:00:24.876	3.27159753E+0	-2.44100000E+3	2.00000000E+0	-9.80612648E+0	7.21921100E+6
136	12/06/2023	18:00:26.765	9.64106925E-1	-2.51100000E+3	2.00000000E+0	-9.80612648E+0	7.21921100E+6
137	12/06/2023	18:00:28.613	5.04833077E+0	-2.49000000E+3	2.00000000E+0	-9.80612648E+0	7.21921100E+6
138	12/06/2023	18:00:30.429	2.17595175E+0	-2.23600000E+3	2.00000000E+0	-9.80612648E+0	7.21921100E+6
139	12/06/2023	18:00:32.438	1.84499539E+0	-2.20600000E+3	2.00000000E+0	-9.80612648E+0	7.21921100E+6
140	12/06/2023	18:00:34.440	6.50791349E-1	-2.50500000E+3	2.00000000E+0	-9.80612648E+0	7.21921100E+6
141	12/06/2023	18:00:36.559	6.04158333E+0	-2.50900000E+3	2.00000000E+0	-9.80612648E+0	7.21921100E+6
142	12/06/2023	18:00:38.486	3.33103928E+0	-2.31100000E+3	2.00000000E+0	-9.80612648E+0	7.21921100E+6
143	12/06/2023	18:00:40.516	7.47815634E-1	-2.12100000E+3	2.00000000E+0	-9.80612648E+0	7.21921100E+6
144	12/06/2023	18:00:42.665	1.69466528E+0	-2.48100000E+3	2.00000000E+0	-9.80612648E+0	7.21921100E+6
145	12/06/2023	18:00:44.659	1.17502928E+0	-2.49700000E+3	2.00000000E+0	-9.80612648E+0	7.21921100E+6
146	12/06/2023	18:00:46.586	4.64259285E+0	-2.48000000E+3	2.00000000E+0	-9.80612648E+0	7.21921100E+6
147	12/06/2023	18:00:48.436	1.77519927E+0	-2.19200000E+3	2.00000000E+0	-9.80612648E+0	7.21921100E+6
148	12/06/2023	18:00:50.299	2.21621874E+0	-2.21400000E+3	2.00000000E+0	-9.80612648E+0	7.21921100E+6
149	12/06/2023	18:00:52.169	4.25104426E+0	-2.47800000E+3	2.00000000E+0	-9.80612648E+0	7.21921100E+6
150	12/06/2023	18:00:54.002	5.69413668E+0	-2.50900000E+3	2.00000000E+0	-9.80612648E+0	7.21921100E+6
151	12/06/2023	18:00:56.022	6.86839898E-1	-2.47400000E+3	2.00000000E+0	-9.80612648E+0	7.21921100E+6
152	12/06/2023	18:00:58.129	1.17502928E+0	-2.12100000E+3	2.00000000E+0	-9.80612648E+0	7.21921100E+6
153	12/06/2023	18:01:00.134	1.64404391E+0	-2.22400000E+3	2.00000000E+0	-9.80612648E+0	7.21921100E+6
154	12/06/2023	18:01:02.169	4.52907828E+0	-2.51300000E+3	2.00000000E+0	-9.80612648E+0	7.21921100E+6
155	12/06/2023	18:01:04.171	5.49356870E+0	-2.51400000E+3	2.00000000E+0	-9.80612648E+0	7.21921100E+6
156	12/06/2023	18:01:06.090	2.03942746E+0	-2.40600000E+3	2.00000000E+0	-9.80612648E+0	7.21921100E+6
157	12/06/2023	18:01:08.227	5.98866100E+0	-2.04900000E+3	2.00000000E+0	-9.80612648E+0	7.21921100E+6
158	12/06/2023	18:01:10.170	5.18408807E+0	-2.33600000E+3	2.00000000E+0	-9.80612648E+0	7.21921100E+6
159	12/06/2023	18:01:12.135	1.25978172E+0	-2.51800000E+3	2.00000000E+0	-9.80612648E+0	7.21921100E+6
160	12/06/2023	18:01:14.088	2.17901971E+0	-2.51800000E+3	2.00000000E+0	-9.80612648E+0	7.21921100E+6
161	12/06/2023	18:01:15.927	4.59197149E+0	-2.35600000E+3	2.00000000E+0	-9.80612648E+0	7.21921100E+6
162	12/06/2023	18:01:17.778	4.34193262E+0	-2.04500000E+3	2.00000000E+0	-9.80612648E+0	7.21921100E+6
163	12/06/2023	18:01:19.769	3.96303937E+0	-2.37600000E+3	2.00000000E+0	-9.80612648E+0	7.21921100E+6
164	12/06/2023	18:01:21.704	4.61881615E+0	-2.50400000E+3	2.00000000E+0	-9.80612648E+0	7.21921100E+6
165	12/06/2023	18:01:23.805	2.30902458E+0	-2.51200000E+3	2.00000000E+0	-9.80612648E+0	7.21921100E+6
166	12/06/2023	18:01:25.740	7.63155442E-2	-2.32300000E+3	2.00000000E+0	-9.80612648E+0	7.21921100E+6
167	12/06/2023	18:01:27.827	3.46641309E+0	-2.00400000E+3	2.00000000E+0	-9.80612648E+0	7.21921100E+6
168	12/06/2023	18:01:29.825	6.12058334E+0	-2.36800000E+3	2.00000000E+0	-9.80612648E+0	7.21921100E+6
169	12/06/2023	18:01:31.691	5.50047161E+0	-2.51400000E+3	2.00000000E+0	-9.80612648E+0	7.21921100E+6
170	12/06/2023	18:01:33.842	2.61965569E+0	-2.51900000E+3	2.00000000E+0	-9.80612648E+0	7.21921100E+6
171	12/06/2023	18:01:35.667	4.95974338E+0	-2.34400000E+3	2.00000000E+0	-9.80612648E+0	7.21921100E+6
172	12/06/2023	18:01:37.534	3.50399561E+0	-1.96700000E+3	2.00000000E+0	-9.80612648E+0	7.21921100E+6
173	12/06/2023	18:01:39.436	1.09909723E+0	-2.28800000E+3	2.00000000E+0	-9.80612648E+0	7.21921100E+6
174	12/06/2023	18:01:41.277	5.90275807E+0	-2.51300000E+3	2.00000000E+0	-9.80612648E+0	7.21921100E+6
175	12/06/2023	18:01:43.277	5.90390856E+0	-2.50400000E+3	2.00000000E+0	-9.80612648E+0	7.21921100E+6
176	12/06/2023	18:01:45.187	2.38495663E+0	-2.43400000E+3	2.00000000E+0	-9.80612648E+0	7.21921100E+6
177	12/06/2023	18:01:47.208	1.17272831E+0	-2.07600000E+3	2.00000000E+0	-9.80612648E+0	7.21921100E+6
178	12/06/2023	18:01:49.283	4.71737442E+0	-2.36300000E+3	2.00000000E+0	-9.80612648E+0	7.21921100E+6
179	12/06/2023	18:01:51.279	2.42177217E+0	-2.50200000E+3	2.00000000E+0	-9.80612648E+0	7.21921100E+6
180	12/06/2023	18:01:53.269	3.84032090E+0	-2.50300000E+3	2.00000000E+0	-9.80612648E+0	7.21921100E+6
181	12/06/2023	18:01:55.323	5.33748615E+0	-2.25000000E+3	2.00000000E+0	-9.80612648E+0	7.21921100E+6
182	12/06/2023	18:01:57.326	2.95789845E+0	-2.25100000E+3	2.00000000E+0	-9.80612648E+0	7.21921100E+6
183	12/06/2023	18:01:59.207	4.75035500E+0	-2.49700000E+3	2.00000000E+0	-9.80612648E+0	7.21921100E+6
184	12/06/2023	18:02:01.064	1.64787886E+0	-2.47200000E+3	2.00000000E+0	-9.80612648E+0	7.21921100E+6
185	12/06/2023	18:02:02.823	3.08598585E+0	-2.49500000E+3	2.00000000E+0	-9.80612648E+0	7.21921100E+6
186	12/06/2023	18:02:04.742	3.76822381E+0	-2.20100000E+3	2.00000000E+0	-9.80612648E+0	7.21921100E+6
187	12/06/2023	18:02:06.720	4.72197636E+0	-2.24600000E+3	2.00000000E+0	-9.80612648E+0	7.21921100E+6
188	12/06/2023	18:02:08.750	4.97124824E+0	-2.49900000E+3	2.00000000E+0	-9.80612648E+0	7.21921100E+6
189	12/06/2023	18:02:10.815	2.15064106E+0	-2.50200000E+3	2.00000000E+0	-9.80612648E+0	7.21921100E+6
190	12/06/2023	18:02:12.770	6.20073384E+0	-2.47400000E+3	2.00000000E+0	-9.80612648E+0	7.21921100E+6
191	12/06/2023	18:02:14.896	5.06827252E+0	-2.17300000E+3	2.00000000E+0	-9.80612648E+0	7.21921100E+6
192	12/06/2023	18:02:16.780	5.41265121E+0	-2.19600000E+3	2.00000000E+0	-9.80612648E+0	7.21921100E+6
193	12/06/2023	18:02:18.746	7.65839908E-1	-2.47200000E+3	2.00000000E+0	-9.80612648E+0	7.21921100E+6
194	12/06/2023	18:02:20.775	5.88703477E+0	-2.50900000E+3	2.00000000E+0	-9.80612648E+0	7.21921100E+6
195	12/06/2023	18:02:22.600	6.07993285E+0	-2.50900000E+3	2.00000000E+0	-9.80612648E+0	7.21921100E+6
196	12/06/2023	18:02:24.594	4.03858792E+0	-2.30300000E+3	2.00000000E+0	-9.80612648E+0	7.21921100E+6
197	12/06/2023	18:02:26.437	1.92361191E+0	-2.08800000E+3	2.00000000E+0	-9.80612648E+0	7.21921100E+6
198	12/06/2023	18:02:28.360	7.52034081E-1	-2.40500000E+3	2.00000000E+0	-9.80612648E+0	7.21921100E+6
199	12/06/2023	18:02:30.397	1.34146620E+0	-2.50400000E+3	2.00000000E+0	-9.80612648E+0	7.21921100E+6
200	12/06/2023	18:02:32.376	2.74582561E+0	-2.51100000E+3	2.00000000E+0	-9.80612648E+0	7.21921100E+6
201	12/06/2023	18:02:34.441	3.30879656E+0	-2.30300000E+3	2.00000000E+0	-9.80612648E+0	7.21921100E+6
202	12/06/2023	18:02:36.459	1.89561676E+0	-2.11800000E+3	2.00000000E+0	-9.80612648E+0	7.21921100E+6
203	12/06/2023	18:02:38.465	6.25940860E+0	-2.43000000E+3	2.00000000E+0	-9.80612648E+0	7.21921100E+6
204	12/06/2023	18:02:40.389	5.11966088E+0	-2.51600000E+3	2.00000000E+0	-9.80612648E+0	7.21921100E+6
205	12/06/2023	18:02:42.389	4.23877241E+0	-2.51500000E+3	2.00000000E+0	-9.80612648E+0	7.21921100E+6
206	12/06/2023	18:02:44.331	1.20570890E+0	-2.29700000E+3	2.00000000E+0	-9.80612648E+0	7.21921100E+6
207	12/06/2023	18:02:46.232	4.16284036E+0	-2.06600000E+3	2.00000000E+0	-9.80612648E+0	7.21921100E+6
208	12/06/2023	18:02:48.085	4.12602482E+0	-2.39400000E+3	2.00000000E+0	-9.80612648E+0	7.21921100E+6
209	12/06/2023	18:02:49.998	3.79276750E+0	-2.51300000E+3	2.00000000E+0	-9.80612648E+0	7.21921100E+6
210	12/06/2023	18:02:51.830	4.08384035E+0	-2.52000000E+3	2.00000000E+0	-9.80612648E+0	7.21921100E+6
211	12/06/2023	18:02:53.753	3.60715582E+0	-2.38600000E+3	2.00000000E+0	-9.80612648E+0	7.21921100E+6
212	12/06/2023	18:02:55.771	1.08375743E+0	-2.05900000E+3	2.00000000E+0	-9.80612648E+0	7.21921100E+6
213	12/06/2023	18:02:57.780	4.58698605E+0	-2.33900000E+3	2.00000000E+0	-9.80612648E+0	7.21921100E+6
214	12/06/2023	18:02:59.799	4.51910740E+0	-2.51100000E+3	2.00000000E+0	-9.80612648E+0	7.21921100E+6
215	12/06/2023	18:03:01.868	1.09871374E+0	-2.50900000E+3	2.00000000E+0	-9.80612648E+0	7.21921100E+6
216	12/06/2023	18:03:03.885	1.36600989E+0	-2.32300000E+3	2.00000000E+0	-9.80612648E+0	7.21921100E+6
217	12/06/2023	18:03:06.046	5.75089397E+0	-2.12100000E+3	2.00000000E+0	-9.80612648E+0	7.21921100E+6
218	12/06/2023	18:03:07.909	3.41847619E+0	-2.42000000E+3	2.00000000E+0	-9.80612648E+0	7.21921100E+6
219	12/06/2023	18:03:09.871	2.02868959E-1	-2.51200000E+3	2.00000000E+0	-9.80612648E+0	7.21921100E+6
220	12/06/2023	18:03:11.825	3.80312187E+0	-2.51500000E+3	2.00000000E+0	-9.80612648E+0	7.21921100E+6
221	12/06/2023	18:03:13.646	5.55109298E+0	-2.34100000E+3	2.00000000E+0	-9.80612648E+0	7.21921100E+6
222	12/06/2023	18:03:15.483	2.93373826E-1	-2.06900000E+3	2.00000000E+0	-9.80612648E+0	7.21921100E+6
223	12/06/2023	18:03:17.488	4.69819966E+0	-2.32800000E+3	2.00000000E+0	-9.80612648E+0	7.21921100E+6
224	12/06/2023	18:03:19.418	2.96863632E+0	-2.50700000E+3	2.00000000E+0	-9.80612648E+0	7.21921100E+6
225	12/06/2023	18:03:21.503	3.39738395E+0	-2.52300000E+3	2.00000000E+0	-9.80612648E+0	7.21921100E+6
226	12/06/2023	18:03:23.348	9.92869065E-1	-2.38700000E+3	2.00000000E+0	-9.80612648E+0	7.21921100E+6
227	12/06/2023	18:03:25.289	7.56252528E-1	-2.18400000E+3	2.00000000E+0	-9.80612648E+0	7.21921100E+6
228	12/06/2023	18:03:27.299	1.62410216E+0	-2.49900000E+3	2.00000000E+0	-9.80612648E+0	7.21921100E+6
229	12/06/2023	18:03:29.458	3.38818007E+0	-2.48200000E+3	2.00000000E+0	-9.80612648E+0	7.21921100E+6
230	12/06/2023	18:03:31.529	4.27328698E+0	-2.51400000E+3	2.00000000E+0	-9.80612648E+0	7.21921100E+6
231	12/06/2023	18:03:33.384	1.04349043E+0	-2.40500000E+3	2.00000000E+0	-9.80612648E+0	7.21921100E+6
232	12/06/2023	18:03:35.232	8.62864193E-2	-2.09500000E+3	2.00000000E+0	-9.80612648E+0	7.21921100E+6
233	12/06/2023	18:03:37.191	4.40099088E+0	-2.28200000E+3	2.00000000E+0	-9.80612648E+0	7.21921100E+6
234	12/06/2023	18:03:38.966	3.21752470E+0	-2.48000000E+3	2.00000000E+0	-9.80612648E+0	7.21921100E+6
235	12/06/2023	18:03:41.073	4.26983552E+0	-2.51200000E+3	2.00000000E+0	-9.80612648E+0	7.21921100E+6
236	12/06/2023	18:03:43.066	4.15056852E+0	-2.51600000E+3	2.00000000E+0	-9.80612648E+0	7.21921100E+6
237	12/06/2023	18:03:45.029	1.55507302E+0	-2.41300000E+3	2.00000000E+0	-9.80612648E+0	7.21921100E+6
238	12/06/2023	18:03:47.074	6.29699113E-1	-2.10400000E+3	2.00000000E+0	-9.80612648E+0	7.21921100E+6
239	12/06/2023	18:03:49.097	2.35235954E+0	-2.31100000E+3	2.00000000E+0	-9.80612648E+0	7.21921100E+6
240	12/06/2023	18:03:51.044	5.47324345E+0	-2.50600000E+3	2.00000000E+0	-9.80612648E+0	7.21921100E+6
241	12/06/2023	18:03:53.551	9.32276824E-1	-2.51700000E+3	2.00000000E+0	-9.80612648E+0	7.21921100E+6
242	12/06/2023	18:03:55.690	8.13009818E-1	-2.33000000E+3	2.00000000E+0	-9.80612648E+0	7.21921100E+6
243	12/06/2023	18:03:57.642	9.75611781E-1	-2.03600000E+3	2.00000000E+0	-9.80612648E+0	7.21921100E+6
244	12/06/2023	18:03:59.465	5.41955412E+0	-2.28500000E+3	2.00000000E+0	-9.80612648E+0	7.21921100E+6
245	12/06/2023	18:04:01.218	5.01918514E+0	-2.49000000E+3	2.00000000E+0	-9.80612648E+0	7.21921100E+6
246	12/06/2023	18:04:03.134	5.31831139E+0	-2.50800000E+3	2.00000000E+0	-9.80612648E+0	7.21921100E+6
247	12/06/2023	18:04:05.142	3.79238400E+0	-2.48200000E+3	2.00000000E+0	-9.80612648E+0	7.21921100E+6
248	12/06/2023	18:04:07.046	4.66483558E+0	-2.21000000E+3	2.00000000E+0	-9.80612648E+0	7.21921100E+6
249	12/06/2023	18:04:09.143	4.55477245E+0	-2.17900000E+3	2.00000000E+0	-9.80612648E+0	7.21921100E+6
250	12/06/2023	18:04:11.157	2.14450514E+0	-2.47500000E+3	2.00000000E+0	-9.80612648E+0	7.21921100E+6
251	12/06/2023	18:04:13.178	2.75311202E+0	-2.52100000E+3	2.00000000E+0	-9.80612648E+0	7.21921100E+6
252	12/06/2023	18:04:15.259	2.16444689E+0	-2.44700000E+3	2.00000000E+0	-9.80612648E+0	7.21921100E+6
253	12/06/2023	18:04:17.229	9.51068088E-1	-2.10500000E+3	2.00000000E+0	-9.80612648E+0	7.21921100E+6
254	12/06/2023	18:04:19.304	4.82283560E+0	-2.36500000E+3	2.00000000E+0	-9.80612648E+0	7.21921100E+6
255	12/06/2023	18:04:21.091	1.84269442E+0	-2.51200000E+3	2.00000000E+0	-9.80612648E+0	7.21921100E+6
256	12/06/2023	18:04:22.947	4.61076275E+0	-2.51600000E+3	2.00000000E+0	-9.80612648E+0	7.21921100E+6
257	12/06/2023	18:04:24.786	5.63776289E+0	-2.40100000E+3	2.00000000E+0	-9.80612648E+0	7.21921100E+6
258	12/06/2023	18:04:26.591	4.01749568E+0	-2.12000000E+3	2.00000000E+0	-9.80612648E+0	7.21921100E+6
259	12/06/2023	18:04:28.802	4.12832580E+0	-2.36600000E+3	2.00000000E+0	-9.80612648E+0	7.21921100E+6
260	12/06/2023	18:04:30.667	4.52869478E+0	-2.52600000E+3	2.00000000E+0	-9.80612648E+0	7.21921100E+6
261	12/06/2023	18:04:32.672	3.66352962E+0	-2.51800000E+3	2.00000000E+0	-9.80612648E+0	7.21921100E+6
262	12/06/2023	18:04:34.815	4.48497633E+0	-2.32400000E+3	2.00000000E+0	-9.80612648E+0	7.21921100E+6
263	12/06/2023	18:04:36.762	9.15403035E-1	-2.16800000E+3	2.00000000E+0	-9.80612648E+0	7.21921100E+6
264	12/06/2023	18:04:38.731	5.81608816E+0	-2.46100000E+3	2.00000000E+0	-9.80612648E+0	7.21921100E+6
265	12/06/2023	18:04:40.684	4.44087438E-1	-2.51000000E+3	2.00000000E+0	-9.80612648E+0	7.21921100E+6
266	12/06/2023	18:04:42.632	3.90666557E+0	-2.49000000E+3	2.00000000E+0	-9.80612648E+0	7.21921100E+6
267	12/06/2023	18:04:44.579	7.36310778E-1	-2.22200000E+3	2.00000000E+0	-9.80612648E+0	7.21921100E+6
268	12/06/2023	18:04:46.590	3.54809756E+0	-2.18000000E+3	2.00000000E+0	-9.80612648E+0	7.21921100E+6
269	12/06/2023	18:04:48.434	1.11673801E+0	-2.47000000E+3	2.00000000E+0	-9.80612648E+0	7.21921100E+6
270	12/06/2023	18:04:50.446	1.42468466E+0	-2.50300000E+3	2.00000000E+0	-9.80612648E+0	7.21921100E+6
271	12/06/2023	18:04:52.442	2.60546637E+0	-2.49200000E+3	2.00000000E+0	-9.80612648E+0	7.21921100E+6
272	12/06/2023	18:04:54.418	5.19597642E+0	-2.21400000E+3	2.00000000E+0	-9.80612648E+0	7.21921100E+6
273	12/06/2023	18:04:56.423	5.95491342E+0	-2.24200000E+3	2.00000000E+0	-9.80612648E+0	7.21921100E+6
274	12/06/2023	18:04:58.390	3.70034516E+0	-2.50300000E+3	2.00000000E+0	-9.80612648E+0	7.21921100E+6
275	12/06/2023	18:05:00.525	1.34645164E+0	-2.50900000E+3	2.00000000E+0	-9.80612648E+0	7.21921100E+6
276	12/06/2023	18:05:02.528	2.99931594E+0	-2.46000000E+3	2.00000000E+0	-9.80612648E+0	7.21921100E+6
277	12/06/2023	18:05:04.607	3.72297137E+0	-2.12000000E+3	2.00000000E+0	-9.80612648E+0	7.21921100E+6
278	12/06/2023	18:05:06.460	6.24598627E+0	-2.24500000E+3	2.00000000E+0	-9.80612648E+0	7.21921100E+6
279	12/06/2023	18:05:08.273	3.10707809E+0	-2.47900000E+3	2.00000000E+0	-9.80612648E+0	7.21921100E+6
280	12/06/2023	18:05:10.135	6.02969498E+0	-2.50700000E+3	2.00000000E+0	-9.80612648E+0	7.21921100E+6
281	12/06/2023	18:05:11.945	2.80334989E-1	-2.47500000E+3	2.00000000E+0	-9.80612648E+0	7.21921100E+6
282	12/06/2023	18:05:13.766	2.81025280E+0	-2.17600000E+3	2.00000000E+0	-9.80612648E+0	7.21921100E+6
283	12/06/2023	18:05:15.776	1.38058271E-2	-2.26100000E+3	2.00000000E+0	-9.80612648E+0	7.21921100E+6
284	12/06/2023	18:05:17.715	4.16168988E+0	-2.50500000E+3	2.00000000E+0	-9.80612648E+0	7.21921100E+6
285	12/06/2023	18:05:19.797	4.88649580E+0	-2.51800000E+3	2.00000000E+0	-9.80612648E+0	7.21921100E+6
286	12/06/2023	18:05:21.820	2.08084494E+0	-2.36300000E+3	2.00000000E+0	-9.80612648E+0	7.21921100E+6
287	12/06/2023	18:05:23.819	3.71453448E+0	-2.07400000E+3	2.00000000E+0	-9.80612648E+0	7.21921100E+6
288	12/06/2023	18:05:25.878	3.67733544E+0	-2.41400000E+3	2.00000000E+0	-9.80612648E+0	7.21921100E+6
289	12/06/2023	18:05:27.938	1.63330604E+0	-2.50600000E+3	2.00000000E+0	-9.80612648E+0	7.21921100E+6
290	12/06/2023	18:05:29.918	5.03260747E+0	-2.48200000E+3	2.00000000E+0	-9.80612648E+0	7.21921100E+6
291	12/06/2023	18:05:31.727	4.31662194E+0	-2.18800000E+3	2.00000000E+0	-9.80612648E+0	7.21921100E+6
292	12/06/2023	18:05:33.553	5.94264157E+0	-2.26600000E+3	2.00000000E+0	-9.80612648E+0	7.21921100E+6
293	12/06/2023	18:05:35.409	5.96258332E+0	-2.50800000E+3	2.00000000E+0	-9.80612648E+0	7.21921100E+6
294	12/06/2023	18:05:37.311	3.02385963E+0	-2.51000000E+3	2.00000000E+0	-9.80612648E+0	7.21921100E+6
295	12/06/2023	18:05:39.235	1.72381091E+0	-2.44900000E+3	2.00000000E+0	-9.80612648E+0	7.21921100E+6
296	12/06/2023	18:05:41.208	3.19719946E+0	-2.10400000E+3	2.00000000E+0	-9.80612648E+0	7.21921100E+6
297	12/06/2023	18:05:43.210	5.88473380E+0	-2.36300000E+3	2.00000000E+0	-9.80612648E+0	7.21921100E+6
298	12/06/2023	18:05:45.262	1.24252444E-1	-2.50700000E+3	2.00000000E+0	-9.80612648E+0	7.21921100E+6
299	12/06/2023	18:05:47.487	5.37545218E+0	-2.50000000E+3	2.00000000E+0	-9.80612648E+0	7.21921100E+6
300	12/06/2023	18:05:49.440	3.96265587E+0	-2.21900000E+3	2.00000000E+0	-9.80612648E+0	7.21921100E+6
301	12/06/2023	18:05:51.606	5.34477256E+0	-2.25600000E+3	2.00000000E+0	-9.80612648E+0	7.21921100E+6
302	12/06/2023	18:05:53.443	5.01918514E+0	-2.49800000E+3	2.00000000E+0	-9.80612648E+0	7.21921100E+6
303	12/06/2023	18:05:55.286	2.18592262E-2	-2.51300000E+3	2.00000000E+0	-9.80612648E+0	7.21921100E+6
304	12/06/2023	18:05:57.183	3.27044704E+0	-2.47400000E+3	2.00000000E+0	-9.80612648E+0	7.21921100E+6
305	12/06/2023	18:05:59.031	8.85106915E-1	-2.20800000E+3	2.00000000E+0	-9.80612648E+0	7.21921100E+6
306	12/06/2023	18:06:00.942	1.98957308E+0	-2.21300000E+3	2.00000000E+0	-9.80612648E+0	7.21921100E+6
307	12/06/2023	18:06:02.947	4.23685494E+0	-2.49000000E+3	2.00000000E+0	-9.80612648E+0	7.21921100E+6
308	12/06/2023	18:06:04.882	4.81133074E+0	-2.49800000E+3	2.00000000E+0	-9.80612648E+0	7.21921100E+6
309	12/06/2023	18:06:07.054	1.72994683E+0	-2.48300000E+3	2.00000000E+0	-9.80612648E+0	7.21921100E+6
310	12/06/2023	18:06:08.987	6.32767075E-2	-2.19600000E+3	2.00000000E+0	-9.80612648E+0	7.21921100E+6
311	12/06/2023	18:06:10.989	3.32030142E+0	-2.13300000E+3	2.00000000E+0	-9.80612648E+0	7.21921100E+6
312	12/06/2023	18:06:12.930	4.59350547E+0	-2.47300000E+3	2.00000000E+0	-9.80612648E+0	7.21921100E+6
313	12/06/2023	18:06:14.915	3.35098103E+0	-2.50800000E+3	2.00000000E+0	-9.80612648E+0	7.21921100E+6
314	12/06/2023	18:06:16.781	1.81239830E+0	-2.48000000E+3	2.00000000E+0	-9.80612648E+0	7.21921100E+6
315	12/06/2023	18:06:18.765	2.93105379E+0	-2.20100000E+3	2.00000000E+0	-9.80612648E+0	7.21921100E+6
316	12/06/2023	18:06:20.541	3.42537910E+0	-2.22300000E+3	2.00000000E+0	-9.80612648E+0	7.21921100E+6
317	12/06/2023	18:06:22.441	1.68622838E+0	-2.49600000E+3	2.00000000E+0	-9.80612648E+0	7.21921100E+6
318	12/06/2023	18:06:24.242	4.41287923E+0	-2.48200000E+3	2.00000000E+0	-9.80612648E+0	7.21921100E+6
319	12/06/2023	18:06:26.281	5.00959776E+0	-2.51100000E+3	2.00000000E+0	-9.80612648E+0	7.21921100E+6
320	12/06/2023	18:06:28.210	3.35481598E+0	-2.31800000E+3	2.00000000E+0	-9.80612648E+0	7.21921100E+6
321	12/06/2023	18:06:30.219	4.17281124E+0	-2.34500000E+3	2.00000000E+0	-9.80612648E+0	7.21921100E+6
322	12/06/2023	18:06:32.301	2.54717510E+0	-2.51300000E+3	2.00000000E+0	-9.80612648E+0	7.21921100E+6
323	12/06/2023	18:06:34.314	6.18386005E+0	-2.51200000E+3	2.00000000E+0	-9.80612648E+0	7.21921100E+6
324	12/06/2023	18:06:36.409	3.22135965E-2	-2.36500000E+3	2.00000000E+0	-9.80612648E+0	7.21921100E+6
325	12/06/2023	18:06:38.435	1.02700014E+0	-2.10100000E+3	2.00000000E+0	-9.80612648E+0	7.21921100E+6
326	12/06/2023	18:06:40.332	2.48274791E+0	-2.41100000E+3	2.00000000E+0	-9.80612648E+0	7.21921100E+6
327	12/06/2023	18:06:42.158	3.17879169E+0	-2.51200000E+3	2.00000000E+0	-9.80612648E+0	7.21921100E+6
328	12/06/2023	18:06:43.968	2.91648097E+0	-2.51300000E+3	2.00000000E+0	-9.80612648E+0	7.21921100E+6
329	12/06/2023	18:06:45.804	3.38319463E+0	-2.37600000E+3	2.00000000E+0	-9.80612648E+0	7.21921100E+6
330	12/06/2023	18:06:47.702	6.10639402E+0	-2.08100000E+3	2.00000000E+0	-9.80612648E+0	7.21921100E+6
331	12/06/2023	18:06:49.712	6.04580178E+0	-2.41700000E+3	2.00000000E+0	-9.80612648E+0	7.21921100E+6
332	12/06/2023	18:06:51.725	8.77820506E-1	-2.50500000E+3	2.00000000E+0	-9.80612648E+0	7.21921100E+6
333	12/06/2023	18:06:53.719	2.13338378E+0	-2.50700000E+3	2.00000000E+0	-9.80612648E+0	7.21921100E+6
334	12/06/2023	18:06:55.667	2.34315565E-1	-2.24700000E+3	2.00000000E+0	-9.80612648E+0	7.21921100E+6
335	12/06/2023	18:06:57.672	2.78801008E+0	-2.17600000E+3	2.00000000E+0	-9.80612648E+0	7.21921100E+6
336	12/06/2023	18:06:59.614	4.60194236E-2	-2.47600000E+3	2.00000000E+0	-9.80612648E+0	7.21921100E+6
337	12/06/2023	18:07:01.611	5.67918037E+0	-2.50800000E+3	2.00000000E+0	-9.80612648E+0	7.21921100E+6
338	12/06/2023	18:07:03.522	7.10616600E-1	-2.49100000E+3	2.00000000E+0	-9.80612648E+0	7.21921100E+6
339	12/06/2023	18:07:05.372	2.42752460E+0	-2.24700000E+3	2.00000000E+0	-9.80612648E+0	7.21921100E+6
340	12/06/2023	18:07:07.364	2.31055856E+0	-2.35700000E+3	2.00000000E+0	-9.80612648E+0	7.21921100E+6
341	12/06/2023	18:07:09.211	5.83219496E+0	-2.51900000E+3	2.00000000E+0	-9.80612648E+0	7.21921100E+6
342	12/06/2023	18:07:11.039	4.90912202E+0	-2.51300000E+3	2.00000000E+0	-9.80612648E+0	7.21921100E+6
343	12/06/2023	18:07:13.041	2.89117029E+0	-2.47300000E+3	2.00000000E+0	-9.80612648E+0	7.21921100E+6
344	12/06/2023	18:07:14.975	7.98437000E-1	-2.26400000E+3	2.00000000E+0	-9.80612648E+0	7.21921100E+6
345	12/06/2023	18:07:16.951	1.08874286E+0	-2.40500000E+3	2.00000000E+0	-9.80612648E+0	7.21921100E+6
346	12/06/2023	18:07:18.971	2.66874308E+0	-2.51500000E+3	2.00000000E+0	-9.80612648E+0	7.21921100E+6
347	12/06/2023	18:07:20.932	5.72558329E+0	-2.52000000E+3	2.00000000E+0	-9.80612648E+0	7.21921100E+6
348	12/06/2023	18:07:22.975	6.02854450E+0	-2.39800000E+3	2.00000000E+0	-9.80612648E+0	7.21921100E+6
349	12/06/2023	18:07:24.973	4.28785980E+0	-2.09600000E+3	2.00000000E+0	-9.80612648E+0	7.21921100E+6
350	12/06/2023	18:07:26.809	5.12349583E-1	-2.30300000E+3	2.00000000E+0	-9.80612648E+0	7.21921100E+6
351	12/06/2023	18:07:28.743	4.98236960E+0	-2.49500000E+3	2.00000000E+0	-9.80612648E+0	7.21921100E+6
352	12/06/2023	18:07:30.496	2.37306828E+0	-2.51800000E+3	2.00000000E+0	-9.80612648E+0	7.21921100E+6
353	12/06/2023	18:07:32.470	5.26270459E+0	-2.50000000E+3	2.00000000E+0	-9.80612648E+0	7.21921100E+6
354	12/06/2023	18:07:34.303	3.57034028E+0	-2.33700000E+3	2.00000000E+0	-9.80612648E+0	7.21921100E+6
355	12/06/2023	18:07:36.207	1.82582063E+0	-2.11100000E+3	2.00000000E+0	-9.80612648E+0	7.21921100E+6
356	12/06/2023	18:07:38.248	9.13102064E-1	-2.37500000E+3	2.00000000E+0	-9.80612648E+0	7.21921100E+6
357	12/06/2023	18:07:40.282	2.49732072E+0	-2.51800000E+3	2.00000000E+0	-9.80612648E+0	7.21921100E+6
358	12/06/2023	18:07:42.225	2.13568475E+0	-2.52000000E+3	2.00000000E+0	-9.80612648E+0	7.21921100E+6
359	12/06/2023	18:07:44.288	9.11184588E-1	-2.46500000E+3	2.00000000E+0	-9.80612648E+0	7.21921100E+6
360	12/06/2023	18:07:46.230	2.60776734E-2	-2.27100000E+3	2.00000000E+0	-9.80612648E+0	7.21921100E+6
361	12/06/2023	18:07:48.251	2.51304403E+0	-2.27400000E+3	2.00000000E+0	-9.80612648E+0	7.21921100E+6
362	12/06/2023	18:07:50.138	1.91325754E+0	-2.46800000E+3	2.00000000E+0	-9.80612648E+0	7.21921100E+6
363	12/06/2023	18:07:52.144	3.20448587E+0	-2.51400000E+3	2.00000000E+0	-9.80612648E+0	7.21921100E+6
364	12/06/2023	18:07:54.162	1.45383029E+0	-2.51700000E+3	2.00000000E+0	-9.80612648E+0	7.21921100E+6
365	12/06/2023	18:07:55.990	3.26968005E+0	-2.45800000E+3	2.00000000E+0	-9.80612648E+0	7.21921100E+6
366	12/06/2023	18:07:57.906	3.44455386E+0	-2.20400000E+3	2.00000000E+0	-9.80612648E+0	7.21921100E+6
367	12/06/2023	18:07:59.888	1.60070895E+0	-2.03800000E+3	2.00000000E+0	-9.80612648E+0	7.21921100E+6
368	12/06/2023	18:08:01.891	1.99647600E+0	-2.42700000E+3	2.00000000E+0	-9.80612648E+0	7.21921100E+6
369	12/06/2023	18:08:04.002	5.15839389E+0	-2.50400000E+3	2.00000000E+0	-9.80612648E+0	7.21921100E+6
370	12/06/2023	18:08:05.993	3.04571885E+0	-2.51800000E+3	2.00000000E+0	-9.80612648E+0	7.21921100E+6
371	12/06/2023	18:08:07.869	4.21269474E+0	-2.47000000E+3	2.00000000E+0	-9.80612648E+0	7.21921100E+6
372	12/06/2023	18:08:09.936	5.72980174E+0	-2.12400000E+3	2.00000000E+0	-9.80612648E+0	7.21921100E+6
373	12/06/2023	18:08:11.944	2.80948581E+0	-2.27600000E+3	2.00000000E+0	-9.80612648E+0	7.21921100E+6
374	12/06/2023	18:08:14.095	4.52831129E+0	-2.52500000E+3	2.00000000E+0	-9.80612648E+0	7.21921100E+6
375	12/06/2023	18:08:16.111	1.86110219E+0	-2.51600000E+3	2.00000000E+0	-9.80612648E+0	7.21921100E+6
376	12/06/2023	18:08:17.955	3.30726258E+0	-2.40400000E+3	2.00000000E+0	-9.80612648E+0	7.21921100E+6
377	12/06/2023	18:08:19.855	4.82973851E+0	-2.07500000E+3	2.00000000E+0	-9.80612648E+0	7.21921100E+6
378	12/06/2023	18:08:21.624	9.19237987E-1	-2.22000000E+3	2.00000000E+0	-9.80612648E+0	7.21921100E+6
379	12/06/2023	18:08:23.698	6.19766588E+0	-2.48300000E+3	2.00000000E+0	-9.80612648E+0	7.21921100E+6
380	12/06/2023	18:08:25.708	4.96702979E+0	-2.51400000E+3	2.00000000E+0	-9.80612648E+0	7.21921100E+6
381	12/06/2023	18:08:27.637	3.21790820E+0	-2.45200000E+3	2.00000000E+0	-9.80612648E+0	7.21921100E+6
382	12/06/2023	18:08:29.812	6.02087459E-1	-2.17500000E+3	2.00000000E+0	-9.80612648E+0	7.21921100E+6
383	12/06/2023	18:08:31.756	5.19214147E+0	-2.23300000E+3	2.00000000E+0	-9.80612648E+0	7.21921100E+6
384	12/06/2023	18:08:33.736	2.86701009E+0	-2.47200000E+3	2.00000000E+0	-9.80612648E+0	7.21921100E+6
385	12/06/2023	18:08:35.824	9.39946728E-1	-2.51000000E+3	2.00000000E+0	-9.80612648E+0	7.21921100E+6
386	12/06/2023	18:08:37.746	6.13208820E+0	-2.51000000E+3	2.00000000E+0	-9.80612648E+0	7.21921100E+6
387	12/06/2023	18:08:39.620	2.20049544E+0	-2.36700000E+3	2.00000000E+0	-9.80612648E+0	7.21921100E+6
388	12/06/2023	18:08:41.429	5.74169009E+0	-2.12900000E+3	2.00000000E+0	-9.80612648E+0	7.21921100E+6
389	12/06/2023	18:08:43.357	2.60278190E+0	-2.29600000E+3	2.00000000E+0	-9.80612648E+0	7.21921100E+6
390	12/06/2023	18:08:45.245	1.94700512E+0	-2.48900000E+3	2.00000000E+0	-9.80612648E+0	7.21921100E+6
391	12/06/2023	18:08:47.019	5.45905413E+0	-2.51200000E+3	2.00000000E+0	-9.80612648E+0	7.21921100E+6
392	12/06/2023	18:08:49.022	1.69581576E+0	-2.49400000E+3	2.00000000E+0	-9.80612648E+0	7.21921100E+6
393	12/06/2023	18:08:50.997	5.47554442E+0	-2.27200000E+3	2.00000000E+0	-9.80612648E+0	7.21921100E+6
394	12/06/2023	18:08:52.975	3.28885481E+0	-2.14400000E+3	2.00000000E+0	-9.80612648E+0	7.21921100E+6
395	12/06/2023	18:08:55.015	2.69827221E+0	-2.42100000E+3	2.00000000E+0	-9.80612648E+0	7.21921100E+6
396	12/06/2023	18:08:57.032	3.66046166E+0	-2.52000000E+3	2.00000000E+0	-9.80612648E+0	7.21921100E+6
397	12/06/2023	18:08:59.050	6.55776787E-1	-2.49800000E+3	2.00000000E+0	-9.80612648E+0	7.21921100E+6
398	12/06/2023	18:09:01.186	6.22604452E+0	-2.30000000E+3	2.00000000E+0	-9.80612648E+0	7.21921100E+6
399	12/06/2023	18:09:03.177	2.89960718E+0	-2.13900000E+3	2.00000000E+0	-9.80612648E+0	7.21921100E+6
400	12/06/2023	18:09:05.098	1.54241768E+0	-2.38400000E+3	2.00000000E+0	-9.80612648E+0	7.21921100E+6
401	12/06/2023	18:09:07.008	3.10937906E+0	-2.51300000E+3	2.00000000E+0	-9.80612648E+0	7.21921100E+6
402	12/06/2023	18:09:08.780	6.20840374E+0	-2.52100000E+3	2.00000000E+0	-9.80612648E+0	7.21921100E+6
403	12/06/2023	18:09:10.626	5.56758327E+0	-2.44200000E+3	2.00000000E+0	-9.80612648E+0	7.21921100E+6
404	12/06/2023	18:09:12.582	9.20004978E-1	-2.20800000E+3	2.00000000E+0	-9.80612648E+0	7.21921100E+6
405	12/06/2023	18:09:14.564	4.65486470E+0	-2.25400000E+3	2.00000000E+0	-9.80612648E+0	7.21921100E+6
406	12/06/2023	18:09:16.615	1.34645164E+0	-2.47800000E+3	2.00000000E+0	-9.80612648E+0	7.21921100E+6
407	12/06/2023	18:09:18.621	4.79253948E+0	-2.50800000E+3	2.00000000E+0	-9.80612648E+0	7.21921100E+6
408	12/06/2023	18:09:20.673	5.01956863E+0	-2.45500000E+3	2.00000000E+0	-9.80612648E+0	7.21921100E+6
409	12/06/2023	18:09:22.556	1.32075746E+0	-2.17800000E+3	2.00000000E+0	-9.80612648E+0	7.21921100E+6
410	12/06/2023	18:09:24.455	2.00683037E+0	-2.26600000E+3	2.00000000E+0	-9.80612648E+0	7.21921100E+6
411	12/06/2023	18:09:26.476	5.51657841E+0	-2.51100000E+3	2.00000000E+0	-9.80612648E+0	7.21921100E+6
412	12/06/2023	18:09:28.402	5.67227746E+0	-2.51000000E+3	2.00000000E+0	-9.80612648E+0	7.21921100E+6
413	12/06/2023	18:09:30.339	5.57602016E+0	-2.39800000E+3	2.00000000E+0	-9.80612648E+0	7.21921100E+6
414	12/06/2023	18:09:32.234	1.09296131E+0	-2.16400000E+3	2.00000000E+0	-9.80612648E+0	7.21921100E+6
415	12/06/2023	18:09:34.064	5.55531142E+0	-2.41900000E+3	2.00000000E+0	-9.80612648E+0	7.21921100E+6
416	12/06/2023	18:09:36.160	6.03199595E+0	-2.51500000E+3	2.00000000E+0	-9.80612648E+0	7.21921100E+6
417	12/06/2023	18:09:38.165	4.80442783E+0	-2.49900000E+3	2.00000000E+0	-9.80612648E+0	7.21921100E+6
418	12/06/2023	18:09:40.254	1.80472840E+0	-2.31600000E+3	2.00000000E+0	-9.80612648E+0	7.21921100E+6
419	12/06/2023	18:09:42.321	5.14343758E+0	-2.09800000E+3	2.00000000E+0	-9.80612648E+0	7.21921100E+6
420	12/06/2023	18:09:44.206	1.44769437E+0	-2.39700000E+3	2.00000000E+0	-9.80612648E+0	7.21921100E+6
421	12/06/2023	18:09:46.189	6.25480666E-1	-2.51100000E+3	2.00000000E+0	-9.80612648E+0	7.21921100E+6
422	12/06/2023	18:09:47.964	5.78732602E+0	-2.50600000E+3	2.00000000E+0	-9.80612648E+0	7.21921100E+6
423	12/06/2023	18:09:49.821	3.61252476E-1	-2.38800000E+3	2.00000000E+0	-9.80612648E+0	7.21921100E+6
424	12/06/2023	18:09:51.723	2.03981095E+0	-2.07800000E+3	2.00000000E+0	-9.80612648E+0	7.21921100E+6
425	12/06/2023	18:09:53.566	5.46020461E+0	-2.31400000E+3	2.00000000E+0	-9.80612648E+0	7.21921100E+6
426	12/06/2023	18:09:55.330	2.47737897E-1	-2.50200000E+3	2.00000000E+0	-9.80612648E+0	7.21921100E+6
427	12/06/2023	18:09:57.329	4.14289861E+0	-2.51100000E+3	2.00000000E+0	-9.80612648E+0	7.21921100E+6
428	12/06/2023	18:09:59.304	2.90344214E+0	-2.45100000E+3	2.00000000E+0	-9.80612648E+0	7.21921100E+6
429	12/06/2023	18:10:01.433	3.16882081E+0	-2.15300000E+3	2.00000000E+0	-9.80612648E+0	7.21921100E+6
430	12/06/2023	18:10:03.488	2.34008769E+0	-2.32500000E+3	2.00000000E+0	-9.80612648E+0	7.21921100E+6
431	12/06/2023	18:10:05.508	2.27029157E-1	-2.50800000E+3	2.00000000E+0	-9.80612648E+0	7.21921100E+6
432	12/06/2023	18:10:07.543	3.44340337E+0	-2.51800000E+3	2.00000000E+0	-9.80612648E+0	7.21921100E+6
433	12/06/2023	18:10:09.531	2.88886932E+0	-2.47000000E+3	2.00000000E+0	-9.80612648E+0	7.21921100E+6
434	12/06/2023	18:10:11.528	6.59611739E-2	-2.25500000E+3	2.00000000E+0	-9.80612648E+0	7.21921100E+6
435	12/06/2023	18:10:13.698	1.86647112E+0	-2.25500000E+3	2.00000000E+0	-9.80612648E+0	7.21921100E+6
436	12/06/2023	18:10:15.538	5.44179685E+0	-2.49200000E+3	2.00000000E+0	-9.80612648E+0	7.21921100E+6
437	12/06/2023	18:10:17.450	2.37843721E+0	-2.51700000E+3	2.00000000E+0	-9.80612648E+0	7.21921100E+6
438	12/06/2023	18:10:19.299	2.71169454E+0	-2.47000000E+3	2.00000000E+0	-9.80612648E+0	7.21921100E+6
439	12/06/2023	18:10:21.116	3.09288876E+0	-2.25300000E+3	2.00000000E+0	-9.80612648E+0	7.21921100E+6
440	12/06/2023	18:10:23.204	4.05009278E+0	-2.20100000E+3	2.00000000E+0	-9.80612648E+0	7.21921100E+6
441	12/06/2023	18:10:25.181	1.90520414E+0	-2.47500000E+3	2.00000000E+0	-9.80612648E+0	7.21921100E+6
442	12/06/2023	18:10:27.278	2.69213628E+0	-2.51400000E+3	2.00000000E+0	-9.80612648E+0	7.21921100E+6
443	12/06/2023	18:10:29.253	2.75426250E+0	-2.46000000E+3	2.00000000E+0	-9.80612648E+0	7.21921100E+6
444	12/06/2023	18:10:31.221	5.24544730E+0	-2.17900000E+3	2.00000000E+0	-9.80612648E+0	7.21921100E+6
445	12/06/2023	18:10:33.078	3.89554421E+0	-2.27700000E+3	2.00000000E+0	-9.80612648E+0	7.21921100E+6
446	12/06/2023	18:10:35.047	4.23762193E-1	-2.50000000E+3	2.00000000E+0	-9.80612648E+0	7.21921100E+6
447	12/06/2023	18:10:36.999	3.99640345E+0	-2.51600000E+3	2.00000000E+0	-9.80612648E+0	7.21921100E+6
448	12/06/2023	18:10:38.898	5.71599591E+0	-2.42500000E+3	2.00000000E+0	-9.80612648E+0	7.21921100E+6
449	12/06/2023	18:10:40.861	2.70402463E+0	-2.13700000E+3	2.00000000E+0	-9.80612648E+0	7.21921100E+6
450	12/06/2023	18:10:42.758	6.11943286E+0	-2.32100000E+3	2.00000000E+0	-9.80612648E+0	7.21921100E+6
451	12/06/2023	18:10:44.586	5.41917063E+0	-2.50900000E+3	2.00000000E+0	-9.80612648E+0	7.21921100E+6
452	12/06/2023	18:10:46.525	1.42736912E+0	-2.51000000E+3	2.00000000E+0	-9.80612648E+0	7.21921100E+6
453	12/06/2023	18:10:48.601	4.21691319E+0	-2.36300000E+3	2.00000000E+0	-9.80612648E+0	7.21921100E+6
454	12/06/2023	18:10:50.606	1.02354868E+0	-2.09200000E+3	2.00000000E+0	-9.80612648E+0	7.21921100E+6
455	12/06/2023	18:10:52.626	1.51634001E+0	-2.37200000E+3	2.00000000E+0	-9.80612648E+0	7.21921100E+6
456	12/06/2023	18:10:54.704	6.11291344E-1	-2.51000000E+3	2.00000000E+0	-9.80612648E+0	7.21921100E+6
457	12/06/2023	18:10:56.737	4.93289872E+0	-2.50100000E+3	2.00000000E+0	-9.80612648E+0	7.21921100E+6
458	12/06/2023	18:10:58.774	3.53390824E+0	-2.26700000E+3	2.00000000E+0	-9.80612648E+0	7.21921100E+6
459	12/06/2023	18:11:00.688	1.34606814E+0	-2.16800000E+3	2.00000000E+0	-9.80612648E+0	7.21921100E+6
460	12/06/2023	18:11:02.495	2.94677709E+0	-2.41100000E+3	2.00000000E+0	-9.80612648E+0	7.21921100E+6
461	12/06/2023	18:11:04.424	4.80135987E+0	-2.52100000E+3	2.00000000E+0	-9.80612648E+0	7.21921100E+6
462	12/06/2023	18:11:06.357	1.34798562E+0	-2.49500000E+3	2.00000000E+0	-9.80612648E+0	7.21921100E+6
463	12/06/2023	18:11:08.267	4.01020927E+0	-2.29100000E+3	2.00000000E+0	-9.80612648E+0	7.21921100E+6
464	12/06/2023	18:11:10.176	8.97762256E-1	-2.13500000E+3	2.00000000E+0	-9.80612648E+0	7.21921100E+6
465	12/06/2023	18:11:12.181	6.28203482E+0	-2.39400000E+3	2.00000000E+0	-9.80612648E+0	7.21921100E+6
466	12/06/2023	18:11:14.256	3.77551021E+0	-2.51600000E+3	2.00000000E+0	-9.80612648E+0	7.21921100E+6
467	12/06/2023	18:11:16.131	4.89608318E+0	-2.51800000E+3	2.00000000E+0	-9.80612648E+0	7.21921100E+6
468	12/06/2023	18:11:18.125	2.45743722E+0	-2.43900000E+3	2.00000000E+0	-9.80612648E+0	7.21921100E+6
469	12/06/2023	18:11:20.111	3.75288400E+0	-2.13800000E+3	2.00000000E+0	-9.80612648E+0	7.21921100E+6
470	12/06/2023	18:11:22.117	3.11014605E-1	-2.36600000E+3	2.00000000E+0	-9.80612648E+0	7.21921100E+6
471	12/06/2023	18:11:24.065	2.54103918E+0	-2.51400000E+3	2.00000000E+0	-9.80612648E+0	7.21921100E+6
472	12/06/2023	18:11:25.895	1.75717499E+0	-2.51300000E+3	2.00000000E+0	-9.80612648E+0	7.21921100E+6
473	12/06/2023	18:11:27.805	4.40597632E+0	-2.46300000E+3	2.00000000E+0	-9.80612648E+0	7.21921100E+6
474	12/06/2023	18:11:29.821	3.19834994E+0	-2.19900000E+3	2.00000000E+0	-9.80612648E+0	7.21921100E+6
475	12/06/2023	18:11:31.649	6.15011247E+0	-2.22700000E+3	2.00000000E+0	-9.80612648E+0	7.21921100E+6
476	12/06/2023	18:11:33.655	3.04188390E+0	-2.49200000E+3	2.00000000E+0	-9.80612648E+0	7.21921100E+6
477	12/06/2023	18:11:35.576	5.96641827E+0	-2.49200000E+3	2.00000000E+0	-9.80612648E+0	7.21921100E+6
478	12/06/2023	18:11:37.582	3.87100052E+0	-2.49900000E+3	2.00000000E+0	-9.80612648E+0	7.21921100E+6
479	12/06/2023	18:11:39.601	6.22681151E+0	-2.26800000E+3	2.00000000E+0	-9.80612648E+0	7.21921100E+6
480	12/06/2023	18:11:41.468	3.10401012E+0	-2.14600000E+3	2.00000000E+0	-9.80612648E+0	7.21921100E+6
481	12/06/2023	18:11:43.485	2.93028680E+0	-2.47400000E+3	2.00000000E+0	-9.80612648E+0	7.21921100E+6
482	12/06/2023	18:11:45.633	5.85673865E+0	-2.51000000E+3	2.00000000E+0	-9.80612648E+0	7.21921100E+6
483	12/06/2023	18:11:47.521	6.10946198E+0	-2.51200000E+3	2.00000000E+0	-9.80612648E+0	7.21921100E+6
484	12/06/2023	18:11:49.436	1.93358278E+0	-2.38500000E+3	2.00000000E+0	-9.80612648E+0	7.21921100E+6
485	12/06/2023	18:11:51.322	2.04211192E+0	-2.21200000E+3	2.00000000E+0	-9.80612648E+0	7.21921100E+6
486	12/06/2023	18:11:53.174	5.01956863E+0	-2.39500000E+3	2.00000000E+0	-9.80612648E+0	7.21921100E+6
487	12/06/2023	18:11:55.094	5.37161722E+0	-2.50200000E+3	2.00000000E+0	-9.80612648E+0	7.21921100E+6
488	12/06/2023	18:11:57.028	2.09081581E+0	-2.52200000E+3	2.00000000E+0	-9.80612648E+0	7.21921100E+6
489	12/06/2023	18:11:59.471	1.28854386E-1	-2.43600000E+3	2.00000000E+0	-9.80612648E+0	7.21921100E+6
490	12/06/2023	18:12:01.529	3.04495186E-1	-2.23300000E+3	2.00000000E+0	-9.80612648E+0	7.21921100E+6
491	12/06/2023	18:12:03.477	3.55231601E+0	-2.21600000E+3	2.00000000E+0	-9.80612648E+0	7.21921100E+6
492	12/06/2023	18:12:05.539	5.90697652E+0	-2.45200000E+3	2.00000000E+0	-9.80612648E+0	7.21921100E+6
493	12/06/2023	18:12:07.476	5.38235509E+0	-2.51700000E+3	2.00000000E+0	-9.80612648E+0	7.21921100E+6
494	12/06/2023	18:12:09.468	2.99663147E+0	-2.51300000E+3	2.00000000E+0	-9.80612648E+0	7.21921100E+6
495	12/06/2023	18:12:11.571	4.69666568E+0	-2.42900000E+3	2.00000000E+0	-9.80612648E+0	7.21921100E+6
496	12/06/2023	18:12:13.396	5.07057349E+0	-2.26300000E+3	2.00000000E+0	-9.80612648E+0	7.21921100E+6
497	12/06/2023	18:12:15.423	5.82529204E-1	-2.15900000E+3	2.00000000E+0	-9.80612648E+0	7.21921100E+6
498	12/06/2023	18:12:17.340	4.13676269E+0	-2.38100000E+3	2.00000000E+0	-9.80612648E+0	7.21921100E+6
499	12/06/2023	18:12:19.118	1.18308268E+0	-2.49600000E+3	2.00000000E+0	-9.80612648E+0	7.21921100E+6
500	12/06/2023	18:12:21.183	2.82827708E+0	-2.50600000E+3	2.00000000E+0	-9.80612648E+0	7.21921100E+6
