#Iteration	Date	Time	STSX	STSY	RotationRateX	RotationRateY	FrCntX	FrCntY	TiptiltCmd1	TiptiltCmd2	TiptiltMonitor1	TiptiltMonitor2
1	02/09/2022	17:28:52.368	0.00000E+0	0.00000E+0	1.60000E+2	0.00000E+0	0.00000E+0	0.00000E+0	2.00000E+1	1.40000E+1	2.00021E+1	1.40011E+1
2	02/09/2022	17:28:53.766	0.00000E+0	0.00000E+0	1.60000E+2	0.00000E+0	0.00000E+0	0.00000E+0	2.00000E+1	1.40000E+1	2.00004E+1	1.40007E+1
3	02/09/2022	17:28:55.203	0.00000E+0	0.00000E+0	1.60000E+2	0.00000E+0	0.00000E+0	0.00000E+0	2.00000E+1	1.40000E+1	1.99994E+1	1.39978E+1
4	02/09/2022	17:28:56.694	0.00000E+0	0.00000E+0	1.60000E+2	0.00000E+0	0.00000E+0	0.00000E+0	2.00000E+1	1.40000E+1	1.99998E+1	1.40011E+1
5	02/09/2022	17:28:58.072	0.00000E+0	0.00000E+0	1.60000E+2	0.00000E+0	0.00000E+0	0.00000E+0	2.00000E+1	1.40000E+1	1.99980E+1	1.40000E+1
6	02/09/2022	17:28:59.553	0.00000E+0	0.00000E+0	1.60000E+2	0.00000E+0	0.00000E+0	0.00000E+0	2.00000E+1	1.40000E+1	1.99972E+1	1.40011E+1
7	02/09/2022	17:29:00.937	0.00000E+0	0.00000E+0	1.60000E+2	0.00000E+0	0.00000E+0	0.00000E+0	2.00000E+1	1.40000E+1	2.00004E+1	1.40007E+1
8	02/09/2022	17:29:02.327	0.00000E+0	0.00000E+0	1.60000E+2	0.00000E+0	0.00000E+0	0.00000E+0	2.00000E+1	1.40000E+1	2.00009E+1	1.39996E+1
9	02/09/2022	17:29:03.845	0.00000E+0	0.00000E+0	1.60000E+2	0.00000E+0	0.00000E+0	0.00000E+0	2.00000E+1	1.40000E+1	2.00013E+1	1.39993E+1
10	02/09/2022	17:29:05.255	0.00000E+0	0.00000E+0	1.60000E+2	0.00000E+0	0.00000E+0	0.00000E+0	2.00000E+1	1.40000E+1	2.00008E+1	1.39999E+1
11	02/09/2022	17:29:06.806	0.00000E+0	0.00000E+0	1.60000E+2	0.00000E+0	0.00000E+0	0.00000E+0	2.00000E+1	1.40000E+1	1.99997E+1	1.39979E+1
12	02/09/2022	17:29:08.206	0.00000E+0	0.00000E+0	1.60000E+2	0.00000E+0	0.00000E+0	0.00000E+0	2.00000E+1	1.40000E+1	2.00006E+1	1.39986E+1
13	02/09/2022	17:29:09.612	0.00000E+0	0.00000E+0	1.60000E+2	0.00000E+0	0.00000E+0	0.00000E+0	2.00000E+1	1.40000E+1	2.00001E+1	1.40000E+1
14	02/09/2022	17:29:11.168	0.00000E+0	0.00000E+0	1.60000E+2	0.00000E+0	0.00000E+0	0.00000E+0	2.00000E+1	1.40000E+1	1.99979E+1	1.40006E+1
15	02/09/2022	17:29:12.565	0.00000E+0	0.00000E+0	1.60000E+2	0.00000E+0	0.00000E+0	0.00000E+0	2.00000E+1	1.40000E+1	1.99994E+1	1.39975E+1
16	02/09/2022	17:29:13.993	0.00000E+0	0.00000E+0	1.60000E+2	0.00000E+0	0.00000E+0	0.00000E+0	2.00000E+1	1.40000E+1	1.99989E+1	1.40006E+1
17	02/09/2022	17:29:15.499	0.00000E+0	0.00000E+0	1.60000E+2	0.00000E+0	0.00000E+0	0.00000E+0	2.00000E+1	1.40000E+1	2.00008E+1	1.39992E+1
18	02/09/2022	17:29:16.881	0.00000E+0	0.00000E+0	1.60000E+2	0.00000E+0	0.00000E+0	0.00000E+0	2.00000E+1	1.40000E+1	1.99999E+1	1.39994E+1
19	02/09/2022	17:29:18.356	0.00000E+0	0.00000E+0	1.60000E+2	0.00000E+0	0.00000E+0	0.00000E+0	2.00000E+1	1.40000E+1	1.99995E+1	1.40008E+1
20	02/09/2022	17:29:19.753	0.00000E+0	0.00000E+0	1.60000E+2	0.00000E+0	0.00000E+0	0.00000E+0	2.00000E+1	1.40000E+1	1.99986E+1	1.39990E+1
21	02/09/2022	17:29:21.115	0.00000E+0	0.00000E+0	1.60000E+2	0.00000E+0	0.00000E+0	0.00000E+0	2.00000E+1	1.40000E+1	2.00004E+1	1.39993E+1
22	02/09/2022	17:29:22.665	0.00000E+0	0.00000E+0	1.60000E+2	0.00000E+0	0.00000E+0	0.00000E+0	2.00000E+1	1.40000E+1	1.99986E+1	1.39995E+1
23	02/09/2022	17:29:24.037	0.00000E+0	0.00000E+0	1.60000E+2	0.00000E+0	0.00000E+0	0.00000E+0	2.00000E+1	1.40000E+1	1.99997E+1	1.39980E+1
24	02/09/2022	17:29:25.467	0.00000E+0	0.00000E+0	1.60000E+2	0.00000E+0	0.00000E+0	0.00000E+0	2.00000E+1	1.40000E+1	1.99998E+1	1.39997E+1
25	02/09/2022	17:29:26.883	0.00000E+0	0.00000E+0	1.60000E+2	0.00000E+0	0.00000E+0	0.00000E+0	2.00000E+1	1.40000E+1	2.00017E+1	1.40005E+1
26	02/09/2022	17:29:28.294	0.00000E+0	0.00000E+0	1.60000E+2	0.00000E+0	0.00000E+0	0.00000E+0	2.00000E+1	1.40000E+1	1.99983E+1	1.40008E+1
27	02/09/2022	17:29:29.790	0.00000E+0	0.00000E+0	1.60000E+2	0.00000E+0	0.00000E+0	0.00000E+0	2.00000E+1	1.40000E+1	2.00003E+1	1.40015E+1
28	02/09/2022	17:29:31.188	0.00000E+0	0.00000E+0	1.60000E+2	0.00000E+0	0.00000E+0	0.00000E+0	2.00000E+1	1.40000E+1	2.00012E+1	1.39974E+1
29	02/09/2022	17:29:32.626	0.00000E+0	0.00000E+0	1.60000E+2	0.00000E+0	0.00000E+0	0.00000E+0	2.00000E+1	1.40000E+1	1.99992E+1	1.40005E+1
30	02/09/2022	17:29:34.134	0.00000E+0	0.00000E+0	1.60000E+2	0.00000E+0	0.00000E+0	0.00000E+0	2.00000E+1	1.40000E+1	2.00004E+1	1.39974E+1
31	02/09/2022	17:29:35.524	0.00000E+0	0.00000E+0	1.60000E+2	0.00000E+0	0.00000E+0	0.00000E+0	2.00000E+1	1.40000E+1	2.00015E+1	1.39994E+1
32	02/09/2022	17:29:36.998	0.00000E+0	0.00000E+0	1.60000E+2	0.00000E+0	0.00000E+0	0.00000E+0	2.00000E+1	1.40000E+1	2.00011E+1	1.39985E+1
33	02/09/2022	17:29:38.372	0.00000E+0	0.00000E+0	1.60000E+2	0.00000E+0	0.00000E+0	0.00000E+0	2.00000E+1	1.40000E+1	2.00004E+1	1.40003E+1
34	02/09/2022	17:29:39.771	0.00000E+0	0.00000E+0	1.60000E+2	0.00000E+0	0.00000E+0	0.00000E+0	2.00000E+1	1.40000E+1	1.99991E+1	1.40009E+1
35	02/09/2022	17:29:41.286	0.00000E+0	0.00000E+0	1.60000E+2	0.00000E+0	0.00000E+0	0.00000E+0	2.00000E+1	1.40000E+1	1.99996E+1	1.40003E+1
36	02/09/2022	17:29:42.689	0.00000E+0	0.00000E+0	1.60000E+2	0.00000E+0	0.00000E+0	0.00000E+0	2.00000E+1	1.40000E+1	2.00010E+1	1.40054E+1
37	02/09/2022	17:29:44.119	0.00000E+0	0.00000E+0	1.60000E+2	0.00000E+0	0.00000E+0	0.00000E+0	2.00000E+1	1.40000E+1	2.00008E+1	1.39995E+1
38	02/09/2022	17:29:45.646	0.00000E+0	0.00000E+0	1.60000E+2	0.00000E+0	0.00000E+0	0.00000E+0	2.00000E+1	1.40000E+1	2.00000E+1	1.40012E+1
39	02/09/2022	17:29:47.011	0.00000E+0	0.00000E+0	1.60000E+2	0.00000E+0	0.00000E+0	0.00000E+0	2.00000E+1	1.40000E+1	1.99992E+1	1.39991E+1
40	02/09/2022	17:29:48.493	0.00000E+0	0.00000E+0	1.60000E+2	0.00000E+0	0.00000E+0	0.00000E+0	2.00000E+1	1.40000E+1	1.99992E+1	1.39979E+1
41	02/09/2022	17:29:49.878	0.00000E+0	0.00000E+0	1.60000E+2	0.00000E+0	0.00000E+0	0.00000E+0	2.00000E+1	1.40000E+1	1.99992E+1	1.40013E+1
42	02/09/2022	17:29:51.269	0.00000E+0	0.00000E+0	1.60000E+2	0.00000E+0	0.00000E+0	0.00000E+0	2.00000E+1	1.40000E+1	1.99996E+1	1.40008E+1
43	02/09/2022	17:29:52.778	0.00000E+0	0.00000E+0	1.60000E+2	0.00000E+0	0.00000E+0	0.00000E+0	2.00000E+1	1.40000E+1	2.00019E+1	1.39992E+1
44	02/09/2022	17:29:54.177	0.00000E+0	0.00000E+0	1.60000E+2	0.00000E+0	0.00000E+0	0.00000E+0	2.00000E+1	1.40000E+1	2.00014E+1	1.39991E+1
45	02/09/2022	17:29:55.623	0.00000E+0	0.00000E+0	1.60000E+2	0.00000E+0	0.00000E+0	0.00000E+0	2.00000E+1	1.40000E+1	2.00019E+1	1.39996E+1
46	02/09/2022	17:29:57.053	0.00000E+0	0.00000E+0	1.60000E+2	0.00000E+0	0.00000E+0	0.00000E+0	2.00000E+1	1.40000E+1	2.00013E+1	1.40006E+1
47	02/09/2022	17:29:58.421	0.00000E+0	0.00000E+0	1.60000E+2	0.00000E+0	0.00000E+0	0.00000E+0	2.00000E+1	1.40000E+1	1.99992E+1	1.39975E+1
48	02/09/2022	17:29:59.882	0.00000E+0	0.00000E+0	1.60000E+2	0.00000E+0	0.00000E+0	0.00000E+0	2.00000E+1	1.40000E+1	2.00005E+1	1.40010E+1
49	02/09/2022	17:30:01.266	0.00000E+0	0.00000E+0	1.60000E+2	0.00000E+0	0.00000E+0	0.00000E+0	2.00000E+1	1.40000E+1	2.00002E+1	1.40007E+1
50	02/09/2022	17:30:02.660	0.00000E+0	0.00000E+0	1.60000E+2	0.00000E+0	0.00000E+0	0.00000E+0	2.00000E+1	1.40000E+1	1.99983E+1	1.39987E+1
51	02/09/2022	17:30:04.188	0.00000E+0	0.00000E+0	1.60000E+2	0.00000E+0	0.00000E+0	0.00000E+0	2.00000E+1	1.40000E+1	2.00000E+1	1.39999E+1
52	02/09/2022	17:30:05.575	0.00000E+0	0.00000E+0	1.60000E+2	0.00000E+0	0.00000E+0	0.00000E+0	2.00000E+1	1.40000E+1	1.99998E+1	1.40005E+1
53	02/09/2022	17:30:07.072	0.00000E+0	0.00000E+0	1.60000E+2	0.00000E+0	0.00000E+0	0.00000E+0	2.00000E+1	1.40000E+1	1.99991E+1	1.40007E+1
54	02/09/2022	17:30:08.461	0.00000E+0	0.00000E+0	1.60000E+2	0.00000E+0	0.00000E+0	0.00000E+0	2.00000E+1	1.40000E+1	2.00001E+1	1.40002E+1
55	02/09/2022	17:30:09.854	0.00000E+0	0.00000E+0	1.60000E+2	0.00000E+0	0.00000E+0	0.00000E+0	2.00000E+1	1.40000E+1	1.99998E+1	1.39982E+1
56	02/09/2022	17:30:11.417	0.00000E+0	0.00000E+0	1.60000E+2	0.00000E+0	0.00000E+0	0.00000E+0	2.00000E+1	1.40000E+1	1.99991E+1	1.39994E+1
57	02/09/2022	17:30:12.798	0.00000E+0	0.00000E+0	1.60000E+2	0.00000E+0	0.00000E+0	0.00000E+0	2.00000E+1	1.40000E+1	2.00016E+1	1.40006E+1
58	02/09/2022	17:30:14.214	0.00000E+0	0.00000E+0	1.60000E+2	0.00000E+0	0.00000E+0	0.00000E+0	2.00000E+1	1.40000E+1	1.99994E+1	1.39993E+1
59	02/09/2022	17:30:15.724	0.00000E+0	0.00000E+0	1.60000E+2	0.00000E+0	0.00000E+0	0.00000E+0	2.00000E+1	1.40000E+1	1.99988E+1	1.40009E+1
60	02/09/2022	17:30:17.083	0.00000E+0	0.00000E+0	1.60000E+2	0.00000E+0	0.00000E+0	0.00000E+0	2.00000E+1	1.40000E+1	1.99966E+1	1.39978E+1
61	02/09/2022	17:30:18.618	0.00000E+0	0.00000E+0	1.60000E+2	0.00000E+0	0.00000E+0	0.00000E+0	2.00000E+1	1.40000E+1	2.00010E+1	1.40004E+1
62	02/09/2022	17:30:20.016	0.00000E+0	0.00000E+0	1.60000E+2	0.00000E+0	0.00000E+0	0.00000E+0	2.00000E+1	1.40000E+1	1.99994E+1	1.40000E+1
63	02/09/2022	17:30:21.408	0.00000E+0	0.00000E+0	1.60000E+2	0.00000E+0	0.00000E+0	0.00000E+0	2.00000E+1	1.40000E+1	2.00018E+1	1.39997E+1
64	02/09/2022	17:30:22.878	0.00000E+0	0.00000E+0	1.60000E+2	0.00000E+0	0.00000E+0	0.00000E+0	2.00000E+1	1.40000E+1	2.00017E+1	1.39995E+1
65	02/09/2022	17:30:24.317	0.00000E+0	0.00000E+0	1.60000E+2	0.00000E+0	0.00000E+0	0.00000E+0	2.00000E+1	1.40000E+1	2.00005E+1	1.40001E+1
66	02/09/2022	17:30:25.804	0.00000E+0	0.00000E+0	1.60000E+2	0.00000E+0	0.00000E+0	0.00000E+0	2.00000E+1	1.40000E+1	2.00007E+1	1.39978E+1
67	02/09/2022	17:30:27.251	0.00000E+0	0.00000E+0	1.60000E+2	0.00000E+0	0.00000E+0	0.00000E+0	2.00000E+1	1.40000E+1	2.00012E+1	1.40008E+1
68	02/09/2022	17:30:28.631	0.00000E+0	0.00000E+0	1.60000E+2	0.00000E+0	0.00000E+0	0.00000E+0	2.00000E+1	1.40000E+1	2.00007E+1	1.39999E+1
69	02/09/2022	17:30:30.100	0.00000E+0	0.00000E+0	1.60000E+2	0.00000E+0	0.00000E+0	0.00000E+0	2.00000E+1	1.40000E+1	1.99998E+1	1.39998E+1
70	02/09/2022	17:30:31.487	0.00000E+0	0.00000E+0	1.60000E+2	0.00000E+0	0.00000E+0	0.00000E+0	2.00000E+1	1.40000E+1	2.00021E+1	1.39990E+1
71	02/09/2022	17:30:32.907	0.00000E+0	0.00000E+0	1.60000E+2	0.00000E+0	0.00000E+0	0.00000E+0	2.00000E+1	1.40000E+1	1.99997E+1	1.39994E+1
72	02/09/2022	17:30:34.410	0.00000E+0	0.00000E+0	1.60000E+2	0.00000E+0	0.00000E+0	0.00000E+0	2.00000E+1	1.40000E+1	2.00016E+1	1.39978E+1
73	02/09/2022	17:30:35.803	0.00000E+0	0.00000E+0	1.60000E+2	0.00000E+0	0.00000E+0	0.00000E+0	2.00000E+1	1.40000E+1	2.00013E+1	1.39998E+1
74	02/09/2022	17:30:37.318	0.00000E+0	0.00000E+0	1.60000E+2	0.00000E+0	0.00000E+0	0.00000E+0	2.00000E+1	1.40000E+1	2.00012E+1	1.39998E+1
75	02/09/2022	17:30:38.684	0.00000E+0	0.00000E+0	1.60000E+2	0.00000E+0	0.00000E+0	0.00000E+0	2.00000E+1	1.40000E+1	1.99991E+1	1.39983E+1
76	02/09/2022	17:30:40.055	0.00000E+0	0.00000E+0	1.60000E+2	0.00000E+0	0.00000E+0	0.00000E+0	2.00000E+1	1.40000E+1	2.00008E+1	1.40008E+1
77	02/09/2022	17:30:41.567	0.00000E+0	0.00000E+0	1.60000E+2	0.00000E+0	0.00000E+0	0.00000E+0	2.00000E+1	1.40000E+1	1.99986E+1	1.39999E+1
78	02/09/2022	17:30:42.945	0.00000E+0	0.00000E+0	1.60000E+2	0.00000E+0	0.00000E+0	0.00000E+0	2.00000E+1	1.40000E+1	1.99988E+1	1.40018E+1
79	02/09/2022	17:30:44.387	0.00000E+0	0.00000E+0	1.60000E+2	0.00000E+0	0.00000E+0	0.00000E+0	2.00000E+1	1.40000E+1	1.99988E+1	1.39976E+1
80	02/09/2022	17:30:45.772	0.00000E+0	0.00000E+0	1.60000E+2	0.00000E+0	0.00000E+0	0.00000E+0	2.00000E+1	1.40000E+1	1.99986E+1	1.39997E+1
81	02/09/2022	17:30:47.159	0.00000E+0	0.00000E+0	1.60000E+2	0.00000E+0	0.00000E+0	0.00000E+0	2.00000E+1	1.40000E+1	1.99997E+1	1.39980E+1
82	02/09/2022	17:30:48.636	0.00000E+0	0.00000E+0	1.60000E+2	0.00000E+0	0.00000E+0	0.00000E+0	2.00000E+1	1.40000E+1	1.99995E+1	1.40013E+1
83	02/09/2022	17:30:50.078	0.00000E+0	0.00000E+0	1.60000E+2	0.00000E+0	0.00000E+0	0.00000E+0	2.00000E+1	1.40000E+1	1.99998E+1	1.39977E+1
84	02/09/2022	17:30:51.483	0.00000E+0	0.00000E+0	1.60000E+2	0.00000E+0	0.00000E+0	0.00000E+0	2.00000E+1	1.40000E+1	1.99987E+1	1.40019E+1
85	02/09/2022	17:30:53.020	0.00000E+0	0.00000E+0	1.60000E+2	0.00000E+0	0.00000E+0	0.00000E+0	2.00000E+1	1.40000E+1	1.99984E+1	1.39983E+1
86	02/09/2022	17:30:54.389	0.00000E+0	0.00000E+0	1.60000E+2	0.00000E+0	0.00000E+0	0.00000E+0	2.00000E+1	1.40000E+1	1.99979E+1	1.39973E+1
87	02/09/2022	17:30:55.927	0.00000E+0	0.00000E+0	1.60000E+2	0.00000E+0	0.00000E+0	0.00000E+0	2.00000E+1	1.40000E+1	2.00018E+1	1.40006E+1
88	02/09/2022	17:30:57.327	0.00000E+0	0.00000E+0	1.60000E+2	0.00000E+0	0.00000E+0	0.00000E+0	2.00000E+1	1.40000E+1	1.99985E+1	1.39994E+1
89	02/09/2022	17:30:58.724	0.00000E+0	0.00000E+0	1.60000E+2	0.00000E+0	0.00000E+0	0.00000E+0	2.00000E+1	1.40000E+1	2.00028E+1	1.40010E+1
90	02/09/2022	17:31:00.229	0.00000E+0	0.00000E+0	1.60000E+2	0.00000E+0	0.00000E+0	0.00000E+0	2.00000E+1	1.40000E+1	2.00029E+1	1.40006E+1
91	02/09/2022	17:31:01.616	0.00000E+0	0.00000E+0	1.60000E+2	0.00000E+0	0.00000E+0	0.00000E+0	2.00000E+1	1.40000E+1	2.00014E+1	1.40015E+1
92	02/09/2022	17:31:03.025	0.00000E+0	0.00000E+0	1.60000E+2	0.00000E+0	0.00000E+0	0.00000E+0	2.00000E+1	1.40000E+1	2.00020E+1	1.39992E+1
93	02/09/2022	17:31:04.539	0.00000E+0	0.00000E+0	1.60000E+2	0.00000E+0	0.00000E+0	0.00000E+0	2.00000E+1	1.40000E+1	1.99988E+1	1.39992E+1
94	02/09/2022	17:31:05.919	0.00000E+0	0.00000E+0	1.60000E+2	0.00000E+0	0.00000E+0	0.00000E+0	2.00000E+1	1.40000E+1	2.00001E+1	1.40012E+1
95	02/09/2022	17:31:07.390	0.00000E+0	0.00000E+0	1.60000E+2	0.00000E+0	0.00000E+0	0.00000E+0	2.00000E+1	1.40000E+1	1.99990E+1	1.39995E+1
96	02/09/2022	17:31:08.767	0.00000E+0	0.00000E+0	1.60000E+2	0.00000E+0	0.00000E+0	0.00000E+0	2.00000E+1	1.40000E+1	1.99979E+1	1.40022E+1
97	02/09/2022	17:31:10.145	0.00000E+0	0.00000E+0	1.60000E+2	0.00000E+0	0.00000E+0	0.00000E+0	2.00000E+1	1.40000E+1	1.99993E+1	1.39998E+1
98	02/09/2022	17:31:11.627	0.00000E+0	0.00000E+0	1.60000E+2	0.00000E+0	0.00000E+0	0.00000E+0	2.00000E+1	1.40000E+1	2.00004E+1	1.40016E+1
99	02/09/2022	17:31:12.998	0.00000E+0	0.00000E+0	1.60000E+2	0.00000E+0	0.00000E+0	0.00000E+0	2.00000E+1	1.40000E+1	1.99983E+1	1.40012E+1
100	02/09/2022	17:31:14.472	0.00000E+0	0.00000E+0	1.60000E+2	0.00000E+0	0.00000E+0	0.00000E+0	2.00000E+1	1.40000E+1	1.99992E+1	1.40025E+1
101	02/09/2022	17:31:15.860	0.00000E+0	0.00000E+0	1.60000E+2	0.00000E+0	0.00000E+0	0.00000E+0	2.00000E+1	1.40000E+1	2.00000E+1	1.39976E+1
102	02/09/2022	17:31:17.240	0.00000E+0	0.00000E+0	1.60000E+2	0.00000E+0	0.00000E+0	0.00000E+0	2.00000E+1	1.40000E+1	1.99995E+1	1.40006E+1
103	02/09/2022	17:31:18.708	0.00000E+0	0.00000E+0	1.60000E+2	0.00000E+0	0.00000E+0	0.00000E+0	2.00000E+1	1.40000E+1	2.00016E+1	1.40027E+1
104	02/09/2022	17:31:20.122	0.00000E+0	0.00000E+0	1.60000E+2	0.00000E+0	0.00000E+0	0.00000E+0	2.00000E+1	1.40000E+1	1.99990E+1	1.40013E+1
105	02/09/2022	17:31:21.553	0.00000E+0	0.00000E+0	1.60000E+2	0.00000E+0	0.00000E+0	0.00000E+0	2.00000E+1	1.40000E+1	1.99991E+1	1.40010E+1
106	02/09/2022	17:31:23.057	0.00000E+0	0.00000E+0	1.60000E+2	0.00000E+0	0.00000E+0	0.00000E+0	2.00000E+1	1.40000E+1	1.99971E+1	1.40003E+1
107	02/09/2022	17:31:24.446	0.00000E+0	0.00000E+0	1.60000E+2	0.00000E+0	0.00000E+0	0.00000E+0	2.00000E+1	1.40000E+1	1.99994E+1	1.39994E+1
108	02/09/2022	17:31:25.995	0.00000E+0	0.00000E+0	1.60000E+2	0.00000E+0	0.00000E+0	0.00000E+0	2.00000E+1	1.40000E+1	2.00034E+1	1.40012E+1
109	02/09/2022	17:31:27.392	0.00000E+0	0.00000E+0	1.60000E+2	0.00000E+0	0.00000E+0	0.00000E+0	2.00000E+1	1.40000E+1	1.99982E+1	1.40034E+1
110	02/09/2022	17:31:28.779	0.00000E+0	0.00000E+0	1.60000E+2	0.00000E+0	0.00000E+0	0.00000E+0	2.00000E+1	1.40000E+1	1.99992E+1	1.39985E+1
111	02/09/2022	17:31:30.329	0.00000E+0	0.00000E+0	1.60000E+2	0.00000E+0	0.00000E+0	0.00000E+0	2.00000E+1	1.40000E+1	1.99988E+1	1.40005E+1
112	02/09/2022	17:31:31.710	0.00000E+0	0.00000E+0	1.60000E+2	0.00000E+0	0.00000E+0	0.00000E+0	2.00000E+1	1.40000E+1	1.99982E+1	1.39982E+1
113	02/09/2022	17:31:33.133	0.00000E+0	0.00000E+0	1.60000E+2	0.00000E+0	0.00000E+0	0.00000E+0	2.00000E+1	1.40000E+1	2.00021E+1	1.40007E+1
114	02/09/2022	17:31:34.562	0.00000E+0	0.00000E+0	1.60000E+2	0.00000E+0	0.00000E+0	0.00000E+0	2.00000E+1	1.40000E+1	2.00008E+1	1.39988E+1
115	02/09/2022	17:31:35.996	0.00000E+0	0.00000E+0	1.60000E+2	0.00000E+0	0.00000E+0	0.00000E+0	2.00000E+1	1.40000E+1	1.99993E+1	1.40007E+1
116	02/09/2022	17:31:37.469	0.00000E+0	0.00000E+0	1.60000E+2	0.00000E+0	0.00000E+0	0.00000E+0	2.00000E+1	1.40000E+1	1.99988E+1	1.40021E+1
117	02/09/2022	17:31:38.854	0.00000E+0	0.00000E+0	1.60000E+2	0.00000E+0	0.00000E+0	0.00000E+0	2.00000E+1	1.40000E+1	1.99973E+1	1.40006E+1
118	02/09/2022	17:31:40.226	0.00000E+0	0.00000E+0	1.60000E+2	0.00000E+0	0.00000E+0	0.00000E+0	2.00000E+1	1.40000E+1	2.00017E+1	1.40014E+1
119	02/09/2022	17:31:41.713	0.00000E+0	0.00000E+0	1.60000E+2	0.00000E+0	0.00000E+0	0.00000E+0	2.00000E+1	1.40000E+1	2.00010E+1	1.39999E+1
120	02/09/2022	17:31:43.115	0.00000E+0	0.00000E+0	1.60000E+2	0.00000E+0	0.00000E+0	0.00000E+0	2.00000E+1	1.40000E+1	1.99992E+1	1.39991E+1
121	02/09/2022	17:31:44.606	0.00000E+0	0.00000E+0	1.60000E+2	0.00000E+0	0.00000E+0	0.00000E+0	2.00000E+1	1.40000E+1	2.00005E+1	1.39985E+1
122	02/09/2022	17:31:45.997	0.00000E+0	0.00000E+0	1.60000E+2	0.00000E+0	0.00000E+0	0.00000E+0	2.00000E+1	1.40000E+1	1.99957E+1	1.39982E+1
123	02/09/2022	17:31:47.384	0.00000E+0	0.00000E+0	1.60000E+2	0.00000E+0	0.00000E+0	0.00000E+0	2.00000E+1	1.40000E+1	2.00012E+1	1.40007E+1
124	02/09/2022	17:31:48.914	0.00000E+0	0.00000E+0	1.60000E+2	0.00000E+0	0.00000E+0	0.00000E+0	2.00000E+1	1.40000E+1	1.99990E+1	1.39992E+1
125	02/09/2022	17:31:50.300	0.00000E+0	0.00000E+0	1.60000E+2	0.00000E+0	0.00000E+0	0.00000E+0	2.00000E+1	1.40000E+1	2.00005E+1	1.40015E+1
126	02/09/2022	17:31:51.737	0.00000E+0	0.00000E+0	1.60000E+2	0.00000E+0	0.00000E+0	0.00000E+0	2.00000E+1	1.40000E+1	2.00002E+1	1.39979E+1
127	02/09/2022	17:31:53.243	0.00000E+0	0.00000E+0	1.60000E+2	0.00000E+0	0.00000E+0	0.00000E+0	2.00000E+1	1.40000E+1	2.00008E+1	1.39998E+1
128	02/09/2022	17:31:54.636	0.00000E+0	0.00000E+0	1.60000E+2	0.00000E+0	0.00000E+0	0.00000E+0	2.00000E+1	1.40000E+1	2.00004E+1	1.39980E+1
129	02/09/2022	17:31:56.103	0.00000E+0	0.00000E+0	1.60000E+2	0.00000E+0	0.00000E+0	0.00000E+0	2.00000E+1	1.40000E+1	2.00014E+1	1.40009E+1
130	02/09/2022	17:31:57.492	0.00000E+0	0.00000E+0	1.60000E+2	0.00000E+0	0.00000E+0	0.00000E+0	2.00000E+1	1.40000E+1	1.99994E+1	1.39979E+1
131	02/09/2022	17:31:58.876	0.00000E+0	0.00000E+0	1.60000E+2	0.00000E+0	0.00000E+0	0.00000E+0	2.00000E+1	1.40000E+1	2.00014E+1	1.39969E+1
132	02/09/2022	17:32:00.359	0.00000E+0	0.00000E+0	1.60000E+2	0.00000E+0	0.00000E+0	0.00000E+0	2.00000E+1	1.40000E+1	1.99990E+1	1.40014E+1
133	02/09/2022	17:32:01.731	0.00000E+0	0.00000E+0	1.60000E+2	0.00000E+0	0.00000E+0	0.00000E+0	2.00000E+1	1.40000E+1	2.00012E+1	1.40015E+1
134	02/09/2022	17:32:03.111	0.00000E+0	0.00000E+0	1.60000E+2	0.00000E+0	0.00000E+0	0.00000E+0	2.00000E+1	1.40000E+1	1.99985E+1	1.39990E+1
135	02/09/2022	17:32:04.469	0.00000E+0	0.00000E+0	1.60000E+2	0.00000E+0	0.00000E+0	0.00000E+0	2.00000E+1	1.40000E+1	2.00013E+1	1.40001E+1
136	02/09/2022	17:32:05.833	0.00000E+0	0.00000E+0	1.60000E+2	0.00000E+0	0.00000E+0	0.00000E+0	2.00000E+1	1.40000E+1	1.99983E+1	1.40009E+1
137	02/09/2022	17:32:07.316	0.00000E+0	0.00000E+0	1.60000E+2	0.00000E+0	0.00000E+0	0.00000E+0	2.00000E+1	1.40000E+1	1.99989E+1	1.40008E+1
138	02/09/2022	17:32:08.709	0.00000E+0	0.00000E+0	1.60000E+2	0.00000E+0	0.00000E+0	0.00000E+0	2.00000E+1	1.40000E+1	2.00019E+1	1.39992E+1
139	02/09/2022	17:32:10.154	0.00000E+0	0.00000E+0	1.60000E+2	0.00000E+0	0.00000E+0	0.00000E+0	2.00000E+1	1.40000E+1	2.00021E+1	1.40016E+1
140	02/09/2022	17:32:11.653	0.00000E+0	0.00000E+0	1.60000E+2	0.00000E+0	0.00000E+0	0.00000E+0	2.00000E+1	1.40000E+1	2.00006E+1	1.39964E+1
141	02/09/2022	17:32:13.082	0.00000E+0	0.00000E+0	1.60000E+2	0.00000E+0	0.00000E+0	0.00000E+0	2.00000E+1	1.40000E+1	2.00019E+1	1.40024E+1
142	02/09/2022	17:32:14.518	0.00000E+0	0.00000E+0	1.60000E+2	0.00000E+0	0.00000E+0	0.00000E+0	2.00000E+1	1.40000E+1	1.99989E+1	1.40013E+1
143	02/09/2022	17:32:15.988	0.00000E+0	0.00000E+0	1.60000E+2	0.00000E+0	0.00000E+0	0.00000E+0	2.00000E+1	1.40000E+1	2.00014E+1	1.40015E+1
144	02/09/2022	17:32:17.350	0.00000E+0	0.00000E+0	1.60000E+2	0.00000E+0	0.00000E+0	0.00000E+0	2.00000E+1	1.40000E+1	1.99992E+1	1.39992E+1
145	02/09/2022	17:32:18.867	0.00000E+0	0.00000E+0	1.60000E+2	0.00000E+0	0.00000E+0	0.00000E+0	2.00000E+1	1.40000E+1	1.99985E+1	1.40021E+1
146	02/09/2022	17:32:20.284	0.00000E+0	0.00000E+0	1.60000E+2	0.00000E+0	0.00000E+0	0.00000E+0	2.00000E+1	1.40000E+1	2.00009E+1	1.40016E+1
147	02/09/2022	17:32:21.726	0.00000E+0	0.00000E+0	1.60000E+2	0.00000E+0	0.00000E+0	0.00000E+0	2.00000E+1	1.40000E+1	1.99978E+1	1.40003E+1
148	02/09/2022	17:32:23.241	0.00000E+0	0.00000E+0	1.60000E+2	0.00000E+0	0.00000E+0	0.00000E+0	2.00000E+1	1.40000E+1	1.99987E+1	1.39996E+1
149	02/09/2022	17:32:24.605	0.00000E+0	0.00000E+0	1.60000E+2	0.00000E+0	0.00000E+0	0.00000E+0	2.00000E+1	1.40000E+1	2.00010E+1	1.40013E+1
150	02/09/2022	17:32:26.153	0.00000E+0	0.00000E+0	1.60000E+2	0.00000E+0	0.00000E+0	0.00000E+0	2.00000E+1	1.40000E+1	2.00013E+1	1.40002E+1
151	02/09/2022	17:32:27.547	0.00000E+0	0.00000E+0	1.60000E+2	0.00000E+0	0.00000E+0	0.00000E+0	2.00000E+1	1.40000E+1	2.00021E+1	1.39997E+1
152	02/09/2022	17:32:28.945	0.00000E+0	0.00000E+0	1.60000E+2	0.00000E+0	0.00000E+0	0.00000E+0	2.00000E+1	1.40000E+1	1.99987E+1	1.39992E+1
153	02/09/2022	17:32:30.462	0.00000E+0	0.00000E+0	1.60000E+2	0.00000E+0	0.00000E+0	0.00000E+0	2.00000E+1	1.40000E+1	1.99989E+1	1.39985E+1
154	02/09/2022	17:32:31.842	0.00000E+0	0.00000E+0	1.60000E+2	0.00000E+0	0.00000E+0	0.00000E+0	2.00000E+1	1.40000E+1	1.99996E+1	1.39982E+1
155	02/09/2022	17:32:33.240	0.00000E+0	0.00000E+0	1.60000E+2	0.00000E+0	0.00000E+0	0.00000E+0	2.00000E+1	1.40000E+1	1.99998E+1	1.39994E+1
156	02/09/2022	17:32:34.563	0.00000E+0	0.00000E+0	1.60000E+2	0.00000E+0	0.00000E+0	0.00000E+0	2.00000E+1	1.40000E+1	2.00001E+1	1.39987E+1
157	02/09/2022	17:32:35.966	0.00000E+0	0.00000E+0	1.60000E+2	0.00000E+0	0.00000E+0	0.00000E+0	2.00000E+1	1.40000E+1	1.99990E+1	1.40005E+1
158	02/09/2022	17:32:37.427	0.00000E+0	0.00000E+0	1.60000E+2	0.00000E+0	0.00000E+0	0.00000E+0	2.00000E+1	1.40000E+1	2.00002E+1	1.39995E+1
159	02/09/2022	17:32:38.838	0.00000E+0	0.00000E+0	1.60000E+2	0.00000E+0	0.00000E+0	0.00000E+0	2.00000E+1	1.40000E+1	2.00007E+1	1.39994E+1
160	02/09/2022	17:32:40.298	0.00000E+0	0.00000E+0	1.60000E+2	0.00000E+0	0.00000E+0	0.00000E+0	2.00000E+1	1.40000E+1	1.99991E+1	1.40014E+1
161	02/09/2022	17:32:41.796	0.00000E+0	0.00000E+0	1.60000E+2	0.00000E+0	0.00000E+0	0.00000E+0	2.00000E+1	1.40000E+1	2.00008E+1	1.39996E+1
162	02/09/2022	17:32:43.182	0.00000E+0	0.00000E+0	1.60000E+2	0.00000E+0	0.00000E+0	0.00000E+0	2.00000E+1	1.40000E+1	2.00006E+1	1.40030E+1
163	02/09/2022	17:32:44.722	0.00000E+0	0.00000E+0	1.60000E+2	0.00000E+0	0.00000E+0	0.00000E+0	2.00000E+1	1.40000E+1	1.99997E+1	1.40002E+1
164	02/09/2022	17:32:46.103	0.00000E+0	0.00000E+0	1.60000E+2	0.00000E+0	0.00000E+0	0.00000E+0	2.00000E+1	1.40000E+1	2.00001E+1	1.39985E+1
165	02/09/2022	17:32:47.500	0.00000E+0	0.00000E+0	1.60000E+2	0.00000E+0	0.00000E+0	0.00000E+0	2.00000E+1	1.40000E+1	2.00026E+1	1.40010E+1
166	02/09/2022	17:32:49.044	0.00000E+0	0.00000E+0	1.60000E+2	0.00000E+0	0.00000E+0	0.00000E+0	2.00000E+1	1.40000E+1	1.99997E+1	1.40008E+1
167	02/09/2022	17:32:50.433	0.00000E+0	0.00000E+0	1.60000E+2	0.00000E+0	0.00000E+0	0.00000E+0	2.00000E+1	1.40000E+1	1.99994E+1	1.39989E+1
168	02/09/2022	17:32:51.822	0.00000E+0	0.00000E+0	1.60000E+2	0.00000E+0	0.00000E+0	0.00000E+0	2.00000E+1	1.40000E+1	2.00029E+1	1.40005E+1
169	02/09/2022	17:32:53.248	0.00000E+0	0.00000E+0	1.60000E+2	0.00000E+0	0.00000E+0	0.00000E+0	2.00000E+1	1.40000E+1	2.00002E+1	1.40004E+1
170	02/09/2022	17:32:54.633	0.00000E+0	0.00000E+0	1.60000E+2	0.00000E+0	0.00000E+0	0.00000E+0	2.00000E+1	1.40000E+1	1.99977E+1	1.39984E+1
171	02/09/2022	17:32:56.172	0.00000E+0	0.00000E+0	1.60000E+2	0.00000E+0	0.00000E+0	0.00000E+0	2.00000E+1	1.40000E+1	1.99989E+1	1.40018E+1
172	02/09/2022	17:32:57.555	0.00000E+0	0.00000E+0	1.60000E+2	0.00000E+0	0.00000E+0	0.00000E+0	2.00000E+1	1.40000E+1	2.00004E+1	1.39983E+1
173	02/09/2022	17:32:58.917	0.00000E+0	0.00000E+0	1.60000E+2	0.00000E+0	0.00000E+0	0.00000E+0	2.00000E+1	1.40000E+1	2.00017E+1	1.39994E+1
174	02/09/2022	17:33:00.415	0.00000E+0	0.00000E+0	1.60000E+2	0.00000E+0	0.00000E+0	0.00000E+0	2.00000E+1	1.40000E+1	1.99986E+1	1.40012E+1
175	02/09/2022	17:33:01.786	0.00000E+0	0.00000E+0	1.60000E+2	0.00000E+0	0.00000E+0	0.00000E+0	2.00000E+1	1.40000E+1	1.99995E+1	1.40001E+1
176	02/09/2022	17:33:03.294	0.00000E+0	0.00000E+0	1.60000E+2	0.00000E+0	0.00000E+0	0.00000E+0	2.00000E+1	1.40000E+1	2.00006E+1	1.40001E+1
177	02/09/2022	17:33:04.731	0.00000E+0	0.00000E+0	1.60000E+2	0.00000E+0	0.00000E+0	0.00000E+0	2.00000E+1	1.40000E+1	1.99998E+1	1.40008E+1
178	02/09/2022	17:33:06.101	0.00000E+0	0.00000E+0	1.60000E+2	0.00000E+0	0.00000E+0	0.00000E+0	2.00000E+1	1.40000E+1	2.00008E+1	1.39995E+1
179	02/09/2022	17:33:07.664	0.00000E+0	0.00000E+0	1.60000E+2	0.00000E+0	0.00000E+0	0.00000E+0	2.00000E+1	1.40000E+1	2.00018E+1	1.39983E+1
180	02/09/2022	17:33:09.044	0.00000E+0	0.00000E+0	1.60000E+2	0.00000E+0	0.00000E+0	0.00000E+0	2.00000E+1	1.40000E+1	1.99996E+1	1.40013E+1
181	02/09/2022	17:33:10.502	0.00000E+0	0.00000E+0	1.60000E+2	0.00000E+0	0.00000E+0	0.00000E+0	2.00000E+1	1.40000E+1	1.99983E+1	1.39964E+1
182	02/09/2022	17:33:11.990	0.00000E+0	0.00000E+0	1.60000E+2	0.00000E+0	0.00000E+0	0.00000E+0	2.00000E+1	1.40000E+1	2.00003E+1	1.39964E+1
183	02/09/2022	17:33:13.401	0.00000E+0	0.00000E+0	1.60000E+2	0.00000E+0	0.00000E+0	0.00000E+0	2.00000E+1	1.40000E+1	1.99997E+1	1.40008E+1
184	02/09/2022	17:33:14.862	0.00000E+0	0.00000E+0	1.60000E+2	0.00000E+0	0.00000E+0	0.00000E+0	2.00000E+1	1.40000E+1	2.00002E+1	1.39974E+1
185	02/09/2022	17:33:16.254	0.00000E+0	0.00000E+0	1.60000E+2	0.00000E+0	0.00000E+0	0.00000E+0	2.00000E+1	1.40000E+1	1.99994E+1	1.39979E+1
186	02/09/2022	17:33:17.625	0.00000E+0	0.00000E+0	1.60000E+2	0.00000E+0	0.00000E+0	0.00000E+0	2.00000E+1	1.40000E+1	2.00012E+1	1.40006E+1
187	02/09/2022	17:33:19.179	0.00000E+0	0.00000E+0	1.60000E+2	0.00000E+0	0.00000E+0	0.00000E+0	2.00000E+1	1.40000E+1	1.99984E+1	1.40017E+1
188	02/09/2022	17:33:20.575	0.00000E+0	0.00000E+0	1.60000E+2	0.00000E+0	0.00000E+0	0.00000E+0	2.00000E+1	1.40000E+1	2.00014E+1	1.39983E+1
189	02/09/2022	17:33:21.948	0.00000E+0	0.00000E+0	1.60000E+2	0.00000E+0	0.00000E+0	0.00000E+0	2.00000E+1	1.40000E+1	2.00029E+1	1.40007E+1
190	02/09/2022	17:33:23.298	0.00000E+0	0.00000E+0	1.60000E+2	0.00000E+0	0.00000E+0	0.00000E+0	2.00000E+1	1.40000E+1	2.00001E+1	1.40009E+1
191	02/09/2022	17:33:24.673	0.00000E+0	0.00000E+0	1.60000E+2	0.00000E+0	0.00000E+0	0.00000E+0	2.00000E+1	1.40000E+1	1.99992E+1	1.40003E+1
192	02/09/2022	17:33:26.159	0.00000E+0	0.00000E+0	1.60000E+2	0.00000E+0	0.00000E+0	0.00000E+0	2.00000E+1	1.40000E+1	1.99996E+1	1.40013E+1
193	02/09/2022	17:33:27.536	0.00000E+0	0.00000E+0	1.60000E+2	0.00000E+0	0.00000E+0	0.00000E+0	2.00000E+1	1.40000E+1	2.00006E+1	1.39990E+1
194	02/09/2022	17:33:28.914	0.00000E+0	0.00000E+0	1.60000E+2	0.00000E+0	0.00000E+0	0.00000E+0	2.00000E+1	1.40000E+1	2.00004E+1	1.39990E+1
195	02/09/2022	17:33:30.487	0.00000E+0	0.00000E+0	1.60000E+2	0.00000E+0	0.00000E+0	0.00000E+0	2.00000E+1	1.40000E+1	2.00003E+1	1.39982E+1
196	02/09/2022	17:33:31.868	0.00000E+0	0.00000E+0	1.60000E+2	0.00000E+0	0.00000E+0	0.00000E+0	2.00000E+1	1.40000E+1	2.00025E+1	1.39998E+1
197	02/09/2022	17:33:33.368	0.00000E+0	0.00000E+0	1.60000E+2	0.00000E+0	0.00000E+0	0.00000E+0	2.00000E+1	1.40000E+1	1.99991E+1	1.39981E+1
198	02/09/2022	17:33:34.746	0.00000E+0	0.00000E+0	1.60000E+2	0.00000E+0	0.00000E+0	0.00000E+0	2.00000E+1	1.40000E+1	1.99998E+1	1.39983E+1
199	02/09/2022	17:33:36.132	0.00000E+0	0.00000E+0	1.60000E+2	0.00000E+0	0.00000E+0	0.00000E+0	2.00000E+1	1.40000E+1	2.00008E+1	1.39985E+1
200	02/09/2022	17:33:37.686	0.00000E+0	0.00000E+0	1.60000E+2	0.00000E+0	0.00000E+0	0.00000E+0	2.00000E+1	1.40000E+1	1.99994E+1	1.40020E+1
201	02/09/2022	17:33:39.058	0.00000E+0	0.00000E+0	1.60000E+2	0.00000E+0	0.00000E+0	0.00000E+0	2.00000E+1	1.40000E+1	2.00010E+1	1.40012E+1
202	02/09/2022	17:33:40.495	0.00000E+0	0.00000E+0	1.60000E+2	0.00000E+0	0.00000E+0	0.00000E+0	2.00000E+1	1.40000E+1	2.00004E+1	1.39988E+1
203	02/09/2022	17:33:42.007	0.00000E+0	0.00000E+0	1.60000E+2	0.00000E+0	0.00000E+0	0.00000E+0	2.00000E+1	1.40000E+1	1.99998E+1	1.39996E+1
204	02/09/2022	17:33:43.391	0.00000E+0	0.00000E+0	1.60000E+2	0.00000E+0	0.00000E+0	0.00000E+0	2.00000E+1	1.40000E+1	1.99993E+1	1.39997E+1
205	02/09/2022	17:33:44.960	0.00000E+0	0.00000E+0	1.60000E+2	0.00000E+0	0.00000E+0	0.00000E+0	2.00000E+1	1.40000E+1	2.00009E+1	1.39987E+1
206	02/09/2022	17:33:46.355	0.00000E+0	0.00000E+0	1.60000E+2	0.00000E+0	0.00000E+0	0.00000E+0	2.00000E+1	1.40000E+1	1.99995E+1	1.40024E+1
207	02/09/2022	17:33:47.720	0.00000E+0	0.00000E+0	1.60000E+2	0.00000E+0	0.00000E+0	0.00000E+0	2.00000E+1	1.40000E+1	2.00001E+1	1.39996E+1
208	02/09/2022	17:33:49.231	0.00000E+0	0.00000E+0	1.60000E+2	0.00000E+0	0.00000E+0	0.00000E+0	2.00000E+1	1.40000E+1	1.99969E+1	1.40026E+1
209	02/09/2022	17:33:50.634	0.00000E+0	0.00000E+0	1.60000E+2	0.00000E+0	0.00000E+0	0.00000E+0	2.00000E+1	1.40000E+1	1.99985E+1	1.40001E+1
210	02/09/2022	17:33:52.134	0.00000E+0	0.00000E+0	1.60000E+2	0.00000E+0	0.00000E+0	0.00000E+0	2.00000E+1	1.40000E+1	1.99989E+1	1.39996E+1
211	02/09/2022	17:33:53.500	0.00000E+0	0.00000E+0	1.60000E+2	0.00000E+0	0.00000E+0	0.00000E+0	2.00000E+1	1.40000E+1	1.99999E+1	1.39967E+1
212	02/09/2022	17:33:54.871	0.00000E+0	0.00000E+0	1.60000E+2	0.00000E+0	0.00000E+0	0.00000E+0	2.00000E+1	1.40000E+1	1.99998E+1	1.39995E+1
213	02/09/2022	17:33:56.438	0.00000E+0	0.00000E+0	1.60000E+2	0.00000E+0	0.00000E+0	0.00000E+0	2.00000E+1	1.40000E+1	1.99997E+1	1.40004E+1
214	02/09/2022	17:33:57.801	0.00000E+0	0.00000E+0	1.60000E+2	0.00000E+0	0.00000E+0	0.00000E+0	2.00000E+1	1.40000E+1	2.00011E+1	1.39997E+1
215	02/09/2022	17:33:59.201	0.00000E+0	0.00000E+0	1.60000E+2	0.00000E+0	0.00000E+0	0.00000E+0	2.00000E+1	1.40000E+1	2.00004E+1	1.39990E+1
216	02/09/2022	17:34:00.714	0.00000E+0	0.00000E+0	1.60000E+2	0.00000E+0	0.00000E+0	0.00000E+0	2.00000E+1	1.40000E+1	2.00023E+1	1.39991E+1
217	02/09/2022	17:34:02.098	0.00000E+0	0.00000E+0	1.60000E+2	0.00000E+0	0.00000E+0	0.00000E+0	2.00000E+1	1.40000E+1	1.99990E+1	1.40006E+1
218	02/09/2022	17:34:03.614	0.00000E+0	0.00000E+0	1.60000E+2	0.00000E+0	0.00000E+0	0.00000E+0	2.00000E+1	1.40000E+1	2.00001E+1	1.39989E+1
219	02/09/2022	17:34:05.008	0.00000E+0	0.00000E+0	1.60000E+2	0.00000E+0	0.00000E+0	0.00000E+0	2.00000E+1	1.40000E+1	1.99985E+1	1.39975E+1
220	02/09/2022	17:34:06.392	0.00000E+0	0.00000E+0	1.60000E+2	0.00000E+0	0.00000E+0	0.00000E+0	2.00000E+1	1.40000E+1	2.00019E+1	1.40021E+1
221	02/09/2022	17:34:07.892	0.00000E+0	0.00000E+0	1.60000E+2	0.00000E+0	0.00000E+0	0.00000E+0	2.00000E+1	1.40000E+1	1.99997E+1	1.39976E+1
222	02/09/2022	17:34:09.287	0.00000E+0	0.00000E+0	1.60000E+2	0.00000E+0	0.00000E+0	0.00000E+0	2.00000E+1	1.40000E+1	1.99978E+1	1.40002E+1
223	02/09/2022	17:34:10.714	0.00000E+0	0.00000E+0	1.60000E+2	0.00000E+0	0.00000E+0	0.00000E+0	2.00000E+1	1.40000E+1	1.99987E+1	1.39996E+1
224	02/09/2022	17:34:12.198	0.00000E+0	0.00000E+0	1.60000E+2	0.00000E+0	0.00000E+0	0.00000E+0	2.00000E+1	1.40000E+1	2.00009E+1	1.39981E+1
225	02/09/2022	17:34:13.597	0.00000E+0	0.00000E+0	1.60000E+2	0.00000E+0	0.00000E+0	0.00000E+0	2.00000E+1	1.40000E+1	2.00010E+1	1.39984E+1
226	02/09/2022	17:34:15.109	0.00000E+0	0.00000E+0	1.60000E+2	0.00000E+0	0.00000E+0	0.00000E+0	2.00000E+1	1.40000E+1	1.99992E+1	1.39990E+1
227	02/09/2022	17:34:16.495	0.00000E+0	0.00000E+0	1.60000E+2	0.00000E+0	0.00000E+0	0.00000E+0	2.00000E+1	1.40000E+1	2.00034E+1	1.40005E+1
228	02/09/2022	17:34:17.874	0.00000E+0	0.00000E+0	1.60000E+2	0.00000E+0	0.00000E+0	0.00000E+0	2.00000E+1	1.40000E+1	2.00018E+1	1.39982E+1
229	02/09/2022	17:34:19.345	0.00000E+0	0.00000E+0	1.60000E+2	0.00000E+0	0.00000E+0	0.00000E+0	2.00000E+1	1.40000E+1	2.00011E+1	1.40040E+1
230	02/09/2022	17:34:20.732	0.00000E+0	0.00000E+0	1.60000E+2	0.00000E+0	0.00000E+0	0.00000E+0	2.00000E+1	1.40000E+1	1.99992E+1	1.39981E+1
231	02/09/2022	17:34:22.213	0.00000E+0	0.00000E+0	1.60000E+2	0.00000E+0	0.00000E+0	0.00000E+0	2.00000E+1	1.40000E+1	2.00010E+1	1.40014E+1
232	02/09/2022	17:34:23.636	0.00000E+0	0.00000E+0	1.60000E+2	0.00000E+0	0.00000E+0	0.00000E+0	2.00000E+1	1.40000E+1	2.00000E+1	1.40001E+1
233	02/09/2022	17:34:25.000	0.00000E+0	0.00000E+0	1.60000E+2	0.00000E+0	0.00000E+0	0.00000E+0	2.00000E+1	1.40000E+1	1.99991E+1	1.40024E+1
234	02/09/2022	17:34:26.493	0.00000E+0	0.00000E+0	1.60000E+2	0.00000E+0	0.00000E+0	0.00000E+0	2.00000E+1	1.40000E+1	2.00003E+1	1.39996E+1
235	02/09/2022	17:34:27.884	0.00000E+0	0.00000E+0	1.60000E+2	0.00000E+0	0.00000E+0	0.00000E+0	2.00000E+1	1.40000E+1	2.00001E+1	1.39997E+1
236	02/09/2022	17:34:29.350	0.00000E+0	0.00000E+0	1.60000E+2	0.00000E+0	0.00000E+0	0.00000E+0	2.00000E+1	1.40000E+1	2.00021E+1	1.39983E+1
237	02/09/2022	17:34:30.846	0.00000E+0	0.00000E+0	1.60000E+2	0.00000E+0	0.00000E+0	0.00000E+0	2.00000E+1	1.40000E+1	1.99985E+1	1.40016E+1
238	02/09/2022	17:34:32.225	0.00000E+0	0.00000E+0	1.60000E+2	0.00000E+0	0.00000E+0	0.00000E+0	2.00000E+1	1.40000E+1	1.99986E+1	1.39989E+1
239	02/09/2022	17:34:33.807	0.00000E+0	0.00000E+0	1.60000E+2	0.00000E+0	0.00000E+0	0.00000E+0	2.00000E+1	1.40000E+1	1.99998E+1	1.40006E+1
240	02/09/2022	17:34:35.193	0.00000E+0	0.00000E+0	1.60000E+2	0.00000E+0	0.00000E+0	0.00000E+0	2.00000E+1	1.40000E+1	2.00017E+1	1.39989E+1
241	02/09/2022	17:34:36.626	0.00000E+0	0.00000E+0	1.60000E+2	0.00000E+0	0.00000E+0	0.00000E+0	2.00000E+1	1.40000E+1	1.99992E+1	1.40005E+1
242	02/09/2022	17:34:38.161	0.00000E+0	0.00000E+0	1.60000E+2	0.00000E+0	0.00000E+0	0.00000E+0	2.00000E+1	1.40000E+1	2.00000E+1	1.40015E+1
243	02/09/2022	17:34:39.549	0.00000E+0	0.00000E+0	1.60000E+2	0.00000E+0	0.00000E+0	0.00000E+0	2.00000E+1	1.40000E+1	1.99977E+1	1.40028E+1
244	02/09/2022	17:34:40.996	0.00000E+0	0.00000E+0	1.60000E+2	0.00000E+0	0.00000E+0	0.00000E+0	2.00000E+1	1.40000E+1	1.99997E+1	1.39999E+1
245	02/09/2022	17:34:42.321	0.00000E+0	0.00000E+0	1.60000E+2	0.00000E+0	0.00000E+0	0.00000E+0	2.00000E+1	1.40000E+1	1.99978E+1	1.39997E+1
246	02/09/2022	17:34:43.710	0.00000E+0	0.00000E+0	1.60000E+2	0.00000E+0	0.00000E+0	0.00000E+0	2.00000E+1	1.40000E+1	1.99991E+1	1.39992E+1
247	02/09/2022	17:34:45.190	0.00000E+0	0.00000E+0	1.60000E+2	0.00000E+0	0.00000E+0	0.00000E+0	2.00000E+1	1.40000E+1	2.00004E+1	1.40001E+1
248	02/09/2022	17:34:46.592	0.00000E+0	0.00000E+0	1.60000E+2	0.00000E+0	0.00000E+0	0.00000E+0	2.00000E+1	1.40000E+1	1.99987E+1	1.39994E+1
249	02/09/2022	17:34:48.005	0.00000E+0	0.00000E+0	1.60000E+2	0.00000E+0	0.00000E+0	0.00000E+0	2.00000E+1	1.40000E+1	2.00003E+1	1.39984E+1
250	02/09/2022	17:34:49.535	0.00000E+0	0.00000E+0	1.60000E+2	0.00000E+0	0.00000E+0	0.00000E+0	2.00000E+1	1.40000E+1	2.00016E+1	1.39967E+1
251	02/09/2022	17:34:50.928	0.00000E+0	0.00000E+0	1.60000E+2	0.00000E+0	0.00000E+0	0.00000E+0	2.00000E+1	1.40000E+1	2.00004E+1	1.39992E+1
252	02/09/2022	17:34:52.374	0.00000E+0	0.00000E+0	1.60000E+2	0.00000E+0	0.00000E+0	0.00000E+0	2.00000E+1	1.40000E+1	2.00020E+1	1.40007E+1
253	02/09/2022	17:34:53.765	0.00000E+0	0.00000E+0	1.60000E+2	0.00000E+0	0.00000E+0	0.00000E+0	2.00000E+1	1.40000E+1	2.00015E+1	1.39990E+1
254	02/09/2022	17:34:55.165	0.00000E+0	0.00000E+0	1.60000E+2	0.00000E+0	0.00000E+0	0.00000E+0	2.00000E+1	1.40000E+1	2.00003E+1	1.40021E+1
255	02/09/2022	17:34:56.662	0.00000E+0	0.00000E+0	1.60000E+2	0.00000E+0	0.00000E+0	0.00000E+0	2.00000E+1	1.40000E+1	1.99975E+1	1.40011E+1
256	02/09/2022	17:34:58.034	0.00000E+0	0.00000E+0	1.60000E+2	0.00000E+0	0.00000E+0	0.00000E+0	2.00000E+1	1.40000E+1	1.99996E+1	1.39993E+1
257	02/09/2022	17:34:59.479	0.00000E+0	0.00000E+0	1.60000E+2	0.00000E+0	0.00000E+0	0.00000E+0	2.00000E+1	1.40000E+1	2.00000E+1	1.39980E+1
258	02/09/2022	17:35:00.995	0.00000E+0	0.00000E+0	1.60000E+2	0.00000E+0	0.00000E+0	0.00000E+0	2.00000E+1	1.40000E+1	1.99991E+1	1.40011E+1
259	02/09/2022	17:35:02.382	0.00000E+0	0.00000E+0	1.60000E+2	0.00000E+0	0.00000E+0	0.00000E+0	2.00000E+1	1.40000E+1	1.99981E+1	1.40001E+1
260	02/09/2022	17:35:03.823	0.00000E+0	0.00000E+0	1.60000E+2	0.00000E+0	0.00000E+0	0.00000E+0	2.00000E+1	1.40000E+1	2.00013E+1	1.39995E+1
261	02/09/2022	17:35:05.199	0.00000E+0	0.00000E+0	1.60000E+2	0.00000E+0	0.00000E+0	0.00000E+0	2.00000E+1	1.40000E+1	1.99983E+1	1.39987E+1
262	02/09/2022	17:35:06.596	0.00000E+0	0.00000E+0	1.60000E+2	0.00000E+0	0.00000E+0	0.00000E+0	2.00000E+1	1.40000E+1	2.00009E+1	1.40011E+1
263	02/09/2022	17:35:08.094	0.00000E+0	0.00000E+0	1.60000E+2	0.00000E+0	0.00000E+0	0.00000E+0	2.00000E+1	1.40000E+1	1.99998E+1	1.40009E+1
264	02/09/2022	17:35:09.467	0.00000E+0	0.00000E+0	1.60000E+2	0.00000E+0	0.00000E+0	0.00000E+0	2.00000E+1	1.40000E+1	2.00000E+1	1.39981E+1
265	02/09/2022	17:35:10.910	0.00000E+0	0.00000E+0	1.60000E+2	0.00000E+0	0.00000E+0	0.00000E+0	2.00000E+1	1.40000E+1	2.00001E+1	1.39992E+1
266	02/09/2022	17:35:12.246	0.00000E+0	0.00000E+0	1.60000E+2	0.00000E+0	0.00000E+0	0.00000E+0	2.00000E+1	1.40000E+1	1.99984E+1	1.40010E+1
267	02/09/2022	17:35:13.620	0.00000E+0	0.00000E+0	1.60000E+2	0.00000E+0	0.00000E+0	0.00000E+0	2.00000E+1	1.40000E+1	2.00000E+1	1.39992E+1
268	02/09/2022	17:35:15.090	0.00000E+0	0.00000E+0	1.60000E+2	0.00000E+0	0.00000E+0	0.00000E+0	2.00000E+1	1.40000E+1	1.99985E+1	1.40018E+1
269	02/09/2022	17:35:16.482	0.00000E+0	0.00000E+0	1.60000E+2	0.00000E+0	0.00000E+0	0.00000E+0	2.00000E+1	1.40000E+1	1.99986E+1	1.39995E+1
270	02/09/2022	17:35:17.842	0.00000E+0	0.00000E+0	1.60000E+2	0.00000E+0	0.00000E+0	0.00000E+0	2.00000E+1	1.40000E+1	1.99971E+1	1.40011E+1
271	02/09/2022	17:35:19.360	0.00000E+0	0.00000E+0	1.60000E+2	0.00000E+0	0.00000E+0	0.00000E+0	2.00000E+1	1.40000E+1	2.00001E+1	1.40002E+1
272	02/09/2022	17:35:20.741	0.00000E+0	0.00000E+0	1.60000E+2	0.00000E+0	0.00000E+0	0.00000E+0	2.00000E+1	1.40000E+1	1.99990E+1	1.39993E+1
273	02/09/2022	17:35:22.313	0.00000E+0	0.00000E+0	1.60000E+2	0.00000E+0	0.00000E+0	0.00000E+0	2.00000E+1	1.40000E+1	2.00018E+1	1.39974E+1
274	02/09/2022	17:35:23.699	0.00000E+0	0.00000E+0	1.60000E+2	0.00000E+0	0.00000E+0	0.00000E+0	2.00000E+1	1.40000E+1	1.99991E+1	1.39995E+1
275	02/09/2022	17:35:25.082	0.00000E+0	0.00000E+0	1.60000E+2	0.00000E+0	0.00000E+0	0.00000E+0	2.00000E+1	1.40000E+1	2.00001E+1	1.40009E+1
276	02/09/2022	17:35:26.606	0.00000E+0	0.00000E+0	1.60000E+2	0.00000E+0	0.00000E+0	0.00000E+0	2.00000E+1	1.40000E+1	2.00027E+1	1.39986E+1
277	02/09/2022	17:35:27.995	0.00000E+0	0.00000E+0	1.60000E+2	0.00000E+0	0.00000E+0	0.00000E+0	2.00000E+1	1.40000E+1	1.99995E+1	1.39978E+1
278	02/09/2022	17:35:29.429	0.00000E+0	0.00000E+0	1.60000E+2	0.00000E+0	0.00000E+0	0.00000E+0	2.00000E+1	1.40000E+1	1.99974E+1	1.40007E+1
279	02/09/2022	17:35:30.932	0.00000E+0	0.00000E+0	1.60000E+2	0.00000E+0	0.00000E+0	0.00000E+0	2.00000E+1	1.40000E+1	2.00008E+1	1.39999E+1
280	02/09/2022	17:35:32.327	0.00000E+0	0.00000E+0	1.60000E+2	0.00000E+0	0.00000E+0	0.00000E+0	2.00000E+1	1.40000E+1	1.99995E+1	1.39987E+1
281	02/09/2022	17:35:33.807	0.00000E+0	0.00000E+0	1.60000E+2	0.00000E+0	0.00000E+0	0.00000E+0	2.00000E+1	1.40000E+1	2.00000E+1	1.40022E+1
282	02/09/2022	17:35:35.212	0.00000E+0	0.00000E+0	1.60000E+2	0.00000E+0	0.00000E+0	0.00000E+0	2.00000E+1	1.40000E+1	2.00017E+1	1.39991E+1
283	02/09/2022	17:35:36.588	0.00000E+0	0.00000E+0	1.60000E+2	0.00000E+0	0.00000E+0	0.00000E+0	2.00000E+1	1.40000E+1	1.99996E+1	1.39998E+1
284	02/09/2022	17:35:38.104	0.00000E+0	0.00000E+0	1.60000E+2	0.00000E+0	0.00000E+0	0.00000E+0	2.00000E+1	1.40000E+1	1.99977E+1	1.40000E+1
285	02/09/2022	17:35:39.493	0.00000E+0	0.00000E+0	1.60000E+2	0.00000E+0	0.00000E+0	0.00000E+0	2.00000E+1	1.40000E+1	1.99981E+1	1.39997E+1
286	02/09/2022	17:35:41.016	0.00000E+0	0.00000E+0	1.60000E+2	0.00000E+0	0.00000E+0	0.00000E+0	2.00000E+1	1.40000E+1	1.99972E+1	1.40008E+1
287	02/09/2022	17:35:42.475	0.00000E+0	0.00000E+0	1.60000E+2	0.00000E+0	0.00000E+0	0.00000E+0	2.00000E+1	1.40000E+1	2.00026E+1	1.40001E+1
288	02/09/2022	17:35:43.857	0.00000E+0	0.00000E+0	1.60000E+2	0.00000E+0	0.00000E+0	0.00000E+0	2.00000E+1	1.40000E+1	2.00008E+1	1.39997E+1
289	02/09/2022	17:35:45.327	0.00000E+0	0.00000E+0	1.60000E+2	0.00000E+0	0.00000E+0	0.00000E+0	2.00000E+1	1.40000E+1	2.00012E+1	1.40014E+1
290	02/09/2022	17:35:46.714	0.00000E+0	0.00000E+0	1.60000E+2	0.00000E+0	0.00000E+0	0.00000E+0	2.00000E+1	1.40000E+1	2.00010E+1	1.40007E+1
291	02/09/2022	17:35:48.134	0.00000E+0	0.00000E+0	1.60000E+2	0.00000E+0	0.00000E+0	0.00000E+0	2.00000E+1	1.40000E+1	1.99994E+1	1.39992E+1
292	02/09/2022	17:35:49.629	0.00000E+0	0.00000E+0	1.60000E+2	0.00000E+0	0.00000E+0	0.00000E+0	2.00000E+1	1.40000E+1	2.00001E+1	1.39976E+1
293	02/09/2022	17:35:50.994	0.00000E+0	0.00000E+0	1.60000E+2	0.00000E+0	0.00000E+0	0.00000E+0	2.00000E+1	1.40000E+1	1.99997E+1	1.40009E+1
294	02/09/2022	17:35:52.481	0.00000E+0	0.00000E+0	1.60000E+2	0.00000E+0	0.00000E+0	0.00000E+0	2.00000E+1	1.40000E+1	1.99995E+1	1.39972E+1
295	02/09/2022	17:35:53.873	0.00000E+0	0.00000E+0	1.60000E+2	0.00000E+0	0.00000E+0	0.00000E+0	2.00000E+1	1.40000E+1	2.00005E+1	1.40004E+1
296	02/09/2022	17:35:55.257	0.00000E+0	0.00000E+0	1.60000E+2	0.00000E+0	0.00000E+0	0.00000E+0	2.00000E+1	1.40000E+1	1.99976E+1	1.40035E+1
297	02/09/2022	17:35:56.784	0.00000E+0	0.00000E+0	1.60000E+2	0.00000E+0	0.00000E+0	0.00000E+0	2.00000E+1	1.40000E+1	2.00002E+1	1.39998E+1
298	02/09/2022	17:35:58.166	0.00000E+0	0.00000E+0	1.60000E+2	0.00000E+0	0.00000E+0	0.00000E+0	2.00000E+1	1.40000E+1	1.99972E+1	1.39994E+1
299	02/09/2022	17:35:59.624	0.00000E+0	0.00000E+0	1.60000E+2	0.00000E+0	0.00000E+0	0.00000E+0	2.00000E+1	1.40000E+1	2.00005E+1	1.39979E+1
300	02/09/2022	17:36:00.954	0.00000E+0	0.00000E+0	1.60000E+2	0.00000E+0	0.00000E+0	0.00000E+0	2.00000E+1	1.40000E+1	2.00009E+1	1.40010E+1
301	02/09/2022	17:36:02.353	0.00000E+0	0.00000E+0	1.60000E+2	0.00000E+0	0.00000E+0	0.00000E+0	2.00000E+1	1.40000E+1	2.00019E+1	1.40005E+1
