#Iteration	Date	Time	RTPhase	NFringe	AccelAxis	AccelMean	AccelTemp
1	02/09/2022	17:28:52.368	3.92699082E-1	-6.30000000E+2	2.00000000E+0	-9.80594784E+0	7.15852200E+6
2	02/09/2022	17:28:53.766	5.83372894E+0	-6.30000000E+2	2.00000000E+0	-9.80594784E+0	7.15852200E+6
3	02/09/2022	17:28:55.203	5.27190847E+0	-6.31000000E+2	2.00000000E+0	-9.80594784E+0	7.15852200E+6
4	02/09/2022	17:28:56.694	5.07210748E+0	-6.30000000E+2	2.00000000E+0	-9.80594784E+0	7.15852200E+6
5	02/09/2022	17:28:58.072	2.39914595E+0	-6.30000000E+2	2.00000000E+0	-9.80594784E+0	7.15852200E+6
6	02/09/2022	17:28:59.553	1.57923322E+0	-6.30000000E+2	2.00000000E+0	-9.80594784E+0	7.15852200E+6
7	02/09/2022	17:29:00.937	6.18961248E+0	-6.30000000E+2	2.00000000E+0	-9.80594784E+0	7.15852200E+6
8	02/09/2022	17:29:02.327	4.41518020E+0	-6.31000000E+2	2.00000000E+0	-9.80594784E+0	7.15852200E+6
9	02/09/2022	17:29:03.845	2.26070419E+0	-6.30000000E+2	2.00000000E+0	-9.80594784E+0	7.15852200E+6
10	02/09/2022	17:29:05.255	8.19529236E-1	-6.30000000E+2	2.00000000E+0	-9.80594784E+0	7.15852200E+6
11	02/09/2022	17:29:06.806	1.44616039E+0	-6.30000000E+2	2.00000000E+0	-9.80594784E+0	7.15852200E+6
12	02/09/2022	17:29:08.206	5.12464632E+0	-6.31000000E+2	2.00000000E+0	-9.80594784E+0	7.15852200E+6
13	02/09/2022	17:29:09.612	2.23232554E+0	-6.30000000E+2	2.00000000E+0	-9.80594784E+0	7.15852200E+6
14	02/09/2022	17:29:11.168	4.66406859E+0	-6.31000000E+2	2.00000000E+0	-9.80594784E+0	7.15852200E+6
15	02/09/2022	17:29:12.565	4.70548607E-1	-6.29000000E+2	2.00000000E+0	-9.80594784E+0	7.15852200E+6
16	02/09/2022	17:29:13.993	1.28969435E+0	-6.30000000E+2	2.00000000E+0	-9.80594784E+0	7.15852200E+6
17	02/09/2022	17:29:15.499	9.53752555E-1	-6.30000000E+2	2.00000000E+0	-9.80594784E+0	7.15852200E+6
18	02/09/2022	17:29:16.881	4.91985988E+0	-6.31000000E+2	2.00000000E+0	-9.80594784E+0	7.15852200E+6
19	02/09/2022	17:29:18.356	3.81155876E+0	-6.30000000E+2	2.00000000E+0	-9.80594784E+0	7.15852200E+6
20	02/09/2022	17:29:19.753	4.45544720E+0	-6.31000000E+2	2.00000000E+0	-9.80594784E+0	7.15852200E+6
21	02/09/2022	17:29:21.115	5.65923862E+0	-6.31000000E+2	2.00000000E+0	-9.80594784E+0	7.15852200E+6
22	02/09/2022	17:29:22.665	5.81263670E+0	-6.31000000E+2	2.00000000E+0	-9.80594784E+0	7.15852200E+6
23	02/09/2022	17:29:24.037	5.49548617E+0	-6.31000000E+2	2.00000000E+0	-9.80594784E+0	7.15852200E+6
24	02/09/2022	17:29:25.467	1.12440792E+0	-6.30000000E+2	2.00000000E+0	-9.80594784E+0	7.15852200E+6
25	02/09/2022	17:29:26.883	2.54372364E+0	-6.30000000E+2	2.00000000E+0	-9.80594784E+0	7.15852200E+6
26	02/09/2022	17:29:28.294	9.01213713E-1	-6.30000000E+2	2.00000000E+0	-9.80594784E+0	7.15852200E+6
27	02/09/2022	17:29:29.790	3.59565097E+0	-6.31000000E+2	2.00000000E+0	-9.80594784E+0	7.15852200E+6
28	02/09/2022	17:29:31.188	4.30818504E+0	-6.30000000E+2	2.00000000E+0	-9.80594784E+0	7.15852200E+6
29	02/09/2022	17:29:32.626	6.17619015E+0	-6.31000000E+2	2.00000000E+0	-9.80594784E+0	7.15852200E+6
30	02/09/2022	17:29:34.134	1.73838373E+0	-6.30000000E+2	2.00000000E+0	-9.80594784E+0	7.15852200E+6
31	02/09/2022	17:29:35.524	4.06658307E+0	-6.30000000E+2	2.00000000E+0	-9.80594784E+0	7.15852200E+6
32	02/09/2022	17:29:36.998	3.57839368E+0	-6.31000000E+2	2.00000000E+0	-9.80594784E+0	7.15852200E+6
33	02/09/2022	17:29:38.372	4.95590843E+0	-6.31000000E+2	2.00000000E+0	-9.80594784E+0	7.15852200E+6
34	02/09/2022	17:29:39.771	1.53551477E+0	-6.30000000E+2	2.00000000E+0	-9.80594784E+0	7.15852200E+6
35	02/09/2022	17:29:41.286	4.48420934E+0	-6.31000000E+2	2.00000000E+0	-9.80594784E+0	7.15852200E+6
36	02/09/2022	17:29:42.689	2.11996145E+0	-6.30000000E+2	2.00000000E+0	-9.80594784E+0	7.15852200E+6
37	02/09/2022	17:29:44.119	3.84799081E+0	-6.31000000E+2	2.00000000E+0	-9.80594784E+0	7.15852200E+6
38	02/09/2022	17:29:45.646	5.96948624E+0	-6.30000000E+2	2.00000000E+0	-9.80594784E+0	7.15852200E+6
39	02/09/2022	17:29:47.011	5.98674352E+0	-6.30000000E+2	2.00000000E+0	-9.80594784E+0	7.15852200E+6
40	02/09/2022	17:29:48.493	3.85144226E+0	-6.31000000E+2	2.00000000E+0	-9.80594784E+0	7.15852200E+6
41	02/09/2022	17:29:49.878	4.07118501E+0	-6.30000000E+2	2.00000000E+0	-9.80594784E+0	7.15852200E+6
42	02/09/2022	17:29:51.269	1.50061671E+0	-6.30000000E+2	2.00000000E+0	-9.80594784E+0	7.15852200E+6
43	02/09/2022	17:29:52.778	6.11291344E+0	-6.31000000E+2	2.00000000E+0	-9.80594784E+0	7.15852200E+6
44	02/09/2022	17:29:54.177	5.95261245E+0	-6.30000000E+2	2.00000000E+0	-9.80594784E+0	7.15852200E+6
45	02/09/2022	17:29:55.623	1.81278180E+0	-6.30000000E+2	2.00000000E+0	-9.80594784E+0	7.15852200E+6
46	02/09/2022	17:29:57.053	5.47401044E+0	-6.30000000E+2	2.00000000E+0	-9.80594784E+0	7.15852200E+6
47	02/09/2022	17:29:58.421	5.19405895E+0	-6.30000000E+2	2.00000000E+0	-9.80594784E+0	7.15852200E+6
48	02/09/2022	17:29:59.882	3.94309762E+0	-6.30000000E+2	2.00000000E+0	-9.80594784E+0	7.15852200E+6
49	02/09/2022	17:30:01.266	4.63415596E+0	-6.31000000E+2	2.00000000E+0	-9.80594784E+0	7.15852200E+6
50	02/09/2022	17:30:02.660	5.32828227E+0	-6.30000000E+2	2.00000000E+0	-9.80594784E+0	7.15852200E+6
51	02/09/2022	17:30:04.188	3.38779657E+0	-6.31000000E+2	2.00000000E+0	-9.80594784E+0	7.15852200E+6
52	02/09/2022	17:30:05.575	3.79085002E+0	-6.30000000E+2	2.00000000E+0	-9.80594784E+0	7.15852200E+6
53	02/09/2022	17:30:07.072	6.22336006E+0	-6.31000000E+2	2.00000000E+0	-9.80594784E+0	7.15852200E+6
54	02/09/2022	17:30:08.461	4.77796666E+0	-6.30000000E+2	2.00000000E+0	-9.80594784E+0	7.15852200E+6
55	02/09/2022	17:30:09.854	3.96534034E+0	-6.31000000E+2	2.00000000E+0	-9.80594784E+0	7.15852200E+6
56	02/09/2022	17:30:11.417	5.25848614E+0	-6.30000000E+2	2.00000000E+0	-9.80594784E+0	7.15852200E+6
57	02/09/2022	17:30:12.798	3.83571896E+0	-6.30000000E+2	2.00000000E+0	-9.80594784E+0	7.15852200E+6
58	02/09/2022	17:30:14.214	3.28118491E+0	-6.30000000E+2	2.00000000E+0	-9.80594784E+0	7.15852200E+6
59	02/09/2022	17:30:15.724	5.97984061E+0	-6.31000000E+2	2.00000000E+0	-9.80594784E+0	7.15852200E+6
60	02/09/2022	17:30:17.083	4.68822878E+0	-6.30000000E+2	2.00000000E+0	-9.80594784E+0	7.15852200E+6
61	02/09/2022	17:30:18.618	2.07279154E+0	-6.30000000E+2	2.00000000E+0	-9.80594784E+0	7.15852200E+6
62	02/09/2022	17:30:20.016	5.81378719E+0	-6.31000000E+2	2.00000000E+0	-9.80594784E+0	7.15852200E+6
63	02/09/2022	17:30:21.408	7.66990394E-4	-6.29000000E+2	2.00000000E+0	-9.80594784E+0	7.15852200E+6
64	02/09/2022	17:30:22.878	5.49932112E+0	-6.30000000E+2	2.00000000E+0	-9.80594784E+0	7.15852200E+6
65	02/09/2022	17:30:24.317	5.33058324E-1	-6.30000000E+2	2.00000000E+0	-9.80594784E+0	7.15852200E+6
66	02/09/2022	17:30:25.804	1.71230605E+0	-6.30000000E+2	2.00000000E+0	-9.80594784E+0	7.15852200E+6
67	02/09/2022	17:30:27.251	5.86824350E+0	-6.30000000E+2	2.00000000E+0	-9.80594784E+0	7.15852200E+6
68	02/09/2022	17:30:28.631	2.43251003E+0	-6.30000000E+2	2.00000000E+0	-9.80594784E+0	7.15852200E+6
69	02/09/2022	17:30:30.100	4.70433558E+0	-6.31000000E+2	2.00000000E+0	-9.80594784E+0	7.15852200E+6
70	02/09/2022	17:30:31.487	3.30112666E+0	-6.30000000E+2	2.00000000E+0	-9.80594784E+0	7.15852200E+6
71	02/09/2022	17:30:32.907	6.08300081E+0	-6.30000000E+2	2.00000000E+0	-9.80594784E+0	7.15852200E+6
72	02/09/2022	17:30:34.410	4.35842291E+0	-6.30000000E+2	2.00000000E+0	-9.80594784E+0	7.15852200E+6
73	02/09/2022	17:30:35.803	4.86808803E+0	-6.31000000E+2	2.00000000E+0	-9.80594784E+0	7.15852200E+6
74	02/09/2022	17:30:37.318	5.85788913E+0	-6.31000000E+2	2.00000000E+0	-9.80594784E+0	7.15852200E+6
75	02/09/2022	17:30:38.684	4.41901515E+0	-6.31000000E+2	2.00000000E+0	-9.80594784E+0	7.15852200E+6
76	02/09/2022	17:30:40.055	2.19359253E-1	-6.30000000E+2	2.00000000E+0	-9.80594784E+0	7.15852200E+6
77	02/09/2022	17:30:41.567	1.46725262E+0	-6.30000000E+2	2.00000000E+0	-9.80594784E+0	7.15852200E+6
78	02/09/2022	17:30:42.945	5.40037936E+0	-6.30000000E+2	2.00000000E+0	-9.80594784E+0	7.15852200E+6
79	02/09/2022	17:30:44.387	5.07172398E+0	-6.31000000E+2	2.00000000E+0	-9.80594784E+0	7.15852200E+6
80	02/09/2022	17:30:45.772	5.70947649E+0	-6.30000000E+2	2.00000000E+0	-9.80594784E+0	7.15852200E+6
81	02/09/2022	17:30:47.159	2.29330128E-1	-6.30000000E+2	2.00000000E+0	-9.80594784E+0	7.15852200E+6
82	02/09/2022	17:30:48.636	9.19621482E-1	-6.30000000E+2	2.00000000E+0	-9.80594784E+0	7.15852200E+6
83	02/09/2022	17:30:50.078	2.68830133E-1	-6.30000000E+2	2.00000000E+0	-9.80594784E+0	7.15852200E+6
84	02/09/2022	17:30:51.483	5.38465606E+0	-6.30000000E+2	2.00000000E+0	-9.80594784E+0	7.15852200E+6
85	02/09/2022	17:30:53.020	3.24053441E+0	-6.30000000E+2	2.00000000E+0	-9.80594784E+0	7.15852200E+6
86	02/09/2022	17:30:54.389	2.99701496E+0	-6.30000000E+2	2.00000000E+0	-9.80594784E+0	7.15852200E+6
87	02/09/2022	17:30:55.927	3.90551509E+0	-6.31000000E+2	2.00000000E+0	-9.80594784E+0	7.15852200E+6
88	02/09/2022	17:30:57.327	2.07969445E+0	-6.30000000E+2	2.00000000E+0	-9.80594784E+0	7.15852200E+6
89	02/09/2022	17:30:58.724	3.90168013E+0	-6.30000000E+2	2.00000000E+0	-9.80594784E+0	7.15852200E+6
90	02/09/2022	17:31:00.229	3.90014615E+0	-6.30000000E+2	2.00000000E+0	-9.80594784E+0	7.15852200E+6
91	02/09/2022	17:31:01.616	3.25664121E+0	-6.30000000E+2	2.00000000E+0	-9.80594784E+0	7.15852200E+6
92	02/09/2022	17:31:03.025	3.51243251E+0	-6.30000000E+2	2.00000000E+0	-9.80594784E+0	7.15852200E+6
93	02/09/2022	17:31:04.539	1.66590314E+0	-6.30000000E+2	2.00000000E+0	-9.80594784E+0	7.15852200E+6
94	02/09/2022	17:31:05.919	3.48060241E+0	-6.31000000E+2	2.00000000E+0	-9.80594784E+0	7.15852200E+6
95	02/09/2022	17:31:07.390	8.85106915E-1	-6.30000000E+2	2.00000000E+0	-9.80594784E+0	7.15852200E+6
96	02/09/2022	17:31:08.767	5.74322407E+0	-6.30000000E+2	2.00000000E+0	-9.80594784E+0	7.15852200E+6
97	02/09/2022	17:31:10.145	4.92714629E+0	-6.30000000E+2	2.00000000E+0	-9.80594784E+0	7.15852200E+6
98	02/09/2022	17:31:11.627	5.40344733E+0	-6.31000000E+2	2.00000000E+0	-9.80594784E+0	7.15852200E+6
99	02/09/2022	17:31:12.998	5.94916099E+0	-6.31000000E+2	2.00000000E+0	-9.80594784E+0	7.15852200E+6
100	02/09/2022	17:31:14.472	4.86617055E+0	-6.30000000E+2	2.00000000E+0	-9.80594784E+0	7.15852200E+6
101	02/09/2022	17:31:15.860	3.97185976E+0	-6.31000000E+2	2.00000000E+0	-9.80594784E+0	7.15852200E+6
102	02/09/2022	17:31:17.240	5.23279196E+0	-6.31000000E+2	2.00000000E+0	-9.80594784E+0	7.15852200E+6
103	02/09/2022	17:31:18.708	4.54480158E+0	-6.30000000E+2	2.00000000E+0	-9.80594784E+0	7.15852200E+6
104	02/09/2022	17:31:20.122	4.14903454E+0	-6.30000000E+2	2.00000000E+0	-9.80594784E+0	7.15852200E+6
105	02/09/2022	17:31:21.553	1.96541288E+0	-6.30000000E+2	2.00000000E+0	-9.80594784E+0	7.15852200E+6
106	02/09/2022	17:31:23.057	2.90459262E+0	-6.30000000E+2	2.00000000E+0	-9.80594784E+0	7.15852200E+6
107	02/09/2022	17:31:24.446	4.14174813E+0	-6.31000000E+2	2.00000000E+0	-9.80594784E+0	7.15852200E+6
108	02/09/2022	17:31:25.995	5.06175310E+0	-6.31000000E+2	2.00000000E+0	-9.80594784E+0	7.15852200E+6
109	02/09/2022	17:31:27.392	2.68868483E+0	-6.30000000E+2	2.00000000E+0	-9.80594784E+0	7.15852200E+6
110	02/09/2022	17:31:28.779	5.24314633E+0	-6.31000000E+2	2.00000000E+0	-9.80594784E+0	7.15852200E+6
111	02/09/2022	17:31:30.329	5.38772402E+0	-6.31000000E+2	2.00000000E+0	-9.80594784E+0	7.15852200E+6
112	02/09/2022	17:31:31.710	3.18262664E+0	-6.30000000E+2	2.00000000E+0	-9.80594784E+0	7.15852200E+6
113	02/09/2022	17:31:33.133	5.62549104E+0	-6.30000000E+2	2.00000000E+0	-9.80594784E+0	7.15852200E+6
114	02/09/2022	17:31:34.562	5.81762214E+0	-6.31000000E+2	2.00000000E+0	-9.80594784E+0	7.15852200E+6
115	02/09/2022	17:31:35.996	3.22787907E+0	-6.30000000E+2	2.00000000E+0	-9.80594784E+0	7.15852200E+6
116	02/09/2022	17:31:37.469	5.44064636E+0	-6.30000000E+2	2.00000000E+0	-9.80594784E+0	7.15852200E+6
117	02/09/2022	17:31:38.854	4.32084038E+0	-6.31000000E+2	2.00000000E+0	-9.80594784E+0	7.15852200E+6
118	02/09/2022	17:31:40.226	3.75671895E+0	-6.31000000E+2	2.00000000E+0	-9.80594784E+0	7.15852200E+6
119	02/09/2022	17:31:41.713	6.24713676E+0	-6.30000000E+2	2.00000000E+0	-9.80594784E+0	7.15852200E+6
120	02/09/2022	17:31:43.115	3.37360725E+0	-6.30000000E+2	2.00000000E+0	-9.80594784E+0	7.15852200E+6
121	02/09/2022	17:31:44.606	3.31761695E+0	-6.31000000E+2	2.00000000E+0	-9.80594784E+0	7.15852200E+6
122	02/09/2022	17:31:45.997	5.75281145E+0	-6.30000000E+2	2.00000000E+0	-9.80594784E+0	7.15852200E+6
123	02/09/2022	17:31:47.384	4.72466083E+0	-6.31000000E+2	2.00000000E+0	-9.80594784E+0	7.15852200E+6
124	02/09/2022	17:31:48.914	4.81401521E+0	-6.30000000E+2	2.00000000E+0	-9.80594784E+0	7.15852200E+6
125	02/09/2022	17:31:50.300	5.26308808E+0	-6.31000000E+2	2.00000000E+0	-9.80594784E+0	7.15852200E+6
126	02/09/2022	17:31:51.737	2.73930619E+0	-6.30000000E+2	2.00000000E+0	-9.80594784E+0	7.15852200E+6
127	02/09/2022	17:31:53.243	3.25855869E+0	-6.30000000E+2	2.00000000E+0	-9.80594784E+0	7.15852200E+6
128	02/09/2022	17:31:54.636	5.67035998E+0	-6.31000000E+2	2.00000000E+0	-9.80594784E+0	7.15852200E+6
129	02/09/2022	17:31:56.103	4.46618506E+0	-6.31000000E+2	2.00000000E+0	-9.80594784E+0	7.15852200E+6
130	02/09/2022	17:31:57.492	5.83372894E+0	-6.30000000E+2	2.00000000E+0	-9.80594784E+0	7.15852200E+6
131	02/09/2022	17:31:58.876	1.17656326E+0	-6.30000000E+2	2.00000000E+0	-9.80594784E+0	7.15852200E+6
132	02/09/2022	17:32:00.359	2.66644210E+0	-6.30000000E+2	2.00000000E+0	-9.80594784E+0	7.15852200E+6
133	02/09/2022	17:32:01.731	4.56474333E+0	-6.30000000E+2	2.00000000E+0	-9.80594784E+0	7.15852200E+6
134	02/09/2022	17:32:03.111	6.04503479E+0	-6.30000000E+2	2.00000000E+0	-9.80594784E+0	7.15852200E+6
135	02/09/2022	17:32:04.469	5.78962699E+0	-6.30000000E+2	2.00000000E+0	-9.80594784E+0	7.15852200E+6
136	02/09/2022	17:32:05.833	3.52048591E+0	-6.30000000E+2	2.00000000E+0	-9.80594784E+0	7.15852200E+6
137	02/09/2022	17:32:07.316	9.54136050E-1	-6.30000000E+2	2.00000000E+0	-9.80594784E+0	7.15852200E+6
138	02/09/2022	17:32:08.709	3.47753445E+0	-6.30000000E+2	2.00000000E+0	-9.80594784E+0	7.15852200E+6
139	02/09/2022	17:32:10.154	3.60984029E+0	-6.31000000E+2	2.00000000E+0	-9.80594784E+0	7.15852200E+6
140	02/09/2022	17:32:11.653	5.09588418E+0	-6.31000000E+2	2.00000000E+0	-9.80594784E+0	7.15852200E+6
141	02/09/2022	17:32:13.082	3.56650533E-2	-6.30000000E+2	2.00000000E+0	-9.80594784E+0	7.15852200E+6
142	02/09/2022	17:32:14.518	2.96748583E+0	-6.30000000E+2	2.00000000E+0	-9.80594784E+0	7.15852200E+6
143	02/09/2022	17:32:15.988	6.13400568E+0	-6.31000000E+2	2.00000000E+0	-9.80594784E+0	7.15852200E+6
144	02/09/2022	17:32:17.350	3.16268489E+0	-6.30000000E+2	2.00000000E+0	-9.80594784E+0	7.15852200E+6
145	02/09/2022	17:32:18.867	4.86655405E+0	-6.31000000E+2	2.00000000E+0	-9.80594784E+0	7.15852200E+6
146	02/09/2022	17:32:20.284	4.61728217E+0	-6.31000000E+2	2.00000000E+0	-9.80594784E+0	7.15852200E+6
147	02/09/2022	17:32:21.726	4.56014139E+0	-6.30000000E+2	2.00000000E+0	-9.80594784E+0	7.15852200E+6
148	02/09/2022	17:32:23.241	1.66436915E-1	-6.30000000E+2	2.00000000E+0	-9.80594784E+0	7.15852200E+6
149	02/09/2022	17:32:24.605	3.86141314E+0	-6.30000000E+2	2.00000000E+0	-9.80594784E+0	7.15852200E+6
150	02/09/2022	17:32:26.153	4.19620445E+0	-6.30000000E+2	2.00000000E+0	-9.80594784E+0	7.15852200E+6
151	02/09/2022	17:32:27.547	7.32859321E-1	-6.30000000E+2	2.00000000E+0	-9.80594784E+0	7.15852200E+6
152	02/09/2022	17:32:28.945	5.94417555E+0	-6.31000000E+2	2.00000000E+0	-9.80594784E+0	7.15852200E+6
153	02/09/2022	17:32:30.462	3.93504422E+0	-6.31000000E+2	2.00000000E+0	-9.80594784E+0	7.15852200E+6
154	02/09/2022	17:32:31.842	2.91111204E+0	-6.30000000E+2	2.00000000E+0	-9.80594784E+0	7.15852200E+6
155	02/09/2022	17:32:33.240	2.81217028E+0	-6.31000000E+2	2.00000000E+0	-9.80594784E+0	7.15852200E+6
156	02/09/2022	17:32:34.563	3.44915580E+0	-6.31000000E+2	2.00000000E+0	-9.80594784E+0	7.15852200E+6
157	02/09/2022	17:32:35.966	1.75947596E+0	-6.30000000E+2	2.00000000E+0	-9.80594784E+0	7.15852200E+6
158	02/09/2022	17:32:37.427	1.54395166E+0	-6.30000000E+2	2.00000000E+0	-9.80594784E+0	7.15852200E+6
159	02/09/2022	17:32:38.838	1.50445166E+0	-6.30000000E+2	2.00000000E+0	-9.80594784E+0	7.15852200E+6
160	02/09/2022	17:32:40.298	3.05147128E+0	-6.30000000E+2	2.00000000E+0	-9.80594784E+0	7.15852200E+6
161	02/09/2022	17:32:41.796	5.14535506E+0	-6.30000000E+2	2.00000000E+0	-9.80594784E+0	7.15852200E+6
162	02/09/2022	17:32:43.182	5.10892301E+0	-6.31000000E+2	2.00000000E+0	-9.80594784E+0	7.15852200E+6
163	02/09/2022	17:32:44.722	4.11298599E+0	-6.30000000E+2	2.00000000E+0	-9.80594784E+0	7.15852200E+6
164	02/09/2022	17:32:46.103	5.32866576E+0	-6.31000000E+2	2.00000000E+0	-9.80594784E+0	7.15852200E+6
165	02/09/2022	17:32:47.500	5.69528717E+0	-6.30000000E+2	2.00000000E+0	-9.80594784E+0	7.15852200E+6
166	02/09/2022	17:32:49.044	4.29514621E+0	-6.30000000E+2	2.00000000E+0	-9.80594784E+0	7.15852200E+6
167	02/09/2022	17:32:50.433	5.98175808E+0	-6.31000000E+2	2.00000000E+0	-9.80594784E+0	7.15852200E+6
168	02/09/2022	17:32:51.822	2.44784984E+0	-6.30000000E+2	2.00000000E+0	-9.80594784E+0	7.15852200E+6
169	02/09/2022	17:32:53.248	9.38029252E-1	-6.29000000E+2	2.00000000E+0	-9.80594784E+0	7.15852200E+6
170	02/09/2022	17:32:54.633	5.26960750E+0	-6.31000000E+2	2.00000000E+0	-9.80594784E+0	7.15852200E+6
171	02/09/2022	17:32:56.172	6.24943773E+0	-6.30000000E+2	2.00000000E+0	-9.80594784E+0	7.15852200E+6
172	02/09/2022	17:32:57.555	4.42131613E+0	-6.31000000E+2	2.00000000E+0	-9.80594784E+0	7.15852200E+6
173	02/09/2022	17:32:58.917	3.47063153E-1	-6.30000000E+2	2.00000000E+0	-9.80594784E+0	7.15852200E+6
174	02/09/2022	17:33:00.415	4.57356372E+0	-6.30000000E+2	2.00000000E+0	-9.80594784E+0	7.15852200E+6
175	02/09/2022	17:33:01.786	3.18952955E+0	-6.30000000E+2	2.00000000E+0	-9.80594784E+0	7.15852200E+6
176	02/09/2022	17:33:03.294	4.64412684E-1	-6.30000000E+2	2.00000000E+0	-9.80594784E+0	7.15852200E+6
177	02/09/2022	17:33:04.731	1.87145656E+0	-6.30000000E+2	2.00000000E+0	-9.80594784E+0	7.15852200E+6
178	02/09/2022	17:33:06.101	2.03175755E+0	-6.30000000E+2	2.00000000E+0	-9.80594784E+0	7.15852200E+6
179	02/09/2022	17:33:07.664	5.25119973E+0	-6.30000000E+2	2.00000000E+0	-9.80594784E+0	7.15852200E+6
180	02/09/2022	17:33:09.044	1.45843223E+0	-6.30000000E+2	2.00000000E+0	-9.80594784E+0	7.15852200E+6
181	02/09/2022	17:33:10.502	1.21069434E+0	-6.30000000E+2	2.00000000E+0	-9.80594784E+0	7.15852200E+6
182	02/09/2022	17:33:11.990	5.38925800E+0	-6.30000000E+2	2.00000000E+0	-9.80594784E+0	7.15852200E+6
183	02/09/2022	17:33:13.401	3.46027716E+0	-6.30000000E+2	2.00000000E+0	-9.80594784E+0	7.15852200E+6
184	02/09/2022	17:33:14.862	2.97707321E+0	-6.30000000E+2	2.00000000E+0	-9.80594784E+0	7.15852200E+6
185	02/09/2022	17:33:16.254	3.34407812E-1	-6.30000000E+2	2.00000000E+0	-9.80594784E+0	7.15852200E+6
186	02/09/2022	17:33:17.625	5.78272408E+0	-6.31000000E+2	2.00000000E+0	-9.80594784E+0	7.15852200E+6
187	02/09/2022	17:33:19.179	5.06175310E+0	-6.31000000E+2	2.00000000E+0	-9.80594784E+0	7.15852200E+6
188	02/09/2022	17:33:20.575	2.67296152E-1	-6.29000000E+2	2.00000000E+0	-9.80594784E+0	7.15852200E+6
189	02/09/2022	17:33:21.948	4.67940839E+0	-6.30000000E+2	2.00000000E+0	-9.80594784E+0	7.15852200E+6
190	02/09/2022	17:33:23.298	7.40145730E-2	-6.30000000E+2	2.00000000E+0	-9.80594784E+0	7.15852200E+6
191	02/09/2022	17:33:24.673	5.06405408E+0	-6.30000000E+2	2.00000000E+0	-9.80594784E+0	7.15852200E+6
192	02/09/2022	17:33:26.159	4.33886466E+0	-6.31000000E+2	2.00000000E+0	-9.80594784E+0	7.15852200E+6
193	02/09/2022	17:33:27.536	5.08629680E+0	-6.31000000E+2	2.00000000E+0	-9.80594784E+0	7.15852200E+6
194	02/09/2022	17:33:28.914	1.95505851E+0	-6.30000000E+2	2.00000000E+0	-9.80594784E+0	7.15852200E+6
195	02/09/2022	17:33:30.487	1.29199532E+0	-6.30000000E+2	2.00000000E+0	-9.80594784E+0	7.15852200E+6
196	02/09/2022	17:33:31.868	3.48290338E+0	-6.31000000E+2	2.00000000E+0	-9.80594784E+0	7.15852200E+6
197	02/09/2022	17:33:33.368	4.63760742E+0	-6.31000000E+2	2.00000000E+0	-9.80594784E+0	7.15852200E+6
198	02/09/2022	17:33:34.746	5.99786488E+0	-6.31000000E+2	2.00000000E+0	-9.80594784E+0	7.15852200E+6
199	02/09/2022	17:33:36.132	5.68953474E+0	-6.30000000E+2	2.00000000E+0	-9.80594784E+0	7.15852200E+6
200	02/09/2022	17:33:37.686	5.47132598E+0	-6.30000000E+2	2.00000000E+0	-9.80594784E+0	7.15852200E+6
201	02/09/2022	17:33:39.058	4.09035977E+0	-6.30000000E+2	2.00000000E+0	-9.80594784E+0	7.15852200E+6
202	02/09/2022	17:33:40.495	5.31140848E+0	-6.31000000E+2	2.00000000E+0	-9.80594784E+0	7.15852200E+6
203	02/09/2022	17:33:42.007	1.87068957E+0	-6.30000000E+2	2.00000000E+0	-9.80594784E+0	7.15852200E+6
204	02/09/2022	17:33:43.391	5.36701528E+0	-6.30000000E+2	2.00000000E+0	-9.80594784E+0	7.15852200E+6
205	02/09/2022	17:33:44.960	3.95690344E+0	-6.31000000E+2	2.00000000E+0	-9.80594784E+0	7.15852200E+6
206	02/09/2022	17:33:46.355	5.59596191E+0	-6.30000000E+2	2.00000000E+0	-9.80594784E+0	7.15852200E+6
207	02/09/2022	17:33:47.720	2.74966056E-1	-6.29000000E+2	2.00000000E+0	-9.80594784E+0	7.15852200E+6
208	02/09/2022	17:33:49.231	5.39539393E+0	-6.30000000E+2	2.00000000E+0	-9.80594784E+0	7.15852200E+6
209	02/09/2022	17:33:50.634	4.42630156E+0	-6.30000000E+2	2.00000000E+0	-9.80594784E+0	7.15852200E+6
210	02/09/2022	17:33:52.134	1.89024783E+0	-6.30000000E+2	2.00000000E+0	-9.80594784E+0	7.15852200E+6
211	02/09/2022	17:33:53.500	1.07340306E+0	-6.30000000E+2	2.00000000E+0	-9.80594784E+0	7.15852200E+6
212	02/09/2022	17:33:54.871	2.54334015E+0	-6.30000000E+2	2.00000000E+0	-9.80594784E+0	7.15852200E+6
213	02/09/2022	17:33:56.438	5.90774351E+0	-6.30000000E+2	2.00000000E+0	-9.80594784E+0	7.15852200E+6
214	02/09/2022	17:33:57.801	4.94095212E+0	-6.30000000E+2	2.00000000E+0	-9.80594784E+0	7.15852200E+6
215	02/09/2022	17:33:59.201	5.77620466E+0	-6.31000000E+2	2.00000000E+0	-9.80594784E+0	7.15852200E+6
216	02/09/2022	17:34:00.714	4.50760255E+0	-6.30000000E+2	2.00000000E+0	-9.80594784E+0	7.15852200E+6
217	02/09/2022	17:34:02.098	4.36801029E+0	-6.30000000E+2	2.00000000E+0	-9.80594784E+0	7.15852200E+6
218	02/09/2022	17:34:03.614	4.72351034E+0	-6.31000000E+2	2.00000000E+0	-9.80594784E+0	7.15852200E+6
219	02/09/2022	17:34:05.008	5.47976287E+0	-6.30000000E+2	2.00000000E+0	-9.80594784E+0	7.15852200E+6
220	02/09/2022	17:34:06.392	2.38610712E+0	-6.30000000E+2	2.00000000E+0	-9.80594784E+0	7.15852200E+6
221	02/09/2022	17:34:07.892	4.18930153E+0	-6.30000000E+2	2.00000000E+0	-9.80594784E+0	7.15852200E+6
222	02/09/2022	17:34:09.287	3.59718495E-1	-6.30000000E+2	2.00000000E+0	-9.80594784E+0	7.15852200E+6
223	02/09/2022	17:34:10.714	6.06305906E+0	-6.30000000E+2	2.00000000E+0	-9.80594784E+0	7.15852200E+6
224	02/09/2022	17:34:12.198	3.21445674E+0	-6.31000000E+2	2.00000000E+0	-9.80594784E+0	7.15852200E+6
225	02/09/2022	17:34:13.597	2.90305864E+0	-6.30000000E+2	2.00000000E+0	-9.80594784E+0	7.15852200E+6
226	02/09/2022	17:34:15.109	1.35488853E+0	-6.30000000E+2	2.00000000E+0	-9.80594784E+0	7.15852200E+6
227	02/09/2022	17:34:16.495	2.00376240E+0	-6.30000000E+2	2.00000000E+0	-9.80594784E+0	7.15852200E+6
228	02/09/2022	17:34:17.874	5.87016098E+0	-6.30000000E+2	2.00000000E+0	-9.80594784E+0	7.15852200E+6
229	02/09/2022	17:34:19.345	3.86141314E+0	-6.30000000E+2	2.00000000E+0	-9.80594784E+0	7.15852200E+6
230	02/09/2022	17:34:20.732	3.89477722E+0	-6.31000000E+2	2.00000000E+0	-9.80594784E+0	7.15852200E+6
231	02/09/2022	17:34:22.213	2.04402940E-1	-6.29000000E+2	2.00000000E+0	-9.80594784E+0	7.15852200E+6
232	02/09/2022	17:34:23.636	2.79567999E+0	-6.30000000E+2	2.00000000E+0	-9.80594784E+0	7.15852200E+6
233	02/09/2022	17:34:25.000	4.24567533E+0	-6.30000000E+2	2.00000000E+0	-9.80594784E+0	7.15852200E+6
234	02/09/2022	17:34:26.493	4.97048125E+0	-6.30000000E+2	2.00000000E+0	-9.80594784E+0	7.15852200E+6
235	02/09/2022	17:34:27.884	3.21368975E-1	-6.30000000E+2	2.00000000E+0	-9.80594784E+0	7.15852200E+6
236	02/09/2022	17:34:29.350	4.39600544E+0	-6.31000000E+2	2.00000000E+0	-9.80594784E+0	7.15852200E+6
237	02/09/2022	17:34:30.846	1.04847587E+0	-6.30000000E+2	2.00000000E+0	-9.80594784E+0	7.15852200E+6
238	02/09/2022	17:34:32.225	4.05699569E+0	-6.31000000E+2	2.00000000E+0	-9.80594784E+0	7.15852200E+6
239	02/09/2022	17:34:33.807	2.72013143E+0	-6.30000000E+2	2.00000000E+0	-9.80594784E+0	7.15852200E+6
240	02/09/2022	17:34:35.193	4.07808792E+0	-6.31000000E+2	2.00000000E+0	-9.80594784E+0	7.15852200E+6
241	02/09/2022	17:34:36.626	5.98789401E+0	-6.30000000E+2	2.00000000E+0	-9.80594784E+0	7.15852200E+6
242	02/09/2022	17:34:38.161	5.51120948E+0	-6.31000000E+2	2.00000000E+0	-9.80594784E+0	7.15852200E+6
243	02/09/2022	17:34:39.549	4.91027250E+0	-6.30000000E+2	2.00000000E+0	-9.80594784E+0	7.15852200E+6
244	02/09/2022	17:34:40.996	1.96349541E-1	-6.30000000E+2	2.00000000E+0	-9.80594784E+0	7.15852200E+6
245	02/09/2022	17:34:42.321	3.06297614E+0	-6.30000000E+2	2.00000000E+0	-9.80594784E+0	7.15852200E+6
246	02/09/2022	17:34:43.710	2.22312166E+0	-6.30000000E+2	2.00000000E+0	-9.80594784E+0	7.15852200E+6
247	02/09/2022	17:34:45.190	5.09741816E+0	-6.31000000E+2	2.00000000E+0	-9.80594784E+0	7.15852200E+6
248	02/09/2022	17:34:46.592	4.83280647E+0	-6.31000000E+2	2.00000000E+0	-9.80594784E+0	7.15852200E+6
249	02/09/2022	17:34:48.005	5.48359782E+0	-6.31000000E+2	2.00000000E+0	-9.80594784E+0	7.15852200E+6
250	02/09/2022	17:34:49.535	5.03644242E+0	-6.30000000E+2	2.00000000E+0	-9.80594784E+0	7.15852200E+6
251	02/09/2022	17:34:50.928	5.23509293E+0	-6.31000000E+2	2.00000000E+0	-9.80594784E+0	7.15852200E+6
252	02/09/2022	17:34:52.374	5.34745703E+0	-6.30000000E+2	2.00000000E+0	-9.80594784E+0	7.15852200E+6
253	02/09/2022	17:34:53.765	5.28149585E+0	-6.31000000E+2	2.00000000E+0	-9.80594784E+0	7.15852200E+6
254	02/09/2022	17:34:55.165	4.69858315E+0	-6.31000000E+2	2.00000000E+0	-9.80594784E+0	7.15852200E+6
255	02/09/2022	17:34:56.662	3.99601995E+0	-6.30000000E+2	2.00000000E+0	-9.80594784E+0	7.15852200E+6
256	02/09/2022	17:34:58.034	3.80542284E+0	-6.30000000E+2	2.00000000E+0	-9.80594784E+0	7.15852200E+6
257	02/09/2022	17:34:59.479	4.29859766E+0	-6.30000000E+2	2.00000000E+0	-9.80594784E+0	7.15852200E+6
258	02/09/2022	17:35:00.995	5.02647155E+0	-6.30000000E+2	2.00000000E+0	-9.80594784E+0	7.15852200E+6
259	02/09/2022	17:35:02.382	4.83280647E+0	-6.31000000E+2	2.00000000E+0	-9.80594784E+0	7.15852200E+6
260	02/09/2022	17:35:03.823	5.98137459E+0	-6.30000000E+2	2.00000000E+0	-9.80594784E+0	7.15852200E+6
261	02/09/2022	17:35:05.199	1.49946622E+0	-6.30000000E+2	2.00000000E+0	-9.80594784E+0	7.15852200E+6
262	02/09/2022	17:35:06.596	4.66598606E+0	-6.30000000E+2	2.00000000E+0	-9.80594784E+0	7.15852200E+6
263	02/09/2022	17:35:08.094	1.38441766E-1	-6.30000000E+2	2.00000000E+0	-9.80594784E+0	7.15852200E+6
264	02/09/2022	17:35:09.467	1.87759248E+0	-6.30000000E+2	2.00000000E+0	-9.80594784E+0	7.15852200E+6
265	02/09/2022	17:35:10.910	4.76952976E+0	-6.31000000E+2	2.00000000E+0	-9.80594784E+0	7.15852200E+6
266	02/09/2022	17:35:12.246	5.90429205E+0	-6.31000000E+2	2.00000000E+0	-9.80594784E+0	7.15852200E+6
267	02/09/2022	17:35:13.620	4.41863166E+0	-6.30000000E+2	2.00000000E+0	-9.80594784E+0	7.15852200E+6
268	02/09/2022	17:35:15.090	5.26922401E-1	-6.29000000E+2	2.00000000E+0	-9.80594784E+0	7.15852200E+6
269	02/09/2022	17:35:16.482	4.01634520E+0	-6.31000000E+2	2.00000000E+0	-9.80594784E+0	7.15852200E+6
270	02/09/2022	17:35:17.842	4.46963652E+0	-6.31000000E+2	2.00000000E+0	-9.80594784E+0	7.15852200E+6
271	02/09/2022	17:35:19.360	3.52355387E+0	-6.31000000E+2	2.00000000E+0	-9.80594784E+0	7.15852200E+6
272	02/09/2022	17:35:20.741	5.09511719E+0	-6.30000000E+2	2.00000000E+0	-9.80594784E+0	7.15852200E+6
273	02/09/2022	17:35:22.313	3.97185976E+0	-6.31000000E+2	2.00000000E+0	-9.80594784E+0	7.15852200E+6
274	02/09/2022	17:35:23.699	1.67625751E+0	-6.30000000E+2	2.00000000E+0	-9.80594784E+0	7.15852200E+6
275	02/09/2022	17:35:25.082	5.28494731E+0	-6.30000000E+2	2.00000000E+0	-9.80594784E+0	7.15852200E+6
276	02/09/2022	17:35:26.606	4.43282098E+0	-6.31000000E+2	2.00000000E+0	-9.80594784E+0	7.15852200E+6
277	02/09/2022	17:35:27.995	5.22512206E+0	-6.30000000E+2	2.00000000E+0	-9.80594784E+0	7.15852200E+6
278	02/09/2022	17:35:29.429	5.80343282E+0	-6.31000000E+2	2.00000000E+0	-9.80594784E+0	7.15852200E+6
279	02/09/2022	17:35:30.932	9.01213713E-1	-6.30000000E+2	2.00000000E+0	-9.80594784E+0	7.15852200E+6
280	02/09/2022	17:35:32.327	4.83549094E+0	-6.30000000E+2	2.00000000E+0	-9.80594784E+0	7.15852200E+6
281	02/09/2022	17:35:33.807	2.10308766E+0	-6.30000000E+2	2.00000000E+0	-9.80594784E+0	7.15852200E+6
282	02/09/2022	17:35:35.212	4.21729668E+0	-6.30000000E+2	2.00000000E+0	-9.80594784E+0	7.15852200E+6
283	02/09/2022	17:35:36.588	2.02523814E+0	-6.30000000E+2	2.00000000E+0	-9.80594784E+0	7.15852200E+6
284	02/09/2022	17:35:38.104	4.46004914E+0	-6.31000000E+2	2.00000000E+0	-9.80594784E+0	7.15852200E+6
285	02/09/2022	17:35:39.493	6.22451054E+0	-6.30000000E+2	2.00000000E+0	-9.80594784E+0	7.15852200E+6
286	02/09/2022	17:35:41.016	1.54932060E-1	-6.30000000E+2	2.00000000E+0	-9.80594784E+0	7.15852200E+6
287	02/09/2022	17:35:42.475	2.15984495E+0	-6.30000000E+2	2.00000000E+0	-9.80594784E+0	7.15852200E+6
288	02/09/2022	17:35:43.857	3.01043730E+0	-6.31000000E+2	2.00000000E+0	-9.80594784E+0	7.15852200E+6
289	02/09/2022	17:35:45.327	2.23232554E+0	-6.30000000E+2	2.00000000E+0	-9.80594784E+0	7.15852200E+6
290	02/09/2022	17:35:46.714	2.68254890E+0	-6.30000000E+2	2.00000000E+0	-9.80594784E+0	7.15852200E+6
291	02/09/2022	17:35:48.134	5.88128234E+0	-6.31000000E+2	2.00000000E+0	-9.80594784E+0	7.15852200E+6
292	02/09/2022	17:35:49.629	6.27896686E+0	-6.30000000E+2	2.00000000E+0	-9.80594784E+0	7.15852200E+6
293	02/09/2022	17:35:50.994	4.74843753E+0	-6.30000000E+2	2.00000000E+0	-9.80594784E+0	7.15852200E+6
294	02/09/2022	17:35:52.481	5.16337933E+0	-6.31000000E+2	2.00000000E+0	-9.80594784E+0	7.15852200E+6
295	02/09/2022	17:35:53.873	5.56950075E+0	-6.30000000E+2	2.00000000E+0	-9.80594784E+0	7.15852200E+6
296	02/09/2022	17:35:55.257	4.75073850E+0	-6.31000000E+2	2.00000000E+0	-9.80594784E+0	7.15852200E+6
297	02/09/2022	17:35:56.784	4.36762680E+0	-6.30000000E+2	2.00000000E+0	-9.80594784E+0	7.15852200E+6
298	02/09/2022	17:35:58.166	1.74682062E+0	-6.30000000E+2	2.00000000E+0	-9.80594784E+0	7.15852200E+6
299	02/09/2022	17:35:59.624	4.54096663E+0	-6.30000000E+2	2.00000000E+0	-9.80594784E+0	7.15852200E+6
300	02/09/2022	17:36:00.954	1.07225257E+0	-6.30000000E+2	2.00000000E+0	-9.80594784E+0	7.15852200E+6
301	02/09/2022	17:36:02.353	4.12295686E+0	-6.30000000E+2	2.00000000E+0	-9.80594784E+0	7.15852200E+6
