#Iteration	Date	Time	Chirp	Phase	RamanAxis	RatioMean	RatioStdDev
2	17/03/2023	16:53:40.835	0.00000000E+0	-6.28318531E+0	5.00000000E+0	3.53615216E-1	0.00000000E+0
4	17/03/2023	16:53:44.095	0.00000000E+0	-6.17849112E+0	5.00000000E+0	5.48493914E-1	0.00000000E+0
6	17/03/2023	16:53:47.341	0.00000000E+0	-6.07379693E+0	5.00000000E+0	3.59059399E-1	0.00000000E+0
8	17/03/2023	16:53:50.594	0.00000000E+0	-5.96910274E+0	5.00000000E+0	6.00056072E-1	0.00000000E+0
10	17/03/2023	16:53:53.944	0.00000000E+0	-5.86440855E+0	5.00000000E+0	3.59546316E-1	0.00000000E+0
12	17/03/2023	16:53:57.215	0.00000000E+0	-5.75971436E+0	5.00000000E+0	3.14436177E-1	0.00000000E+0
14	17/03/2023	16:54:00.540	0.00000000E+0	-5.65502017E+0	5.00000000E+0	3.47709498E-1	0.00000000E+0
16	17/03/2023	16:54:03.814	0.00000000E+0	-5.55032599E+0	5.00000000E+0	3.35604549E-1	0.00000000E+0
18	17/03/2023	16:54:07.056	0.00000000E+0	-5.44524830E+0	5.00000000E+0	5.99688967E-1	0.00000000E+0
20	17/03/2023	16:54:10.231	0.00000000E+0	-5.34055411E+0	5.00000000E+0	4.67442549E-1	0.00000000E+0
22	17/03/2023	16:54:13.569	0.00000000E+0	-5.23585992E+0	5.00000000E+0	5.78714993E-1	0.00000000E+0
24	17/03/2023	16:54:16.827	0.00000000E+0	-5.13116574E+0	5.00000000E+0	6.57691763E-1	0.00000000E+0
26	17/03/2023	16:54:19.966	0.00000000E+0	-5.02647155E+0	5.00000000E+0	3.96936019E-1	0.00000000E+0
28	17/03/2023	16:54:23.145	0.00000000E+0	-4.92177736E+0	5.00000000E+0	6.69035545E-1	0.00000000E+0
30	17/03/2023	16:54:26.439	0.00000000E+0	-4.81708317E+0	5.00000000E+0	6.54136878E-1	0.00000000E+0
32	17/03/2023	16:54:29.598	0.00000000E+0	-4.71238898E+0	5.00000000E+0	3.18233457E-1	0.00000000E+0
34	17/03/2023	16:54:32.873	0.00000000E+0	-4.60769479E+0	5.00000000E+0	4.60711051E-1	0.00000000E+0
36	17/03/2023	16:54:36.229	0.00000000E+0	-4.50300060E+0	5.00000000E+0	4.61021739E-1	0.00000000E+0
38	17/03/2023	16:54:39.479	0.00000000E+0	-4.39830641E+0	5.00000000E+0	6.59906820E-1	0.00000000E+0
40	17/03/2023	16:54:42.737	0.00000000E+0	-4.29361223E+0	5.00000000E+0	6.80154327E-1	0.00000000E+0
42	17/03/2023	16:54:45.935	0.00000000E+0	-4.18891804E+0	5.00000000E+0	3.25443672E-1	0.00000000E+0
44	17/03/2023	16:54:49.254	0.00000000E+0	-4.08422385E+0	5.00000000E+0	3.75727324E-1	0.00000000E+0
46	17/03/2023	16:54:52.515	0.00000000E+0	-3.97952966E+0	5.00000000E+0	3.82758346E-1	0.00000000E+0
48	17/03/2023	16:54:55.774	0.00000000E+0	-3.87445198E+0	5.00000000E+0	6.28425352E-1	0.00000000E+0
50	17/03/2023	16:54:59.092	0.00000000E+0	-3.76975779E+0	5.00000000E+0	3.17061171E-1	0.00000000E+0
52	17/03/2023	16:55:02.344	0.00000000E+0	-3.66506360E+0	5.00000000E+0	5.86890026E-1	0.00000000E+0
54	17/03/2023	16:55:05.627	0.00000000E+0	-3.56036941E+0	5.00000000E+0	6.32102943E-1	0.00000000E+0
56	17/03/2023	16:55:08.877	0.00000000E+0	-3.45567522E+0	5.00000000E+0	6.35646523E-1	0.00000000E+0
58	17/03/2023	16:55:12.153	0.00000000E+0	-3.35098103E+0	5.00000000E+0	4.11261068E-1	0.00000000E+0
60	17/03/2023	16:55:15.311	0.00000000E+0	-3.24628684E+0	5.00000000E+0	6.12092604E-1	0.00000000E+0
62	17/03/2023	16:55:18.551	0.00000000E+0	-3.14159265E+0	5.00000000E+0	6.92123891E-1	0.00000000E+0
64	17/03/2023	16:55:21.793	0.00000000E+0	-3.03689846E+0	5.00000000E+0	3.49622843E-1	0.00000000E+0
66	17/03/2023	16:55:25.128	0.00000000E+0	-2.93220428E+0	5.00000000E+0	3.34547204E-1	0.00000000E+0
68	17/03/2023	16:55:28.317	0.00000000E+0	-2.82751009E+0	5.00000000E+0	6.51674926E-1	0.00000000E+0
70	17/03/2023	16:55:31.527	0.00000000E+0	-2.72281590E+0	5.00000000E+0	3.12292519E-1	0.00000000E+0
72	17/03/2023	16:55:34.778	0.00000000E+0	-2.61812171E+0	5.00000000E+0	3.18459388E-1	0.00000000E+0
74	17/03/2023	16:55:38.042	0.00000000E+0	-2.51342752E+0	5.00000000E+0	6.18521623E-1	0.00000000E+0
76	17/03/2023	16:55:41.159	0.00000000E+0	-2.40873333E+0	5.00000000E+0	3.71968494E-1	0.00000000E+0
78	17/03/2023	16:55:44.476	0.00000000E+0	-2.30365565E+0	5.00000000E+0	4.98612830E-1	0.00000000E+0
80	17/03/2023	16:55:47.820	0.00000000E+0	-2.19896146E+0	5.00000000E+0	5.71266890E-1	0.00000000E+0
82	17/03/2023	16:55:51.106	0.00000000E+0	-2.09426727E+0	5.00000000E+0	3.59694209E-1	0.00000000E+0
84	17/03/2023	16:55:54.383	0.00000000E+0	-1.98957308E+0	5.00000000E+0	3.79844969E-1	0.00000000E+0
86	17/03/2023	16:55:57.732	0.00000000E+0	-1.88487889E+0	5.00000000E+0	5.39805323E-1	0.00000000E+0
88	17/03/2023	16:56:00.980	0.00000000E+0	-1.78018470E+0	5.00000000E+0	4.34576909E-1	0.00000000E+0
90	17/03/2023	16:56:04.238	0.00000000E+0	-1.67549052E+0	5.00000000E+0	3.87936933E-1	0.00000000E+0
92	17/03/2023	16:56:07.438	0.00000000E+0	-1.57079633E+0	5.00000000E+0	4.52962271E-1	0.00000000E+0
94	17/03/2023	16:56:10.680	0.00000000E+0	-1.46610214E+0	5.00000000E+0	5.08563224E-1	0.00000000E+0
96	17/03/2023	16:56:13.935	0.00000000E+0	-1.36140795E+0	5.00000000E+0	3.20079216E-1	0.00000000E+0
98	17/03/2023	16:56:17.131	0.00000000E+0	-1.25671376E+0	5.00000000E+0	4.48108229E-1	0.00000000E+0
100	17/03/2023	16:56:20.402	0.00000000E+0	-1.15201957E+0	5.00000000E+0	3.77984629E-1	0.00000000E+0
102	17/03/2023	16:56:23.598	0.00000000E+0	-1.04732538E+0	5.00000000E+0	3.12105480E-1	0.00000000E+0
104	17/03/2023	16:56:26.798	0.00000000E+0	-9.42631194E-1	5.00000000E+0	4.39001071E-1	0.00000000E+0
106	17/03/2023	16:56:29.913	0.00000000E+0	-8.37937005E-1	5.00000000E+0	3.63522533E-1	0.00000000E+0
108	17/03/2023	16:56:33.143	0.00000000E+0	-7.32859321E-1	5.00000000E+0	3.29521379E-1	0.00000000E+0
110	17/03/2023	16:56:36.430	0.00000000E+0	-6.28165133E-1	5.00000000E+0	3.17508895E-1	0.00000000E+0
112	17/03/2023	16:56:39.768	0.00000000E+0	-5.23470944E-1	5.00000000E+0	6.21139393E-1	0.00000000E+0
114	17/03/2023	16:56:42.952	0.00000000E+0	-4.18776755E-1	5.00000000E+0	6.51767914E-1	0.00000000E+0
116	17/03/2023	16:56:46.289	0.00000000E+0	-3.14082566E-1	5.00000000E+0	3.61506515E-1	0.00000000E+0
118	17/03/2023	16:56:49.535	0.00000000E+0	-2.09388378E-1	5.00000000E+0	6.78456763E-1	0.00000000E+0
120	17/03/2023	16:56:52.810	0.00000000E+0	-1.04694189E-1	5.00000000E+0	6.19409110E-1	0.00000000E+0
122	17/03/2023	16:56:56.113	0.00000000E+0	0.00000000E+0	5.00000000E+0	4.04447753E-1	0.00000000E+0
124	17/03/2023	16:56:59.295	0.00000000E+0	1.04694189E-1	5.00000000E+0	6.59751240E-1	0.00000000E+0
126	17/03/2023	16:57:02.560	0.00000000E+0	2.09388378E-1	5.00000000E+0	6.83463097E-1	0.00000000E+0
128	17/03/2023	16:57:05.812	0.00000000E+0	3.14082566E-1	5.00000000E+0	2.94388412E-1	0.00000000E+0
130	17/03/2023	16:57:09.070	0.00000000E+0	4.18776755E-1	5.00000000E+0	6.70394980E-1	0.00000000E+0
132	17/03/2023	16:57:12.322	0.00000000E+0	5.23470944E-1	5.00000000E+0	3.68858198E-1	0.00000000E+0
134	17/03/2023	16:57:15.669	0.00000000E+0	6.28165133E-1	5.00000000E+0	5.81566725E-1	0.00000000E+0
136	17/03/2023	16:57:18.867	0.00000000E+0	7.32859321E-1	5.00000000E+0	6.48362363E-1	0.00000000E+0
138	17/03/2023	16:57:22.018	0.00000000E+0	8.37937005E-1	5.00000000E+0	3.89168168E-1	0.00000000E+0
140	17/03/2023	16:57:25.288	0.00000000E+0	9.42631194E-1	5.00000000E+0	3.99184727E-1	0.00000000E+0
142	17/03/2023	16:57:28.562	0.00000000E+0	1.04732538E+0	5.00000000E+0	5.63082673E-1	0.00000000E+0
144	17/03/2023	16:57:31.784	0.00000000E+0	1.15201957E+0	5.00000000E+0	5.33727400E-1	0.00000000E+0
146	17/03/2023	16:57:35.073	0.00000000E+0	1.25671376E+0	5.00000000E+0	5.88508978E-1	0.00000000E+0
148	17/03/2023	16:57:38.411	0.00000000E+0	1.36140795E+0	5.00000000E+0	6.27999342E-1	0.00000000E+0
150	17/03/2023	16:57:41.672	0.00000000E+0	1.46610214E+0	5.00000000E+0	6.61549699E-1	0.00000000E+0
152	17/03/2023	16:57:44.944	0.00000000E+0	1.57079633E+0	5.00000000E+0	4.74536438E-1	0.00000000E+0
154	17/03/2023	16:57:48.189	0.00000000E+0	1.67549052E+0	5.00000000E+0	5.62280058E-1	0.00000000E+0
156	17/03/2023	16:57:51.451	0.00000000E+0	1.78018470E+0	5.00000000E+0	3.62615574E-1	0.00000000E+0
158	17/03/2023	16:57:54.678	0.00000000E+0	1.88487889E+0	5.00000000E+0	6.35194276E-1	0.00000000E+0
160	17/03/2023	16:57:58.020	0.00000000E+0	1.98957308E+0	5.00000000E+0	4.92869502E-1	0.00000000E+0
162	17/03/2023	16:58:01.613	0.00000000E+0	2.09426727E+0	5.00000000E+0	6.53356815E-1	0.00000000E+0
164	17/03/2023	16:58:04.820	0.00000000E+0	2.19896146E+0	5.00000000E+0	4.30089956E-1	0.00000000E+0
166	17/03/2023	16:58:08.217	0.00000000E+0	2.30365565E+0	5.00000000E+0	6.04384393E-1	0.00000000E+0
168	17/03/2023	16:58:11.397	0.00000000E+0	2.40873333E+0	5.00000000E+0	6.57379219E-1	0.00000000E+0
170	17/03/2023	16:58:14.656	0.00000000E+0	2.51342752E+0	5.00000000E+0	3.30307922E-1	0.00000000E+0
172	17/03/2023	16:58:17.901	0.00000000E+0	2.61812171E+0	5.00000000E+0	3.79880114E-1	0.00000000E+0
174	17/03/2023	16:58:21.074	0.00000000E+0	2.72281590E+0	5.00000000E+0	6.31933184E-1	0.00000000E+0
176	17/03/2023	16:58:24.270	0.00000000E+0	2.82751009E+0	5.00000000E+0	5.80802524E-1	0.00000000E+0
178	17/03/2023	16:58:27.620	0.00000000E+0	2.93220428E+0	5.00000000E+0	3.69812278E-1	0.00000000E+0
180	17/03/2023	16:58:30.882	0.00000000E+0	3.03689846E+0	5.00000000E+0	6.55424587E-1	0.00000000E+0
182	17/03/2023	16:58:34.144	0.00000000E+0	3.14159265E+0	5.00000000E+0	3.59302270E-1	0.00000000E+0
184	17/03/2023	16:58:37.397	0.00000000E+0	3.24628684E+0	5.00000000E+0	6.03598537E-1	0.00000000E+0
186	17/03/2023	16:58:40.587	0.00000000E+0	3.35098103E+0	5.00000000E+0	4.54938173E-1	0.00000000E+0
188	17/03/2023	16:58:43.910	0.00000000E+0	3.45567522E+0	5.00000000E+0	5.57333742E-1	0.00000000E+0
190	17/03/2023	16:58:47.148	0.00000000E+0	3.56036941E+0	5.00000000E+0	6.87147115E-1	0.00000000E+0
192	17/03/2023	16:58:50.424	0.00000000E+0	3.66506360E+0	5.00000000E+0	4.13073939E-1	0.00000000E+0
194	17/03/2023	16:58:53.673	0.00000000E+0	3.76975779E+0	5.00000000E+0	4.83750576E-1	0.00000000E+0
196	17/03/2023	16:58:57.029	0.00000000E+0	3.87445198E+0	5.00000000E+0	4.42336371E-1	0.00000000E+0
198	17/03/2023	16:59:00.304	0.00000000E+0	3.97952966E+0	5.00000000E+0	6.61784456E-1	0.00000000E+0
200	17/03/2023	16:59:03.701	0.00000000E+0	4.08422385E+0	5.00000000E+0	3.00511140E-1	0.00000000E+0
202	17/03/2023	16:59:07.038	0.00000000E+0	4.18891804E+0	5.00000000E+0	3.91728309E-1	0.00000000E+0
204	17/03/2023	16:59:10.277	0.00000000E+0	4.29361223E+0	5.00000000E+0	4.97397470E-1	0.00000000E+0
206	17/03/2023	16:59:13.492	0.00000000E+0	4.39830641E+0	5.00000000E+0	3.23509936E-1	0.00000000E+0
208	17/03/2023	16:59:16.771	0.00000000E+0	4.50300060E+0	5.00000000E+0	3.25643945E-1	0.00000000E+0
210	17/03/2023	16:59:19.987	0.00000000E+0	4.60769479E+0	5.00000000E+0	6.61490503E-1	0.00000000E+0
212	17/03/2023	16:59:23.137	0.00000000E+0	4.71238898E+0	5.00000000E+0	3.29160290E-1	0.00000000E+0
214	17/03/2023	16:59:26.263	0.00000000E+0	4.81708317E+0	5.00000000E+0	3.07859287E-1	0.00000000E+0
216	17/03/2023	16:59:29.384	0.00000000E+0	4.92177736E+0	5.00000000E+0	2.98470093E-1	0.00000000E+0
218	17/03/2023	16:59:32.552	0.00000000E+0	5.02647155E+0	5.00000000E+0	5.13628983E-1	0.00000000E+0
220	17/03/2023	16:59:35.871	0.00000000E+0	5.13116574E+0	5.00000000E+0	6.47251674E-1	0.00000000E+0
222	17/03/2023	16:59:39.101	0.00000000E+0	5.23585992E+0	5.00000000E+0	4.40668293E-1	0.00000000E+0
224	17/03/2023	16:59:42.270	0.00000000E+0	5.34055411E+0	5.00000000E+0	3.89792837E-1	0.00000000E+0
226	17/03/2023	16:59:45.628	0.00000000E+0	5.44524830E+0	5.00000000E+0	6.61922384E-1	0.00000000E+0
228	17/03/2023	16:59:48.845	0.00000000E+0	5.55032599E+0	5.00000000E+0	4.03274470E-1	0.00000000E+0
230	17/03/2023	16:59:52.085	0.00000000E+0	5.65502017E+0	5.00000000E+0	5.13711107E-1	0.00000000E+0
232	17/03/2023	16:59:55.278	0.00000000E+0	5.75971436E+0	5.00000000E+0	3.04537173E-1	0.00000000E+0
234	17/03/2023	16:59:58.413	0.00000000E+0	5.86440855E+0	5.00000000E+0	6.26570083E-1	0.00000000E+0
236	17/03/2023	17:00:01.668	0.00000000E+0	5.96910274E+0	5.00000000E+0	4.40922415E-1	0.00000000E+0
238	17/03/2023	17:00:04.929	0.00000000E+0	6.07379693E+0	5.00000000E+0	3.50568970E-1	0.00000000E+0
240	17/03/2023	17:00:08.093	0.00000000E+0	6.17849112E+0	5.00000000E+0	5.52941718E-1	0.00000000E+0
242	17/03/2023	17:00:12.712	0.00000000E+0	6.28318531E+0	5.00000000E+0	6.71162976E-1	0.00000000E+0
