#Iteration	Date	Time	STSX	STSY	RotationRateX	RotationRateY	FrCntX	FrCntY	TiptiltCmd1	TiptiltCmd2	TiptiltMonitor1	TiptiltMonitor2
1	02/09/2022	16:42:14.893	0.00000E+0	0.00000E+0	8.00000E+1	0.00000E+0	0.00000E+0	0.00000E+0	2.00000E+1	1.40000E+1	2.00024E+1	1.39962E+1
2	02/09/2022	16:42:16.401	0.00000E+0	0.00000E+0	8.00000E+1	0.00000E+0	0.00000E+0	0.00000E+0	2.00000E+1	1.40000E+1	1.99998E+1	1.40016E+1
3	02/09/2022	16:42:17.779	0.00000E+0	0.00000E+0	8.00000E+1	0.00000E+0	0.00000E+0	0.00000E+0	2.00000E+1	1.40000E+1	1.99981E+1	1.40004E+1
4	02/09/2022	16:42:19.353	0.00000E+0	0.00000E+0	8.00000E+1	0.00000E+0	0.00000E+0	0.00000E+0	2.00000E+1	1.40000E+1	2.00009E+1	1.40015E+1
5	02/09/2022	16:42:20.761	0.00000E+0	0.00000E+0	8.00000E+1	0.00000E+0	0.00000E+0	0.00000E+0	2.00000E+1	1.40000E+1	1.99988E+1	1.40003E+1
6	02/09/2022	16:42:22.136	0.00000E+0	0.00000E+0	8.00000E+1	0.00000E+0	0.00000E+0	0.00000E+0	2.00000E+1	1.40000E+1	1.99980E+1	1.40019E+1
7	02/09/2022	16:42:23.612	0.00000E+0	0.00000E+0	8.00000E+1	0.00000E+0	0.00000E+0	0.00000E+0	2.00000E+1	1.40000E+1	2.00014E+1	1.39988E+1
8	02/09/2022	16:42:24.994	0.00000E+0	0.00000E+0	8.00000E+1	0.00000E+0	0.00000E+0	0.00000E+0	2.00000E+1	1.40000E+1	1.99995E+1	1.39975E+1
9	02/09/2022	16:42:26.433	0.00000E+0	0.00000E+0	8.00000E+1	0.00000E+0	0.00000E+0	0.00000E+0	2.00000E+1	1.40000E+1	2.00016E+1	1.39986E+1
10	02/09/2022	16:42:27.958	0.00000E+0	0.00000E+0	8.00000E+1	0.00000E+0	0.00000E+0	0.00000E+0	2.00000E+1	1.40000E+1	1.99985E+1	1.39979E+1
11	02/09/2022	16:42:29.341	0.00000E+0	0.00000E+0	8.00000E+1	0.00000E+0	0.00000E+0	0.00000E+0	2.00000E+1	1.40000E+1	1.99998E+1	1.40007E+1
12	02/09/2022	16:42:30.839	0.00000E+0	0.00000E+0	8.00000E+1	0.00000E+0	0.00000E+0	0.00000E+0	2.00000E+1	1.40000E+1	2.00020E+1	1.39999E+1
13	02/09/2022	16:42:32.233	0.00000E+0	0.00000E+0	8.00000E+1	0.00000E+0	0.00000E+0	0.00000E+0	2.00000E+1	1.40000E+1	1.99973E+1	1.40009E+1
14	02/09/2022	16:42:33.626	0.00000E+0	0.00000E+0	8.00000E+1	0.00000E+0	0.00000E+0	0.00000E+0	2.00000E+1	1.40000E+1	1.99997E+1	1.40000E+1
15	02/09/2022	16:42:35.098	0.00000E+0	0.00000E+0	8.00000E+1	0.00000E+0	0.00000E+0	0.00000E+0	2.00000E+1	1.40000E+1	2.00013E+1	1.39990E+1
16	02/09/2022	16:42:36.481	0.00000E+0	0.00000E+0	8.00000E+1	0.00000E+0	0.00000E+0	0.00000E+0	2.00000E+1	1.40000E+1	2.00008E+1	1.40003E+1
17	02/09/2022	16:42:37.997	0.00000E+0	0.00000E+0	8.00000E+1	0.00000E+0	0.00000E+0	0.00000E+0	2.00000E+1	1.40000E+1	2.00002E+1	1.40004E+1
18	02/09/2022	16:42:39.400	0.00000E+0	0.00000E+0	8.00000E+1	0.00000E+0	0.00000E+0	0.00000E+0	2.00000E+1	1.40000E+1	1.99993E+1	1.39999E+1
19	02/09/2022	16:42:40.796	0.00000E+0	0.00000E+0	8.00000E+1	0.00000E+0	0.00000E+0	0.00000E+0	2.00000E+1	1.40000E+1	2.00008E+1	1.39979E+1
20	02/09/2022	16:42:42.269	0.00000E+0	0.00000E+0	8.00000E+1	0.00000E+0	0.00000E+0	0.00000E+0	2.00000E+1	1.40000E+1	2.00021E+1	1.40019E+1
21	02/09/2022	16:42:43.662	0.00000E+0	0.00000E+0	8.00000E+1	0.00000E+0	0.00000E+0	0.00000E+0	2.00000E+1	1.40000E+1	2.00001E+1	1.40011E+1
22	02/09/2022	16:42:45.116	0.00000E+0	0.00000E+0	8.00000E+1	0.00000E+0	0.00000E+0	0.00000E+0	2.00000E+1	1.40000E+1	2.00021E+1	1.40014E+1
23	02/09/2022	16:42:46.621	0.00000E+0	0.00000E+0	8.00000E+1	0.00000E+0	0.00000E+0	0.00000E+0	2.00000E+1	1.40000E+1	1.99988E+1	1.40015E+1
24	02/09/2022	16:42:48.002	0.00000E+0	0.00000E+0	8.00000E+1	0.00000E+0	0.00000E+0	0.00000E+0	2.00000E+1	1.40000E+1	2.00018E+1	1.40006E+1
25	02/09/2022	16:42:49.542	0.00000E+0	0.00000E+0	8.00000E+1	0.00000E+0	0.00000E+0	0.00000E+0	2.00000E+1	1.40000E+1	1.99999E+1	1.39980E+1
26	02/09/2022	16:42:50.927	0.00000E+0	0.00000E+0	8.00000E+1	0.00000E+0	0.00000E+0	0.00000E+0	2.00000E+1	1.40000E+1	2.00007E+1	1.39992E+1
27	02/09/2022	16:42:52.316	0.00000E+0	0.00000E+0	8.00000E+1	0.00000E+0	0.00000E+0	0.00000E+0	2.00000E+1	1.40000E+1	1.99979E+1	1.39982E+1
28	02/09/2022	16:42:53.912	0.00000E+0	0.00000E+0	8.00000E+1	0.00000E+0	0.00000E+0	0.00000E+0	2.00000E+1	1.40000E+1	2.00027E+1	1.39999E+1
29	02/09/2022	16:42:55.306	0.00000E+0	0.00000E+0	8.00000E+1	0.00000E+0	0.00000E+0	0.00000E+0	2.00000E+1	1.40000E+1	2.00011E+1	1.40007E+1
30	02/09/2022	16:42:56.734	0.00000E+0	0.00000E+0	8.00000E+1	0.00000E+0	0.00000E+0	0.00000E+0	2.00000E+1	1.40000E+1	2.00008E+1	1.39991E+1
31	02/09/2022	16:42:58.155	0.00000E+0	0.00000E+0	8.00000E+1	0.00000E+0	0.00000E+0	0.00000E+0	2.00000E+1	1.40000E+1	2.00019E+1	1.40018E+1
32	02/09/2022	16:42:59.573	0.00000E+0	0.00000E+0	8.00000E+1	0.00000E+0	0.00000E+0	0.00000E+0	2.00000E+1	1.40000E+1	2.00009E+1	1.39987E+1
33	02/09/2022	16:43:01.058	0.00000E+0	0.00000E+0	8.00000E+1	0.00000E+0	0.00000E+0	0.00000E+0	2.00000E+1	1.40000E+1	2.00006E+1	1.39992E+1
34	02/09/2022	16:43:02.471	0.00000E+0	0.00000E+0	8.00000E+1	0.00000E+0	0.00000E+0	0.00000E+0	2.00000E+1	1.40000E+1	1.99994E+1	1.40004E+1
35	02/09/2022	16:43:03.898	0.00000E+0	0.00000E+0	8.00000E+1	0.00000E+0	0.00000E+0	0.00000E+0	2.00000E+1	1.40000E+1	2.00014E+1	1.39987E+1
36	02/09/2022	16:43:05.405	0.00000E+0	0.00000E+0	8.00000E+1	0.00000E+0	0.00000E+0	0.00000E+0	2.00000E+1	1.40000E+1	2.00012E+1	1.39989E+1
37	02/09/2022	16:43:06.803	0.00000E+0	0.00000E+0	8.00000E+1	0.00000E+0	0.00000E+0	0.00000E+0	2.00000E+1	1.40000E+1	2.00005E+1	1.40024E+1
38	02/09/2022	16:43:08.247	0.00000E+0	0.00000E+0	8.00000E+1	0.00000E+0	0.00000E+0	0.00000E+0	2.00000E+1	1.40000E+1	1.99963E+1	1.40003E+1
39	02/09/2022	16:43:09.715	0.00000E+0	0.00000E+0	8.00000E+1	0.00000E+0	0.00000E+0	0.00000E+0	2.00000E+1	1.40000E+1	2.00000E+1	1.40000E+1
40	02/09/2022	16:43:11.155	0.00000E+0	0.00000E+0	8.00000E+1	0.00000E+0	0.00000E+0	0.00000E+0	2.00000E+1	1.40000E+1	1.99991E+1	1.40013E+1
41	02/09/2022	16:43:12.674	0.00000E+0	0.00000E+0	8.00000E+1	0.00000E+0	0.00000E+0	0.00000E+0	2.00000E+1	1.40000E+1	2.00017E+1	1.40007E+1
42	02/09/2022	16:43:14.046	0.00000E+0	0.00000E+0	8.00000E+1	0.00000E+0	0.00000E+0	0.00000E+0	2.00000E+1	1.40000E+1	1.99999E+1	1.39997E+1
43	02/09/2022	16:43:15.477	0.00000E+0	0.00000E+0	8.00000E+1	0.00000E+0	0.00000E+0	0.00000E+0	2.00000E+1	1.40000E+1	1.99989E+1	1.40000E+1
44	02/09/2022	16:43:16.981	0.00000E+0	0.00000E+0	8.00000E+1	0.00000E+0	0.00000E+0	0.00000E+0	2.00000E+1	1.40000E+1	1.99996E+1	1.40012E+1
45	02/09/2022	16:43:18.374	0.00000E+0	0.00000E+0	8.00000E+1	0.00000E+0	0.00000E+0	0.00000E+0	2.00000E+1	1.40000E+1	2.00012E+1	1.39998E+1
46	02/09/2022	16:43:19.841	0.00000E+0	0.00000E+0	8.00000E+1	0.00000E+0	0.00000E+0	0.00000E+0	2.00000E+1	1.40000E+1	1.99986E+1	1.39997E+1
47	02/09/2022	16:43:21.230	0.00000E+0	0.00000E+0	8.00000E+1	0.00000E+0	0.00000E+0	0.00000E+0	2.00000E+1	1.40000E+1	1.99996E+1	1.40000E+1
48	02/09/2022	16:43:22.612	0.00000E+0	0.00000E+0	8.00000E+1	0.00000E+0	0.00000E+0	0.00000E+0	2.00000E+1	1.40000E+1	2.00012E+1	1.39985E+1
49	02/09/2022	16:43:24.136	0.00000E+0	0.00000E+0	8.00000E+1	0.00000E+0	0.00000E+0	0.00000E+0	2.00000E+1	1.40000E+1	1.99999E+1	1.40016E+1
50	02/09/2022	16:43:25.522	0.00000E+0	0.00000E+0	8.00000E+1	0.00000E+0	0.00000E+0	0.00000E+0	2.00000E+1	1.40000E+1	2.00023E+1	1.40012E+1
51	02/09/2022	16:43:26.992	0.00000E+0	0.00000E+0	8.00000E+1	0.00000E+0	0.00000E+0	0.00000E+0	2.00000E+1	1.40000E+1	1.99992E+1	1.39999E+1
52	02/09/2022	16:43:28.381	0.00000E+0	0.00000E+0	8.00000E+1	0.00000E+0	0.00000E+0	0.00000E+0	2.00000E+1	1.40000E+1	2.00001E+1	1.39985E+1
53	02/09/2022	16:43:29.761	0.00000E+0	0.00000E+0	8.00000E+1	0.00000E+0	0.00000E+0	0.00000E+0	2.00000E+1	1.40000E+1	2.00012E+1	1.40004E+1
54	02/09/2022	16:43:31.228	0.00000E+0	0.00000E+0	8.00000E+1	0.00000E+0	0.00000E+0	0.00000E+0	2.00000E+1	1.40000E+1	1.99997E+1	1.40015E+1
55	02/09/2022	16:43:32.609	0.00000E+0	0.00000E+0	8.00000E+1	0.00000E+0	0.00000E+0	0.00000E+0	2.00000E+1	1.40000E+1	2.00004E+1	1.40007E+1
56	02/09/2022	16:43:34.099	0.00000E+0	0.00000E+0	8.00000E+1	0.00000E+0	0.00000E+0	0.00000E+0	2.00000E+1	1.40000E+1	2.00017E+1	1.39987E+1
57	02/09/2022	16:43:35.616	0.00000E+0	0.00000E+0	8.00000E+1	0.00000E+0	0.00000E+0	0.00000E+0	2.00000E+1	1.40000E+1	1.99986E+1	1.40002E+1
58	02/09/2022	16:43:36.984	0.00000E+0	0.00000E+0	8.00000E+1	0.00000E+0	0.00000E+0	0.00000E+0	2.00000E+1	1.40000E+1	1.99984E+1	1.39985E+1
59	02/09/2022	16:43:38.482	0.00000E+0	0.00000E+0	8.00000E+1	0.00000E+0	0.00000E+0	0.00000E+0	2.00000E+1	1.40000E+1	2.00027E+1	1.39976E+1
60	02/09/2022	16:43:39.861	0.00000E+0	0.00000E+0	8.00000E+1	0.00000E+0	0.00000E+0	0.00000E+0	2.00000E+1	1.40000E+1	1.99992E+1	1.40016E+1
61	02/09/2022	16:43:41.243	0.00000E+0	0.00000E+0	8.00000E+1	0.00000E+0	0.00000E+0	0.00000E+0	2.00000E+1	1.40000E+1	2.00015E+1	1.40017E+1
62	02/09/2022	16:43:42.780	0.00000E+0	0.00000E+0	8.00000E+1	0.00000E+0	0.00000E+0	0.00000E+0	2.00000E+1	1.40000E+1	1.99995E+1	1.40008E+1
63	02/09/2022	16:43:44.164	0.00000E+0	0.00000E+0	8.00000E+1	0.00000E+0	0.00000E+0	0.00000E+0	2.00000E+1	1.40000E+1	1.99998E+1	1.40002E+1
64	02/09/2022	16:43:45.633	0.00000E+0	0.00000E+0	8.00000E+1	0.00000E+0	0.00000E+0	0.00000E+0	2.00000E+1	1.40000E+1	1.99976E+1	1.39996E+1
65	02/09/2022	16:43:47.147	0.00000E+0	0.00000E+0	8.00000E+1	0.00000E+0	0.00000E+0	0.00000E+0	2.00000E+1	1.40000E+1	1.99995E+1	1.40005E+1
66	02/09/2022	16:43:48.515	0.00000E+0	0.00000E+0	8.00000E+1	0.00000E+0	0.00000E+0	0.00000E+0	2.00000E+1	1.40000E+1	2.00024E+1	1.40001E+1
67	02/09/2022	16:43:50.075	0.00000E+0	0.00000E+0	8.00000E+1	0.00000E+0	0.00000E+0	0.00000E+0	2.00000E+1	1.40000E+1	1.99976E+1	1.39991E+1
68	02/09/2022	16:43:51.462	0.00000E+0	0.00000E+0	8.00000E+1	0.00000E+0	0.00000E+0	0.00000E+0	2.00000E+1	1.40000E+1	2.00022E+1	1.39998E+1
69	02/09/2022	16:43:52.847	0.00000E+0	0.00000E+0	8.00000E+1	0.00000E+0	0.00000E+0	0.00000E+0	2.00000E+1	1.40000E+1	2.00017E+1	1.40000E+1
70	02/09/2022	16:43:54.322	0.00000E+0	0.00000E+0	8.00000E+1	0.00000E+0	0.00000E+0	0.00000E+0	2.00000E+1	1.40000E+1	2.00003E+1	1.40017E+1
71	02/09/2022	16:43:55.700	0.00000E+0	0.00000E+0	8.00000E+1	0.00000E+0	0.00000E+0	0.00000E+0	2.00000E+1	1.40000E+1	2.00002E+1	1.40007E+1
72	02/09/2022	16:43:57.242	0.00000E+0	0.00000E+0	8.00000E+1	0.00000E+0	0.00000E+0	0.00000E+0	2.00000E+1	1.40000E+1	1.99974E+1	1.40024E+1
73	02/09/2022	16:43:58.643	0.00000E+0	0.00000E+0	8.00000E+1	0.00000E+0	0.00000E+0	0.00000E+0	2.00000E+1	1.40000E+1	2.00007E+1	1.39997E+1
74	02/09/2022	16:44:00.030	0.00000E+0	0.00000E+0	8.00000E+1	0.00000E+0	0.00000E+0	0.00000E+0	2.00000E+1	1.40000E+1	2.00001E+1	1.40005E+1
75	02/09/2022	16:44:01.556	0.00000E+0	0.00000E+0	8.00000E+1	0.00000E+0	0.00000E+0	0.00000E+0	2.00000E+1	1.40000E+1	1.99990E+1	1.39983E+1
76	02/09/2022	16:44:02.938	0.00000E+0	0.00000E+0	8.00000E+1	0.00000E+0	0.00000E+0	0.00000E+0	2.00000E+1	1.40000E+1	2.00020E+1	1.39996E+1
77	02/09/2022	16:44:04.345	0.00000E+0	0.00000E+0	8.00000E+1	0.00000E+0	0.00000E+0	0.00000E+0	2.00000E+1	1.40000E+1	1.99992E+1	1.39996E+1
78	02/09/2022	16:44:05.828	0.00000E+0	0.00000E+0	8.00000E+1	0.00000E+0	0.00000E+0	0.00000E+0	2.00000E+1	1.40000E+1	1.99977E+1	1.40027E+1
79	02/09/2022	16:44:07.214	0.00000E+0	0.00000E+0	8.00000E+1	0.00000E+0	0.00000E+0	0.00000E+0	2.00000E+1	1.40000E+1	1.99990E+1	1.40005E+1
80	02/09/2022	16:44:08.752	0.00000E+0	0.00000E+0	8.00000E+1	0.00000E+0	0.00000E+0	0.00000E+0	2.00000E+1	1.40000E+1	1.99971E+1	1.39992E+1
81	02/09/2022	16:44:10.127	0.00000E+0	0.00000E+0	8.00000E+1	0.00000E+0	0.00000E+0	0.00000E+0	2.00000E+1	1.40000E+1	1.99991E+1	1.40025E+1
82	02/09/2022	16:44:11.495	0.00000E+0	0.00000E+0	8.00000E+1	0.00000E+0	0.00000E+0	0.00000E+0	2.00000E+1	1.40000E+1	2.00003E+1	1.40010E+1
83	02/09/2022	16:44:13.045	0.00000E+0	0.00000E+0	8.00000E+1	0.00000E+0	0.00000E+0	0.00000E+0	2.00000E+1	1.40000E+1	1.99996E+1	1.40012E+1
84	02/09/2022	16:44:14.429	0.00000E+0	0.00000E+0	8.00000E+1	0.00000E+0	0.00000E+0	0.00000E+0	2.00000E+1	1.40000E+1	2.00021E+1	1.39991E+1
85	02/09/2022	16:44:15.895	0.00000E+0	0.00000E+0	8.00000E+1	0.00000E+0	0.00000E+0	0.00000E+0	2.00000E+1	1.40000E+1	1.99983E+1	1.40008E+1
86	02/09/2022	16:44:17.261	0.00000E+0	0.00000E+0	8.00000E+1	0.00000E+0	0.00000E+0	0.00000E+0	2.00000E+1	1.40000E+1	2.00006E+1	1.40014E+1
87	02/09/2022	16:44:18.641	0.00000E+0	0.00000E+0	8.00000E+1	0.00000E+0	0.00000E+0	0.00000E+0	2.00000E+1	1.40000E+1	1.99990E+1	1.39997E+1
88	02/09/2022	16:44:20.132	0.00000E+0	0.00000E+0	8.00000E+1	0.00000E+0	0.00000E+0	0.00000E+0	2.00000E+1	1.40000E+1	2.00003E+1	1.40001E+1
89	02/09/2022	16:44:21.514	0.00000E+0	0.00000E+0	8.00000E+1	0.00000E+0	0.00000E+0	0.00000E+0	2.00000E+1	1.40000E+1	1.99986E+1	1.40026E+1
90	02/09/2022	16:44:22.905	0.00000E+0	0.00000E+0	8.00000E+1	0.00000E+0	0.00000E+0	0.00000E+0	2.00000E+1	1.40000E+1	1.99971E+1	1.40012E+1
91	02/09/2022	16:44:24.477	0.00000E+0	0.00000E+0	8.00000E+1	0.00000E+0	0.00000E+0	0.00000E+0	2.00000E+1	1.40000E+1	1.99998E+1	1.40005E+1
92	02/09/2022	16:44:25.866	0.00000E+0	0.00000E+0	8.00000E+1	0.00000E+0	0.00000E+0	0.00000E+0	2.00000E+1	1.40000E+1	2.00006E+1	1.40000E+1
93	02/09/2022	16:44:27.377	0.00000E+0	0.00000E+0	8.00000E+1	0.00000E+0	0.00000E+0	0.00000E+0	2.00000E+1	1.40000E+1	1.99997E+1	1.40021E+1
94	02/09/2022	16:44:28.782	0.00000E+0	0.00000E+0	8.00000E+1	0.00000E+0	0.00000E+0	0.00000E+0	2.00000E+1	1.40000E+1	2.00008E+1	1.39982E+1
95	02/09/2022	16:44:30.159	0.00000E+0	0.00000E+0	8.00000E+1	0.00000E+0	0.00000E+0	0.00000E+0	2.00000E+1	1.40000E+1	1.99989E+1	1.39997E+1
96	02/09/2022	16:44:31.659	0.00000E+0	0.00000E+0	8.00000E+1	0.00000E+0	0.00000E+0	0.00000E+0	2.00000E+1	1.40000E+1	2.00024E+1	1.39980E+1
97	02/09/2022	16:44:33.052	0.00000E+0	0.00000E+0	8.00000E+1	0.00000E+0	0.00000E+0	0.00000E+0	2.00000E+1	1.40000E+1	1.99980E+1	1.40002E+1
98	02/09/2022	16:44:34.444	0.00000E+0	0.00000E+0	8.00000E+1	0.00000E+0	0.00000E+0	0.00000E+0	2.00000E+1	1.40000E+1	2.00004E+1	1.39998E+1
99	02/09/2022	16:44:35.937	0.00000E+0	0.00000E+0	8.00000E+1	0.00000E+0	0.00000E+0	0.00000E+0	2.00000E+1	1.40000E+1	2.00018E+1	1.40000E+1
100	02/09/2022	16:44:37.320	0.00000E+0	0.00000E+0	8.00000E+1	0.00000E+0	0.00000E+0	0.00000E+0	2.00000E+1	1.40000E+1	1.99994E+1	1.40018E+1
101	02/09/2022	16:44:38.862	0.00000E+0	0.00000E+0	8.00000E+1	0.00000E+0	0.00000E+0	0.00000E+0	2.00000E+1	1.40000E+1	1.99987E+1	1.40009E+1
102	02/09/2022	16:44:40.227	0.00000E+0	0.00000E+0	8.00000E+1	0.00000E+0	0.00000E+0	0.00000E+0	2.00000E+1	1.40000E+1	1.99991E+1	1.39985E+1
103	02/09/2022	16:44:41.604	0.00000E+0	0.00000E+0	8.00000E+1	0.00000E+0	0.00000E+0	0.00000E+0	2.00000E+1	1.40000E+1	2.00006E+1	1.40019E+1
104	02/09/2022	16:44:43.092	0.00000E+0	0.00000E+0	8.00000E+1	0.00000E+0	0.00000E+0	0.00000E+0	2.00000E+1	1.40000E+1	1.99998E+1	1.40005E+1
105	02/09/2022	16:44:44.469	0.00000E+0	0.00000E+0	8.00000E+1	0.00000E+0	0.00000E+0	0.00000E+0	2.00000E+1	1.40000E+1	2.00002E+1	1.39992E+1
106	02/09/2022	16:44:45.899	0.00000E+0	0.00000E+0	8.00000E+1	0.00000E+0	0.00000E+0	0.00000E+0	2.00000E+1	1.40000E+1	1.99993E+1	1.39976E+1
107	02/09/2022	16:44:47.313	0.00000E+0	0.00000E+0	8.00000E+1	0.00000E+0	0.00000E+0	0.00000E+0	2.00000E+1	1.40000E+1	1.99994E+1	1.39969E+1
108	02/09/2022	16:44:48.713	0.00000E+0	0.00000E+0	8.00000E+1	0.00000E+0	0.00000E+0	0.00000E+0	2.00000E+1	1.40000E+1	2.00011E+1	1.39990E+1
109	02/09/2022	16:44:50.180	0.00000E+0	0.00000E+0	8.00000E+1	0.00000E+0	0.00000E+0	0.00000E+0	2.00000E+1	1.40000E+1	2.00014E+1	1.40009E+1
110	02/09/2022	16:44:51.556	0.00000E+0	0.00000E+0	8.00000E+1	0.00000E+0	0.00000E+0	0.00000E+0	2.00000E+1	1.40000E+1	1.99992E+1	1.40023E+1
111	02/09/2022	16:44:52.949	0.00000E+0	0.00000E+0	8.00000E+1	0.00000E+0	0.00000E+0	0.00000E+0	2.00000E+1	1.40000E+1	1.99993E+1	1.39998E+1
112	02/09/2022	16:44:54.474	0.00000E+0	0.00000E+0	8.00000E+1	0.00000E+0	0.00000E+0	0.00000E+0	2.00000E+1	1.40000E+1	2.00006E+1	1.40000E+1
113	02/09/2022	16:44:55.862	0.00000E+0	0.00000E+0	8.00000E+1	0.00000E+0	0.00000E+0	0.00000E+0	2.00000E+1	1.40000E+1	2.00007E+1	1.40003E+1
114	02/09/2022	16:44:57.304	0.00000E+0	0.00000E+0	8.00000E+1	0.00000E+0	0.00000E+0	0.00000E+0	2.00000E+1	1.40000E+1	2.00010E+1	1.39999E+1
115	02/09/2022	16:44:58.684	0.00000E+0	0.00000E+0	8.00000E+1	0.00000E+0	0.00000E+0	0.00000E+0	2.00000E+1	1.40000E+1	1.99976E+1	1.40026E+1
116	02/09/2022	16:45:00.126	0.00000E+0	0.00000E+0	8.00000E+1	0.00000E+0	0.00000E+0	0.00000E+0	2.00000E+1	1.40000E+1	2.00000E+1	1.40005E+1
117	02/09/2022	16:45:01.641	0.00000E+0	0.00000E+0	8.00000E+1	0.00000E+0	0.00000E+0	0.00000E+0	2.00000E+1	1.40000E+1	2.00001E+1	1.39996E+1
118	02/09/2022	16:45:03.015	0.00000E+0	0.00000E+0	8.00000E+1	0.00000E+0	0.00000E+0	0.00000E+0	2.00000E+1	1.40000E+1	2.00010E+1	1.40011E+1
119	02/09/2022	16:45:04.469	0.00000E+0	0.00000E+0	8.00000E+1	0.00000E+0	0.00000E+0	0.00000E+0	2.00000E+1	1.40000E+1	1.99986E+1	1.39992E+1
120	02/09/2022	16:45:05.955	0.00000E+0	0.00000E+0	8.00000E+1	0.00000E+0	0.00000E+0	0.00000E+0	2.00000E+1	1.40000E+1	2.00019E+1	1.40014E+1
121	02/09/2022	16:45:07.333	0.00000E+0	0.00000E+0	8.00000E+1	0.00000E+0	0.00000E+0	0.00000E+0	2.00000E+1	1.40000E+1	1.99982E+1	1.39982E+1
122	02/09/2022	16:45:08.813	0.00000E+0	0.00000E+0	8.00000E+1	0.00000E+0	0.00000E+0	0.00000E+0	2.00000E+1	1.40000E+1	2.00000E+1	1.40006E+1
123	02/09/2022	16:45:10.207	0.00000E+0	0.00000E+0	8.00000E+1	0.00000E+0	0.00000E+0	0.00000E+0	2.00000E+1	1.40000E+1	2.00000E+1	1.39980E+1
124	02/09/2022	16:45:11.583	0.00000E+0	0.00000E+0	8.00000E+1	0.00000E+0	0.00000E+0	0.00000E+0	2.00000E+1	1.40000E+1	1.99948E+1	1.40007E+1
125	02/09/2022	16:45:13.090	0.00000E+0	0.00000E+0	8.00000E+1	0.00000E+0	0.00000E+0	0.00000E+0	2.00000E+1	1.40000E+1	1.99978E+1	1.39997E+1
126	02/09/2022	16:45:14.485	0.00000E+0	0.00000E+0	8.00000E+1	0.00000E+0	0.00000E+0	0.00000E+0	2.00000E+1	1.40000E+1	2.00003E+1	1.39979E+1
127	02/09/2022	16:45:15.979	0.00000E+0	0.00000E+0	8.00000E+1	0.00000E+0	0.00000E+0	0.00000E+0	2.00000E+1	1.40000E+1	1.99999E+1	1.39997E+1
128	02/09/2022	16:45:17.441	0.00000E+0	0.00000E+0	8.00000E+1	0.00000E+0	0.00000E+0	0.00000E+0	2.00000E+1	1.40000E+1	1.99991E+1	1.39996E+1
129	02/09/2022	16:45:18.812	0.00000E+0	0.00000E+0	8.00000E+1	0.00000E+0	0.00000E+0	0.00000E+0	2.00000E+1	1.40000E+1	2.00017E+1	1.40010E+1
130	02/09/2022	16:45:20.280	0.00000E+0	0.00000E+0	8.00000E+1	0.00000E+0	0.00000E+0	0.00000E+0	2.00000E+1	1.40000E+1	1.99995E+1	1.39998E+1
131	02/09/2022	16:45:21.671	0.00000E+0	0.00000E+0	8.00000E+1	0.00000E+0	0.00000E+0	0.00000E+0	2.00000E+1	1.40000E+1	1.99966E+1	1.40000E+1
132	02/09/2022	16:45:23.100	0.00000E+0	0.00000E+0	8.00000E+1	0.00000E+0	0.00000E+0	0.00000E+0	2.00000E+1	1.40000E+1	1.99994E+1	1.39979E+1
133	02/09/2022	16:45:24.581	0.00000E+0	0.00000E+0	8.00000E+1	0.00000E+0	0.00000E+0	0.00000E+0	2.00000E+1	1.40000E+1	2.00021E+1	1.40014E+1
134	02/09/2022	16:45:25.955	0.00000E+0	0.00000E+0	8.00000E+1	0.00000E+0	0.00000E+0	0.00000E+0	2.00000E+1	1.40000E+1	2.00016E+1	1.40000E+1
135	02/09/2022	16:45:27.459	0.00000E+0	0.00000E+0	8.00000E+1	0.00000E+0	0.00000E+0	0.00000E+0	2.00000E+1	1.40000E+1	1.99997E+1	1.39998E+1
136	02/09/2022	16:45:28.846	0.00000E+0	0.00000E+0	8.00000E+1	0.00000E+0	0.00000E+0	0.00000E+0	2.00000E+1	1.40000E+1	1.99987E+1	1.39978E+1
137	02/09/2022	16:45:30.225	0.00000E+0	0.00000E+0	8.00000E+1	0.00000E+0	0.00000E+0	0.00000E+0	2.00000E+1	1.40000E+1	2.00010E+1	1.40001E+1
138	02/09/2022	16:45:31.750	0.00000E+0	0.00000E+0	8.00000E+1	0.00000E+0	0.00000E+0	0.00000E+0	2.00000E+1	1.40000E+1	2.00008E+1	1.39972E+1
139	02/09/2022	16:45:33.142	0.00000E+0	0.00000E+0	8.00000E+1	0.00000E+0	0.00000E+0	0.00000E+0	2.00000E+1	1.40000E+1	1.99978E+1	1.40018E+1
140	02/09/2022	16:45:34.619	0.00000E+0	0.00000E+0	8.00000E+1	0.00000E+0	0.00000E+0	0.00000E+0	2.00000E+1	1.40000E+1	1.99987E+1	1.40003E+1
141	02/09/2022	16:45:36.040	0.00000E+0	0.00000E+0	8.00000E+1	0.00000E+0	0.00000E+0	0.00000E+0	2.00000E+1	1.40000E+1	1.99986E+1	1.40002E+1
142	02/09/2022	16:45:37.443	0.00000E+0	0.00000E+0	8.00000E+1	0.00000E+0	0.00000E+0	0.00000E+0	2.00000E+1	1.40000E+1	2.00004E+1	1.39990E+1
143	02/09/2022	16:45:38.999	0.00000E+0	0.00000E+0	8.00000E+1	0.00000E+0	0.00000E+0	0.00000E+0	2.00000E+1	1.40000E+1	2.00014E+1	1.39981E+1
144	02/09/2022	16:45:40.366	0.00000E+0	0.00000E+0	8.00000E+1	0.00000E+0	0.00000E+0	0.00000E+0	2.00000E+1	1.40000E+1	1.99995E+1	1.40003E+1
145	02/09/2022	16:45:41.813	0.00000E+0	0.00000E+0	8.00000E+1	0.00000E+0	0.00000E+0	0.00000E+0	2.00000E+1	1.40000E+1	2.00008E+1	1.39995E+1
146	02/09/2022	16:45:43.329	0.00000E+0	0.00000E+0	8.00000E+1	0.00000E+0	0.00000E+0	0.00000E+0	2.00000E+1	1.40000E+1	2.00001E+1	1.39986E+1
147	02/09/2022	16:45:44.750	0.00000E+0	0.00000E+0	8.00000E+1	0.00000E+0	0.00000E+0	0.00000E+0	2.00000E+1	1.40000E+1	1.99989E+1	1.39987E+1
148	02/09/2022	16:45:46.291	0.00000E+0	0.00000E+0	8.00000E+1	0.00000E+0	0.00000E+0	0.00000E+0	2.00000E+1	1.40000E+1	2.00002E+1	1.40002E+1
149	02/09/2022	16:45:47.699	0.00000E+0	0.00000E+0	8.00000E+1	0.00000E+0	0.00000E+0	0.00000E+0	2.00000E+1	1.40000E+1	2.00015E+1	1.39993E+1
150	02/09/2022	16:45:49.058	0.00000E+0	0.00000E+0	8.00000E+1	0.00000E+0	0.00000E+0	0.00000E+0	2.00000E+1	1.40000E+1	1.99997E+1	1.40006E+1
151	02/09/2022	16:45:50.622	0.00000E+0	0.00000E+0	8.00000E+1	0.00000E+0	0.00000E+0	0.00000E+0	2.00000E+1	1.40000E+1	2.00011E+1	1.40005E+1
152	02/09/2022	16:45:52.011	0.00000E+0	0.00000E+0	8.00000E+1	0.00000E+0	0.00000E+0	0.00000E+0	2.00000E+1	1.40000E+1	2.00004E+1	1.40015E+1
153	02/09/2022	16:45:53.466	0.00000E+0	0.00000E+0	8.00000E+1	0.00000E+0	0.00000E+0	0.00000E+0	2.00000E+1	1.40000E+1	1.99991E+1	1.39982E+1
154	02/09/2022	16:45:54.975	0.00000E+0	0.00000E+0	8.00000E+1	0.00000E+0	0.00000E+0	0.00000E+0	2.00000E+1	1.40000E+1	2.00036E+1	1.39983E+1
155	02/09/2022	16:45:56.365	0.00000E+0	0.00000E+0	8.00000E+1	0.00000E+0	0.00000E+0	0.00000E+0	2.00000E+1	1.40000E+1	1.99994E+1	1.40009E+1
156	02/09/2022	16:45:57.951	0.00000E+0	0.00000E+0	8.00000E+1	0.00000E+0	0.00000E+0	0.00000E+0	2.00000E+1	1.40000E+1	1.99993E+1	1.39979E+1
157	02/09/2022	16:45:59.347	0.00000E+0	0.00000E+0	8.00000E+1	0.00000E+0	0.00000E+0	0.00000E+0	2.00000E+1	1.40000E+1	2.00010E+1	1.40008E+1
158	02/09/2022	16:46:00.755	0.00000E+0	0.00000E+0	8.00000E+1	0.00000E+0	0.00000E+0	0.00000E+0	2.00000E+1	1.40000E+1	1.99983E+1	1.39984E+1
159	02/09/2022	16:46:02.215	0.00000E+0	0.00000E+0	8.00000E+1	0.00000E+0	0.00000E+0	0.00000E+0	2.00000E+1	1.40000E+1	2.00004E+1	1.40002E+1
160	02/09/2022	16:46:03.613	0.00000E+0	0.00000E+0	8.00000E+1	0.00000E+0	0.00000E+0	0.00000E+0	2.00000E+1	1.40000E+1	2.00017E+1	1.40016E+1
161	02/09/2022	16:46:05.110	0.00000E+0	0.00000E+0	8.00000E+1	0.00000E+0	0.00000E+0	0.00000E+0	2.00000E+1	1.40000E+1	2.00007E+1	1.40017E+1
162	02/09/2022	16:46:06.520	0.00000E+0	0.00000E+0	8.00000E+1	0.00000E+0	0.00000E+0	0.00000E+0	2.00000E+1	1.40000E+1	2.00013E+1	1.40003E+1
163	02/09/2022	16:46:07.891	0.00000E+0	0.00000E+0	8.00000E+1	0.00000E+0	0.00000E+0	0.00000E+0	2.00000E+1	1.40000E+1	1.99995E+1	1.39994E+1
164	02/09/2022	16:46:09.433	0.00000E+0	0.00000E+0	8.00000E+1	0.00000E+0	0.00000E+0	0.00000E+0	2.00000E+1	1.40000E+1	1.99998E+1	1.39990E+1
165	02/09/2022	16:46:10.792	0.00000E+0	0.00000E+0	8.00000E+1	0.00000E+0	0.00000E+0	0.00000E+0	2.00000E+1	1.40000E+1	2.00019E+1	1.40006E+1
166	02/09/2022	16:46:12.262	0.00000E+0	0.00000E+0	8.00000E+1	0.00000E+0	0.00000E+0	0.00000E+0	2.00000E+1	1.40000E+1	1.99994E+1	1.39982E+1
167	02/09/2022	16:46:13.783	0.00000E+0	0.00000E+0	8.00000E+1	0.00000E+0	0.00000E+0	0.00000E+0	2.00000E+1	1.40000E+1	2.00013E+1	1.39986E+1
168	02/09/2022	16:46:15.161	0.00000E+0	0.00000E+0	8.00000E+1	0.00000E+0	0.00000E+0	0.00000E+0	2.00000E+1	1.40000E+1	2.00004E+1	1.39987E+1
169	02/09/2022	16:46:16.650	0.00000E+0	0.00000E+0	8.00000E+1	0.00000E+0	0.00000E+0	0.00000E+0	2.00000E+1	1.40000E+1	1.99994E+1	1.39980E+1
170	02/09/2022	16:46:18.061	0.00000E+0	0.00000E+0	8.00000E+1	0.00000E+0	0.00000E+0	0.00000E+0	2.00000E+1	1.40000E+1	2.00011E+1	1.40003E+1
171	02/09/2022	16:46:19.439	0.00000E+0	0.00000E+0	8.00000E+1	0.00000E+0	0.00000E+0	0.00000E+0	2.00000E+1	1.40000E+1	1.99999E+1	1.40005E+1
172	02/09/2022	16:46:20.998	0.00000E+0	0.00000E+0	8.00000E+1	0.00000E+0	0.00000E+0	0.00000E+0	2.00000E+1	1.40000E+1	1.99993E+1	1.40008E+1
173	02/09/2022	16:46:22.368	0.00000E+0	0.00000E+0	8.00000E+1	0.00000E+0	0.00000E+0	0.00000E+0	2.00000E+1	1.40000E+1	2.00012E+1	1.40011E+1
174	02/09/2022	16:46:23.788	0.00000E+0	0.00000E+0	8.00000E+1	0.00000E+0	0.00000E+0	0.00000E+0	2.00000E+1	1.40000E+1	2.00013E+1	1.39989E+1
175	02/09/2022	16:46:25.304	0.00000E+0	0.00000E+0	8.00000E+1	0.00000E+0	0.00000E+0	0.00000E+0	2.00000E+1	1.40000E+1	2.00011E+1	1.39994E+1
176	02/09/2022	16:46:26.686	0.00000E+0	0.00000E+0	8.00000E+1	0.00000E+0	0.00000E+0	0.00000E+0	2.00000E+1	1.40000E+1	1.99983E+1	1.40003E+1
177	02/09/2022	16:46:28.234	0.00000E+0	0.00000E+0	8.00000E+1	0.00000E+0	0.00000E+0	0.00000E+0	2.00000E+1	1.40000E+1	1.99991E+1	1.40004E+1
178	02/09/2022	16:46:29.623	0.00000E+0	0.00000E+0	8.00000E+1	0.00000E+0	0.00000E+0	0.00000E+0	2.00000E+1	1.40000E+1	1.99995E+1	1.39985E+1
179	02/09/2022	16:46:30.999	0.00000E+0	0.00000E+0	8.00000E+1	0.00000E+0	0.00000E+0	0.00000E+0	2.00000E+1	1.40000E+1	2.00006E+1	1.40003E+1
180	02/09/2022	16:46:32.443	0.00000E+0	0.00000E+0	8.00000E+1	0.00000E+0	0.00000E+0	0.00000E+0	2.00000E+1	1.40000E+1	2.00009E+1	1.39999E+1
181	02/09/2022	16:46:33.835	0.00000E+0	0.00000E+0	8.00000E+1	0.00000E+0	0.00000E+0	0.00000E+0	2.00000E+1	1.40000E+1	2.00003E+1	1.39982E+1
182	02/09/2022	16:46:35.224	0.00000E+0	0.00000E+0	8.00000E+1	0.00000E+0	0.00000E+0	0.00000E+0	2.00000E+1	1.40000E+1	2.00002E+1	1.39984E+1
183	02/09/2022	16:46:36.699	0.00000E+0	0.00000E+0	8.00000E+1	0.00000E+0	0.00000E+0	0.00000E+0	2.00000E+1	1.40000E+1	2.00012E+1	1.39998E+1
184	02/09/2022	16:46:38.093	0.00000E+0	0.00000E+0	8.00000E+1	0.00000E+0	0.00000E+0	0.00000E+0	2.00000E+1	1.40000E+1	1.99996E+1	1.39991E+1
185	02/09/2022	16:46:39.635	0.00000E+0	0.00000E+0	8.00000E+1	0.00000E+0	0.00000E+0	0.00000E+0	2.00000E+1	1.40000E+1	2.00008E+1	1.39966E+1
186	02/09/2022	16:46:41.036	0.00000E+0	0.00000E+0	8.00000E+1	0.00000E+0	0.00000E+0	0.00000E+0	2.00000E+1	1.40000E+1	2.00010E+1	1.39996E+1
187	02/09/2022	16:46:42.457	0.00000E+0	0.00000E+0	8.00000E+1	0.00000E+0	0.00000E+0	0.00000E+0	2.00000E+1	1.40000E+1	1.99976E+1	1.39979E+1
188	02/09/2022	16:46:43.964	0.00000E+0	0.00000E+0	8.00000E+1	0.00000E+0	0.00000E+0	0.00000E+0	2.00000E+1	1.40000E+1	1.99986E+1	1.40005E+1
189	02/09/2022	16:46:45.345	0.00000E+0	0.00000E+0	8.00000E+1	0.00000E+0	0.00000E+0	0.00000E+0	2.00000E+1	1.40000E+1	2.00004E+1	1.40007E+1
190	02/09/2022	16:46:46.793	0.00000E+0	0.00000E+0	8.00000E+1	0.00000E+0	0.00000E+0	0.00000E+0	2.00000E+1	1.40000E+1	2.00000E+1	1.39990E+1
191	02/09/2022	16:46:48.167	0.00000E+0	0.00000E+0	8.00000E+1	0.00000E+0	0.00000E+0	0.00000E+0	2.00000E+1	1.40000E+1	1.99950E+1	1.39992E+1
192	02/09/2022	16:46:49.558	0.00000E+0	0.00000E+0	8.00000E+1	0.00000E+0	0.00000E+0	0.00000E+0	2.00000E+1	1.40000E+1	1.99982E+1	1.39987E+1
193	02/09/2022	16:46:51.078	0.00000E+0	0.00000E+0	8.00000E+1	0.00000E+0	0.00000E+0	0.00000E+0	2.00000E+1	1.40000E+1	2.00030E+1	1.40010E+1
194	02/09/2022	16:46:52.464	0.00000E+0	0.00000E+0	8.00000E+1	0.00000E+0	0.00000E+0	0.00000E+0	2.00000E+1	1.40000E+1	1.99992E+1	1.40009E+1
195	02/09/2022	16:46:53.910	0.00000E+0	0.00000E+0	8.00000E+1	0.00000E+0	0.00000E+0	0.00000E+0	2.00000E+1	1.40000E+1	2.00006E+1	1.39991E+1
196	02/09/2022	16:46:55.281	0.00000E+0	0.00000E+0	8.00000E+1	0.00000E+0	0.00000E+0	0.00000E+0	2.00000E+1	1.40000E+1	1.99989E+1	1.39980E+1
197	02/09/2022	16:46:56.711	0.00000E+0	0.00000E+0	8.00000E+1	0.00000E+0	0.00000E+0	0.00000E+0	2.00000E+1	1.40000E+1	2.00005E+1	1.40010E+1
198	02/09/2022	16:46:58.225	0.00000E+0	0.00000E+0	8.00000E+1	0.00000E+0	0.00000E+0	0.00000E+0	2.00000E+1	1.40000E+1	1.99976E+1	1.40002E+1
199	02/09/2022	16:46:59.606	0.00000E+0	0.00000E+0	8.00000E+1	0.00000E+0	0.00000E+0	0.00000E+0	2.00000E+1	1.40000E+1	1.99986E+1	1.40003E+1
200	02/09/2022	16:47:00.983	0.00000E+0	0.00000E+0	8.00000E+1	0.00000E+0	0.00000E+0	0.00000E+0	2.00000E+1	1.40000E+1	1.99994E+1	1.40007E+1
201	02/09/2022	16:47:02.565	0.00000E+0	0.00000E+0	8.00000E+1	0.00000E+0	0.00000E+0	0.00000E+0	2.00000E+1	1.40000E+1	1.99982E+1	1.40010E+1
202	02/09/2022	16:47:03.968	0.00000E+0	0.00000E+0	8.00000E+1	0.00000E+0	0.00000E+0	0.00000E+0	2.00000E+1	1.40000E+1	1.99995E+1	1.39990E+1
203	02/09/2022	16:47:05.455	0.00000E+0	0.00000E+0	8.00000E+1	0.00000E+0	0.00000E+0	0.00000E+0	2.00000E+1	1.40000E+1	2.00013E+1	1.40019E+1
204	02/09/2022	16:47:06.835	0.00000E+0	0.00000E+0	8.00000E+1	0.00000E+0	0.00000E+0	0.00000E+0	2.00000E+1	1.40000E+1	1.99993E+1	1.40009E+1
205	02/09/2022	16:47:08.222	0.00000E+0	0.00000E+0	8.00000E+1	0.00000E+0	0.00000E+0	0.00000E+0	2.00000E+1	1.40000E+1	1.99985E+1	1.39983E+1
206	02/09/2022	16:47:09.799	0.00000E+0	0.00000E+0	8.00000E+1	0.00000E+0	0.00000E+0	0.00000E+0	2.00000E+1	1.40000E+1	1.99996E+1	1.40020E+1
207	02/09/2022	16:47:11.186	0.00000E+0	0.00000E+0	8.00000E+1	0.00000E+0	0.00000E+0	0.00000E+0	2.00000E+1	1.40000E+1	2.00001E+1	1.40016E+1
208	02/09/2022	16:47:12.634	0.00000E+0	0.00000E+0	8.00000E+1	0.00000E+0	0.00000E+0	0.00000E+0	2.00000E+1	1.40000E+1	1.99994E+1	1.40016E+1
209	02/09/2022	16:47:14.129	0.00000E+0	0.00000E+0	8.00000E+1	0.00000E+0	0.00000E+0	0.00000E+0	2.00000E+1	1.40000E+1	1.99998E+1	1.40006E+1
210	02/09/2022	16:47:15.518	0.00000E+0	0.00000E+0	8.00000E+1	0.00000E+0	0.00000E+0	0.00000E+0	2.00000E+1	1.40000E+1	2.00024E+1	1.40009E+1
211	02/09/2022	16:47:16.971	0.00000E+0	0.00000E+0	8.00000E+1	0.00000E+0	0.00000E+0	0.00000E+0	2.00000E+1	1.40000E+1	2.00013E+1	1.39988E+1
212	02/09/2022	16:47:18.371	0.00000E+0	0.00000E+0	8.00000E+1	0.00000E+0	0.00000E+0	0.00000E+0	2.00000E+1	1.40000E+1	1.99994E+1	1.39999E+1
213	02/09/2022	16:47:19.769	0.00000E+0	0.00000E+0	8.00000E+1	0.00000E+0	0.00000E+0	0.00000E+0	2.00000E+1	1.40000E+1	1.99996E+1	1.39992E+1
214	02/09/2022	16:47:21.277	0.00000E+0	0.00000E+0	8.00000E+1	0.00000E+0	0.00000E+0	0.00000E+0	2.00000E+1	1.40000E+1	2.00014E+1	1.39975E+1
215	02/09/2022	16:47:22.709	0.00000E+0	0.00000E+0	8.00000E+1	0.00000E+0	0.00000E+0	0.00000E+0	2.00000E+1	1.40000E+1	2.00017E+1	1.39986E+1
216	02/09/2022	16:47:24.161	0.00000E+0	0.00000E+0	8.00000E+1	0.00000E+0	0.00000E+0	0.00000E+0	2.00000E+1	1.40000E+1	2.00026E+1	1.39992E+1
217	02/09/2022	16:47:25.550	0.00000E+0	0.00000E+0	8.00000E+1	0.00000E+0	0.00000E+0	0.00000E+0	2.00000E+1	1.40000E+1	2.00012E+1	1.40002E+1
218	02/09/2022	16:47:26.926	0.00000E+0	0.00000E+0	8.00000E+1	0.00000E+0	0.00000E+0	0.00000E+0	2.00000E+1	1.40000E+1	1.99992E+1	1.39989E+1
219	02/09/2022	16:47:28.445	0.00000E+0	0.00000E+0	8.00000E+1	0.00000E+0	0.00000E+0	0.00000E+0	2.00000E+1	1.40000E+1	1.99971E+1	1.40020E+1
220	02/09/2022	16:47:29.840	0.00000E+0	0.00000E+0	8.00000E+1	0.00000E+0	0.00000E+0	0.00000E+0	2.00000E+1	1.40000E+1	2.00030E+1	1.40020E+1
221	02/09/2022	16:47:31.235	0.00000E+0	0.00000E+0	8.00000E+1	0.00000E+0	0.00000E+0	0.00000E+0	2.00000E+1	1.40000E+1	2.00001E+1	1.40013E+1
222	02/09/2022	16:47:32.734	0.00000E+0	0.00000E+0	8.00000E+1	0.00000E+0	0.00000E+0	0.00000E+0	2.00000E+1	1.40000E+1	2.00018E+1	1.39976E+1
223	02/09/2022	16:47:34.129	0.00000E+0	0.00000E+0	8.00000E+1	0.00000E+0	0.00000E+0	0.00000E+0	2.00000E+1	1.40000E+1	2.00020E+1	1.40008E+1
224	02/09/2022	16:47:35.693	0.00000E+0	0.00000E+0	8.00000E+1	0.00000E+0	0.00000E+0	0.00000E+0	2.00000E+1	1.40000E+1	1.99999E+1	1.40009E+1
225	02/09/2022	16:47:37.075	0.00000E+0	0.00000E+0	8.00000E+1	0.00000E+0	0.00000E+0	0.00000E+0	2.00000E+1	1.40000E+1	2.00007E+1	1.39978E+1
226	02/09/2022	16:47:38.449	0.00000E+0	0.00000E+0	8.00000E+1	0.00000E+0	0.00000E+0	0.00000E+0	2.00000E+1	1.40000E+1	2.00002E+1	1.39988E+1
227	02/09/2022	16:47:39.992	0.00000E+0	0.00000E+0	8.00000E+1	0.00000E+0	0.00000E+0	0.00000E+0	2.00000E+1	1.40000E+1	2.00000E+1	1.40011E+1
228	02/09/2022	16:47:41.366	0.00000E+0	0.00000E+0	8.00000E+1	0.00000E+0	0.00000E+0	0.00000E+0	2.00000E+1	1.40000E+1	2.00012E+1	1.39995E+1
229	02/09/2022	16:47:42.805	0.00000E+0	0.00000E+0	8.00000E+1	0.00000E+0	0.00000E+0	0.00000E+0	2.00000E+1	1.40000E+1	2.00004E+1	1.40002E+1
230	02/09/2022	16:47:44.310	0.00000E+0	0.00000E+0	8.00000E+1	0.00000E+0	0.00000E+0	0.00000E+0	2.00000E+1	1.40000E+1	1.99984E+1	1.39994E+1
231	02/09/2022	16:47:45.686	0.00000E+0	0.00000E+0	8.00000E+1	0.00000E+0	0.00000E+0	0.00000E+0	2.00000E+1	1.40000E+1	2.00010E+1	1.40012E+1
232	02/09/2022	16:47:47.203	0.00000E+0	0.00000E+0	8.00000E+1	0.00000E+0	0.00000E+0	0.00000E+0	2.00000E+1	1.40000E+1	2.00005E+1	1.40020E+1
233	02/09/2022	16:47:48.594	0.00000E+0	0.00000E+0	8.00000E+1	0.00000E+0	0.00000E+0	0.00000E+0	2.00000E+1	1.40000E+1	1.99997E+1	1.40001E+1
234	02/09/2022	16:47:49.982	0.00000E+0	0.00000E+0	8.00000E+1	0.00000E+0	0.00000E+0	0.00000E+0	2.00000E+1	1.40000E+1	2.00004E+1	1.39996E+1
235	02/09/2022	16:47:51.481	0.00000E+0	0.00000E+0	8.00000E+1	0.00000E+0	0.00000E+0	0.00000E+0	2.00000E+1	1.40000E+1	1.99993E+1	1.40008E+1
236	02/09/2022	16:47:52.872	0.00000E+0	0.00000E+0	8.00000E+1	0.00000E+0	0.00000E+0	0.00000E+0	2.00000E+1	1.40000E+1	1.99984E+1	1.40009E+1
237	02/09/2022	16:47:54.360	0.00000E+0	0.00000E+0	8.00000E+1	0.00000E+0	0.00000E+0	0.00000E+0	2.00000E+1	1.40000E+1	1.99996E+1	1.40025E+1
238	02/09/2022	16:47:55.804	0.00000E+0	0.00000E+0	8.00000E+1	0.00000E+0	0.00000E+0	0.00000E+0	2.00000E+1	1.40000E+1	2.00017E+1	1.39994E+1
239	02/09/2022	16:47:57.206	0.00000E+0	0.00000E+0	8.00000E+1	0.00000E+0	0.00000E+0	0.00000E+0	2.00000E+1	1.40000E+1	1.99993E+1	1.39997E+1
240	02/09/2022	16:47:58.741	0.00000E+0	0.00000E+0	8.00000E+1	0.00000E+0	0.00000E+0	0.00000E+0	2.00000E+1	1.40000E+1	2.00000E+1	1.40016E+1
241	02/09/2022	16:48:00.114	0.00000E+0	0.00000E+0	8.00000E+1	0.00000E+0	0.00000E+0	0.00000E+0	2.00000E+1	1.40000E+1	1.99988E+1	1.40012E+1
242	02/09/2022	16:48:01.568	0.00000E+0	0.00000E+0	8.00000E+1	0.00000E+0	0.00000E+0	0.00000E+0	2.00000E+1	1.40000E+1	1.99984E+1	1.39992E+1
243	02/09/2022	16:48:03.109	0.00000E+0	0.00000E+0	8.00000E+1	0.00000E+0	0.00000E+0	0.00000E+0	2.00000E+1	1.40000E+1	2.00003E+1	1.39995E+1
244	02/09/2022	16:48:04.513	0.00000E+0	0.00000E+0	8.00000E+1	0.00000E+0	0.00000E+0	0.00000E+0	2.00000E+1	1.40000E+1	2.00012E+1	1.40029E+1
245	02/09/2022	16:48:05.977	0.00000E+0	0.00000E+0	8.00000E+1	0.00000E+0	0.00000E+0	0.00000E+0	2.00000E+1	1.40000E+1	2.00007E+1	1.40003E+1
246	02/09/2022	16:48:07.377	0.00000E+0	0.00000E+0	8.00000E+1	0.00000E+0	0.00000E+0	0.00000E+0	2.00000E+1	1.40000E+1	1.99989E+1	1.39989E+1
247	02/09/2022	16:48:08.747	0.00000E+0	0.00000E+0	8.00000E+1	0.00000E+0	0.00000E+0	0.00000E+0	2.00000E+1	1.40000E+1	1.99987E+1	1.39998E+1
248	02/09/2022	16:48:10.293	0.00000E+0	0.00000E+0	8.00000E+1	0.00000E+0	0.00000E+0	0.00000E+0	2.00000E+1	1.40000E+1	2.00013E+1	1.39994E+1
249	02/09/2022	16:48:11.685	0.00000E+0	0.00000E+0	8.00000E+1	0.00000E+0	0.00000E+0	0.00000E+0	2.00000E+1	1.40000E+1	1.99999E+1	1.39980E+1
250	02/09/2022	16:48:13.092	0.00000E+0	0.00000E+0	8.00000E+1	0.00000E+0	0.00000E+0	0.00000E+0	2.00000E+1	1.40000E+1	2.00005E+1	1.40016E+1
251	02/09/2022	16:48:14.489	0.00000E+0	0.00000E+0	8.00000E+1	0.00000E+0	0.00000E+0	0.00000E+0	2.00000E+1	1.40000E+1	1.99997E+1	1.40025E+1
252	02/09/2022	16:48:15.894	0.00000E+0	0.00000E+0	8.00000E+1	0.00000E+0	0.00000E+0	0.00000E+0	2.00000E+1	1.40000E+1	1.99984E+1	1.39988E+1
253	02/09/2022	16:48:17.374	0.00000E+0	0.00000E+0	8.00000E+1	0.00000E+0	0.00000E+0	0.00000E+0	2.00000E+1	1.40000E+1	2.00003E+1	1.40003E+1
254	02/09/2022	16:48:18.751	0.00000E+0	0.00000E+0	8.00000E+1	0.00000E+0	0.00000E+0	0.00000E+0	2.00000E+1	1.40000E+1	2.00000E+1	1.39994E+1
255	02/09/2022	16:48:20.191	0.00000E+0	0.00000E+0	8.00000E+1	0.00000E+0	0.00000E+0	0.00000E+0	2.00000E+1	1.40000E+1	1.99986E+1	1.39993E+1
256	02/09/2022	16:48:21.766	0.00000E+0	0.00000E+0	8.00000E+1	0.00000E+0	0.00000E+0	0.00000E+0	2.00000E+1	1.40000E+1	2.00002E+1	1.39983E+1
257	02/09/2022	16:48:23.146	0.00000E+0	0.00000E+0	8.00000E+1	0.00000E+0	0.00000E+0	0.00000E+0	2.00000E+1	1.40000E+1	2.00006E+1	1.39988E+1
258	02/09/2022	16:48:24.632	0.00000E+0	0.00000E+0	8.00000E+1	0.00000E+0	0.00000E+0	0.00000E+0	2.00000E+1	1.40000E+1	1.99970E+1	1.40017E+1
259	02/09/2022	16:48:26.031	0.00000E+0	0.00000E+0	8.00000E+1	0.00000E+0	0.00000E+0	0.00000E+0	2.00000E+1	1.40000E+1	1.99993E+1	1.40009E+1
260	02/09/2022	16:48:27.407	0.00000E+0	0.00000E+0	8.00000E+1	0.00000E+0	0.00000E+0	0.00000E+0	2.00000E+1	1.40000E+1	1.99998E+1	1.39984E+1
261	02/09/2022	16:48:28.980	0.00000E+0	0.00000E+0	8.00000E+1	0.00000E+0	0.00000E+0	0.00000E+0	2.00000E+1	1.40000E+1	2.00009E+1	1.40003E+1
262	02/09/2022	16:48:30.382	0.00000E+0	0.00000E+0	8.00000E+1	0.00000E+0	0.00000E+0	0.00000E+0	2.00000E+1	1.40000E+1	2.00007E+1	1.40000E+1
263	02/09/2022	16:48:31.824	0.00000E+0	0.00000E+0	8.00000E+1	0.00000E+0	0.00000E+0	0.00000E+0	2.00000E+1	1.40000E+1	1.99984E+1	1.40014E+1
264	02/09/2022	16:48:33.337	0.00000E+0	0.00000E+0	8.00000E+1	0.00000E+0	0.00000E+0	0.00000E+0	2.00000E+1	1.40000E+1	1.99988E+1	1.40004E+1
265	02/09/2022	16:48:34.730	0.00000E+0	0.00000E+0	8.00000E+1	0.00000E+0	0.00000E+0	0.00000E+0	2.00000E+1	1.40000E+1	2.00021E+1	1.40013E+1
266	02/09/2022	16:48:36.201	0.00000E+0	0.00000E+0	8.00000E+1	0.00000E+0	0.00000E+0	0.00000E+0	2.00000E+1	1.40000E+1	1.99989E+1	1.40021E+1
267	02/09/2022	16:48:37.584	0.00000E+0	0.00000E+0	8.00000E+1	0.00000E+0	0.00000E+0	0.00000E+0	2.00000E+1	1.40000E+1	2.00005E+1	1.39999E+1
268	02/09/2022	16:48:38.987	0.00000E+0	0.00000E+0	8.00000E+1	0.00000E+0	0.00000E+0	0.00000E+0	2.00000E+1	1.40000E+1	1.99997E+1	1.39999E+1
269	02/09/2022	16:48:40.485	0.00000E+0	0.00000E+0	8.00000E+1	0.00000E+0	0.00000E+0	0.00000E+0	2.00000E+1	1.40000E+1	2.00006E+1	1.39976E+1
270	02/09/2022	16:48:41.867	0.00000E+0	0.00000E+0	8.00000E+1	0.00000E+0	0.00000E+0	0.00000E+0	2.00000E+1	1.40000E+1	1.99985E+1	1.40005E+1
271	02/09/2022	16:48:43.330	0.00000E+0	0.00000E+0	8.00000E+1	0.00000E+0	0.00000E+0	0.00000E+0	2.00000E+1	1.40000E+1	1.99994E+1	1.39990E+1
272	02/09/2022	16:48:44.738	0.00000E+0	0.00000E+0	8.00000E+1	0.00000E+0	0.00000E+0	0.00000E+0	2.00000E+1	1.40000E+1	1.99994E+1	1.40014E+1
273	02/09/2022	16:48:46.130	0.00000E+0	0.00000E+0	8.00000E+1	0.00000E+0	0.00000E+0	0.00000E+0	2.00000E+1	1.40000E+1	1.99953E+1	1.39995E+1
274	02/09/2022	16:48:47.637	0.00000E+0	0.00000E+0	8.00000E+1	0.00000E+0	0.00000E+0	0.00000E+0	2.00000E+1	1.40000E+1	2.00015E+1	1.40002E+1
275	02/09/2022	16:48:49.008	0.00000E+0	0.00000E+0	8.00000E+1	0.00000E+0	0.00000E+0	0.00000E+0	2.00000E+1	1.40000E+1	1.99991E+1	1.39993E+1
276	02/09/2022	16:48:50.473	0.00000E+0	0.00000E+0	8.00000E+1	0.00000E+0	0.00000E+0	0.00000E+0	2.00000E+1	1.40000E+1	2.00003E+1	1.39991E+1
277	02/09/2022	16:48:51.967	0.00000E+0	0.00000E+0	8.00000E+1	0.00000E+0	0.00000E+0	0.00000E+0	2.00000E+1	1.40000E+1	1.99978E+1	1.39996E+1
278	02/09/2022	16:48:53.360	0.00000E+0	0.00000E+0	8.00000E+1	0.00000E+0	0.00000E+0	0.00000E+0	2.00000E+1	1.40000E+1	2.00008E+1	1.39995E+1
279	02/09/2022	16:48:54.861	0.00000E+0	0.00000E+0	8.00000E+1	0.00000E+0	0.00000E+0	0.00000E+0	2.00000E+1	1.40000E+1	1.99998E+1	1.40016E+1
280	02/09/2022	16:48:56.256	0.00000E+0	0.00000E+0	8.00000E+1	0.00000E+0	0.00000E+0	0.00000E+0	2.00000E+1	1.40000E+1	2.00015E+1	1.39979E+1
281	02/09/2022	16:48:57.645	0.00000E+0	0.00000E+0	8.00000E+1	0.00000E+0	0.00000E+0	0.00000E+0	2.00000E+1	1.40000E+1	2.00009E+1	1.39999E+1
282	02/09/2022	16:48:59.223	0.00000E+0	0.00000E+0	8.00000E+1	0.00000E+0	0.00000E+0	0.00000E+0	2.00000E+1	1.40000E+1	1.99980E+1	1.40006E+1
283	02/09/2022	16:49:00.621	0.00000E+0	0.00000E+0	8.00000E+1	0.00000E+0	0.00000E+0	0.00000E+0	2.00000E+1	1.40000E+1	1.99993E+1	1.39994E+1
284	02/09/2022	16:49:02.057	0.00000E+0	0.00000E+0	8.00000E+1	0.00000E+0	0.00000E+0	0.00000E+0	2.00000E+1	1.40000E+1	1.99983E+1	1.40007E+1
285	02/09/2022	16:49:03.538	0.00000E+0	0.00000E+0	8.00000E+1	0.00000E+0	0.00000E+0	0.00000E+0	2.00000E+1	1.40000E+1	1.99995E+1	1.39982E+1
286	02/09/2022	16:49:04.951	0.00000E+0	0.00000E+0	8.00000E+1	0.00000E+0	0.00000E+0	0.00000E+0	2.00000E+1	1.40000E+1	2.00008E+1	1.39996E+1
287	02/09/2022	16:49:06.430	0.00000E+0	0.00000E+0	8.00000E+1	0.00000E+0	0.00000E+0	0.00000E+0	2.00000E+1	1.40000E+1	2.00021E+1	1.40005E+1
288	02/09/2022	16:49:07.820	0.00000E+0	0.00000E+0	8.00000E+1	0.00000E+0	0.00000E+0	0.00000E+0	2.00000E+1	1.40000E+1	1.99996E+1	1.39990E+1
289	02/09/2022	16:49:09.208	0.00000E+0	0.00000E+0	8.00000E+1	0.00000E+0	0.00000E+0	0.00000E+0	2.00000E+1	1.40000E+1	1.99993E+1	1.39997E+1
290	02/09/2022	16:49:10.706	0.00000E+0	0.00000E+0	8.00000E+1	0.00000E+0	0.00000E+0	0.00000E+0	2.00000E+1	1.40000E+1	1.99985E+1	1.39999E+1
291	02/09/2022	16:49:12.139	0.00000E+0	0.00000E+0	8.00000E+1	0.00000E+0	0.00000E+0	0.00000E+0	2.00000E+1	1.40000E+1	2.00006E+1	1.39998E+1
292	02/09/2022	16:49:13.586	0.00000E+0	0.00000E+0	8.00000E+1	0.00000E+0	0.00000E+0	0.00000E+0	2.00000E+1	1.40000E+1	2.00002E+1	1.39979E+1
293	02/09/2022	16:49:15.068	0.00000E+0	0.00000E+0	8.00000E+1	0.00000E+0	0.00000E+0	0.00000E+0	2.00000E+1	1.40000E+1	1.99998E+1	1.39980E+1
294	02/09/2022	16:49:16.461	0.00000E+0	0.00000E+0	8.00000E+1	0.00000E+0	0.00000E+0	0.00000E+0	2.00000E+1	1.40000E+1	2.00017E+1	1.40008E+1
295	02/09/2022	16:49:18.028	0.00000E+0	0.00000E+0	8.00000E+1	0.00000E+0	0.00000E+0	0.00000E+0	2.00000E+1	1.40000E+1	1.99993E+1	1.39988E+1
296	02/09/2022	16:49:19.418	0.00000E+0	0.00000E+0	8.00000E+1	0.00000E+0	0.00000E+0	0.00000E+0	2.00000E+1	1.40000E+1	2.00018E+1	1.39969E+1
297	02/09/2022	16:49:20.836	0.00000E+0	0.00000E+0	8.00000E+1	0.00000E+0	0.00000E+0	0.00000E+0	2.00000E+1	1.40000E+1	2.00000E+1	1.39988E+1
298	02/09/2022	16:49:22.370	0.00000E+0	0.00000E+0	8.00000E+1	0.00000E+0	0.00000E+0	0.00000E+0	2.00000E+1	1.40000E+1	2.00006E+1	1.40008E+1
299	02/09/2022	16:49:23.737	0.00000E+0	0.00000E+0	8.00000E+1	0.00000E+0	0.00000E+0	0.00000E+0	2.00000E+1	1.40000E+1	1.99997E+1	1.39982E+1
300	02/09/2022	16:49:25.278	0.00000E+0	0.00000E+0	8.00000E+1	0.00000E+0	0.00000E+0	0.00000E+0	2.00000E+1	1.40000E+1	1.99988E+1	1.40008E+1
301	02/09/2022	16:49:26.649	0.00000E+0	0.00000E+0	8.00000E+1	0.00000E+0	0.00000E+0	0.00000E+0	2.00000E+1	1.40000E+1	1.99994E+1	1.40017E+1
