#Iteration	Date	Time	Chirp	Phase	RamanAxis	RTPhase	NFringe	Ratio
1	02/09/2022	16:42:14.893	0.00000000E+0	-3.14159265E+1	5.00000000E+0	1.64596139E+0	-1.23500000E+3	4.48170553E-1
2	02/09/2022	16:42:16.401	0.00000000E+0	-3.12065382E+1	5.00000000E+0	2.29215079E+0	-1.23500000E+3	4.51773895E-1
3	02/09/2022	16:42:17.779	0.00000000E+0	-3.09971498E+1	5.00000000E+0	6.19919986E+0	-1.23500000E+3	4.52003394E-1
4	02/09/2022	16:42:19.353	0.00000000E+0	-3.07877614E+1	5.00000000E+0	4.43205399E+0	-1.23400000E+3	4.54716352E-1
5	02/09/2022	16:42:20.761	0.00000000E+0	-3.05779895E+1	5.00000000E+0	4.26791805E+0	-1.23300000E+3	4.60874046E-1
6	02/09/2022	16:42:22.136	0.00000000E+0	-3.03686012E+1	5.00000000E+0	7.77728259E-1	-1.23300000E+3	4.48676258E-1
7	02/09/2022	16:42:23.612	0.00000000E+0	-3.01592128E+1	5.00000000E+0	2.51687898E+0	-1.23500000E+3	4.56265166E-1
8	02/09/2022	16:42:24.994	0.00000000E+0	-2.99498244E+1	5.00000000E+0	5.59212696E+0	-1.23400000E+3	4.61258677E-1
9	02/09/2022	16:42:26.433	0.00000000E+0	-2.97404360E+1	5.00000000E+0	7.04864172E-1	-1.23400000E+3	4.59216878E-1
10	02/09/2022	16:42:27.958	0.00000000E+0	-2.95310476E+1	5.00000000E+0	5.60401531E+0	-1.23400000E+3	4.52727088E-1
11	02/09/2022	16:42:29.341	0.00000000E+0	-2.93216593E+1	5.00000000E+0	3.74291312E+0	-1.23300000E+3	4.53192605E-1
12	02/09/2022	16:42:30.839	0.00000000E+0	-2.91122709E+1	5.00000000E+0	5.21898614E+0	-1.23300000E+3	4.57216889E-1
13	02/09/2022	16:42:32.233	0.00000000E+0	-2.89024990E+1	5.00000000E+0	7.39762235E-1	-1.23500000E+3	4.49760052E-1
14	02/09/2022	16:42:33.626	0.00000000E+0	-2.86931106E+1	5.00000000E+0	5.26538905E+0	-1.23300000E+3	4.53045086E-1
15	02/09/2022	16:42:35.098	0.00000000E+0	-2.84837223E+1	5.00000000E+0	2.89538874E-1	-1.23400000E+3	4.47383430E-1
16	02/09/2022	16:42:36.481	0.00000000E+0	-2.82743339E+1	5.00000000E+0	4.32620932E+0	-1.23500000E+3	4.39844598E-1
17	02/09/2022	16:42:37.997	0.00000000E+0	-2.80649455E+1	5.00000000E+0	1.54932060E-1	-1.23300000E+3	4.34617384E-1
18	02/09/2022	16:42:39.400	0.00000000E+0	-2.78555571E+1	5.00000000E+0	3.07639847E+0	-1.23500000E+3	4.38456650E-1
19	02/09/2022	16:42:40.796	0.00000000E+0	-2.76461687E+1	5.00000000E+0	1.25172832E+0	-1.23300000E+3	4.31319852E-1
20	02/09/2022	16:42:42.269	0.00000000E+0	-2.74363969E+1	5.00000000E+0	3.36670433E+0	-1.23500000E+3	4.33987179E-1
21	02/09/2022	16:42:43.662	0.00000000E+0	-2.72270085E+1	5.00000000E+0	4.39140350E+0	-1.23300000E+3	4.30499925E-1
22	02/09/2022	16:42:45.116	0.00000000E+0	-2.70176201E+1	5.00000000E+0	3.50821406E+0	-1.23300000E+3	4.30755829E-1
23	02/09/2022	16:42:46.621	0.00000000E+0	-2.68082317E+1	5.00000000E+0	1.43005359E+0	-1.23300000E+3	4.31291449E-1
24	02/09/2022	16:42:48.002	0.00000000E+0	-2.65988434E+1	5.00000000E+0	3.92468985E+0	-1.23300000E+3	4.30392456E-1
25	02/09/2022	16:42:49.542	0.00000000E+0	-2.63894550E+1	5.00000000E+0	1.62908760E+0	-1.23300000E+3	4.36606018E-1
26	02/09/2022	16:42:50.927	0.00000000E+0	-2.61800666E+1	5.00000000E+0	2.36923333E+0	-1.23400000E+3	4.41786276E-1
27	02/09/2022	16:42:52.316	0.00000000E+0	-2.59706782E+1	5.00000000E+0	5.41111723E+0	-1.23500000E+3	4.36894563E-1
28	02/09/2022	16:42:53.912	0.00000000E+0	-2.57609064E+1	5.00000000E+0	4.62571907E+0	-1.23500000E+3	4.40820487E-1
29	02/09/2022	16:42:55.306	0.00000000E+0	-2.55515180E+1	5.00000000E+0	5.04756378E+0	-1.23400000E+3	4.44418760E-1
30	02/09/2022	16:42:56.734	0.00000000E+0	-2.53421296E+1	5.00000000E+0	3.18914606E+0	-1.23500000E+3	4.45499460E-1
31	02/09/2022	16:42:58.155	0.00000000E+0	-2.51327412E+1	5.00000000E+0	4.82053463E-1	-1.23400000E+3	4.53032467E-1
32	02/09/2022	16:42:59.573	0.00000000E+0	-2.49233529E+1	5.00000000E+0	4.63530645E+0	-1.23400000E+3	4.44962339E-1
33	02/09/2022	16:43:01.058	0.00000000E+0	-2.47139645E+1	5.00000000E+0	1.18461666E+0	-1.23400000E+3	4.51462613E-1
34	02/09/2022	16:43:02.471	0.00000000E+0	-2.45045761E+1	5.00000000E+0	2.13031582E+0	-1.23400000E+3	4.58569148E-1
35	02/09/2022	16:43:03.898	0.00000000E+0	-2.42948042E+1	5.00000000E+0	3.53352474E+0	-1.23500000E+3	4.52600100E-1
36	02/09/2022	16:43:05.405	0.00000000E+0	-2.40854158E+1	5.00000000E+0	5.03068999E+0	-1.23500000E+3	4.55574226E-1
37	02/09/2022	16:43:06.803	0.00000000E+0	-2.38760275E+1	5.00000000E+0	4.79944239E+0	-1.23400000E+3	4.61770617E-1
38	02/09/2022	16:43:08.247	0.00000000E+0	-2.36666391E+1	5.00000000E+0	1.15547103E+0	-1.23300000E+3	4.60118315E-1
39	02/09/2022	16:43:09.715	0.00000000E+0	-2.34572507E+1	5.00000000E+0	4.33579670E+0	-1.23300000E+3	4.55899671E-1
40	02/09/2022	16:43:11.155	0.00000000E+0	-2.32478623E+1	5.00000000E+0	4.06351511E+0	-1.23500000E+3	4.52730853E-1
41	02/09/2022	16:43:12.674	0.00000000E+0	-2.30384740E+1	5.00000000E+0	4.36724330E+0	-1.23400000E+3	4.61032970E-1
42	02/09/2022	16:43:14.046	0.00000000E+0	-2.28290856E+1	5.00000000E+0	3.00123341E+0	-1.23300000E+3	4.55833627E-1
43	02/09/2022	16:43:15.477	0.00000000E+0	-2.26193137E+1	5.00000000E+0	5.71714640E+0	-1.23500000E+3	4.51110965E-1
44	02/09/2022	16:43:16.981	0.00000000E+0	-2.24099253E+1	5.00000000E+0	3.03728196E-1	-1.23400000E+3	4.46072158E-1
45	02/09/2022	16:43:18.374	0.00000000E+0	-2.22005370E+1	5.00000000E+0	1.52477690E+0	-1.23300000E+3	4.48908066E-1
46	02/09/2022	16:43:19.841	0.00000000E+0	-2.19911486E+1	5.00000000E+0	2.16943233E+0	-1.23300000E+3	4.49006420E-1
47	02/09/2022	16:43:21.230	0.00000000E+0	-2.17817602E+1	5.00000000E+0	2.60201491E+0	-1.23500000E+3	4.40989644E-1
48	02/09/2022	16:43:22.612	0.00000000E+0	-2.15723718E+1	5.00000000E+0	9.81364209E-1	-1.23400000E+3	4.37236424E-1
49	02/09/2022	16:43:24.136	0.00000000E+0	-2.13629834E+1	5.00000000E+0	6.28548628E-1	-1.23300000E+3	4.41843083E-1
50	02/09/2022	16:43:25.522	0.00000000E+0	-2.11532116E+1	5.00000000E+0	1.72802936E+0	-1.23500000E+3	4.32390427E-1
51	02/09/2022	16:43:26.992	0.00000000E+0	-2.09438232E+1	5.00000000E+0	2.23846146E+0	-1.23400000E+3	4.39203203E-1
52	02/09/2022	16:43:28.381	0.00000000E+0	-2.07344348E+1	5.00000000E+0	6.14896199E+0	-1.23400000E+3	4.35794950E-1
53	02/09/2022	16:43:29.761	0.00000000E+0	-2.05250464E+1	5.00000000E+0	2.76883532E+0	-1.23500000E+3	4.35350660E-1
54	02/09/2022	16:43:31.228	0.00000000E+0	-2.03156581E+1	5.00000000E+0	2.43289353E+0	-1.23500000E+3	4.35428139E-1
55	02/09/2022	16:43:32.609	0.00000000E+0	-2.01062697E+1	5.00000000E+0	1.95505851E+0	-1.23300000E+3	4.30166770E-1
56	02/09/2022	16:43:34.099	0.00000000E+0	-1.98968813E+1	5.00000000E+0	2.97784020E+0	-1.23500000E+3	4.39043641E-1
57	02/09/2022	16:43:35.616	0.00000000E+0	-1.96874929E+1	5.00000000E+0	4.31240349E+0	-1.23400000E+3	4.41702107E-1
58	02/09/2022	16:43:36.984	0.00000000E+0	-1.94777211E+1	5.00000000E+0	2.77573824E+0	-1.23400000E+3	4.41961668E-1
59	02/09/2022	16:43:38.482	0.00000000E+0	-1.92683327E+1	5.00000000E+0	2.87237903E+0	-1.23500000E+3	4.42317656E-1
60	02/09/2022	16:43:39.861	0.00000000E+0	-1.90589443E+1	5.00000000E+0	5.76124834E+0	-1.23400000E+3	4.49764720E-1
61	02/09/2022	16:43:41.243	0.00000000E+0	-1.88495559E+1	5.00000000E+0	2.96901981E+0	-1.23300000E+3	4.49364150E-1
62	02/09/2022	16:43:42.780	0.00000000E+0	-1.86401675E+1	5.00000000E+0	4.46503458E+0	-1.23400000E+3	4.54877373E-1
63	02/09/2022	16:43:44.164	0.00000000E+0	-1.84307792E+1	5.00000000E+0	3.17150528E+0	-1.23300000E+3	4.55642031E-1
64	02/09/2022	16:43:45.633	0.00000000E+0	-1.82213908E+1	5.00000000E+0	2.26645661E-1	-1.23400000E+3	4.51857013E-1
65	02/09/2022	16:43:47.147	0.00000000E+0	-1.80116189E+1	5.00000000E+0	2.30097118E+0	-1.23500000E+3	4.55075647E-1
66	02/09/2022	16:43:48.515	0.00000000E+0	-1.78022305E+1	5.00000000E+0	1.92361191E+0	-1.23500000E+3	4.62844845E-1
67	02/09/2022	16:43:50.075	0.00000000E+0	-1.75928422E+1	5.00000000E+0	3.59795194E+0	-1.23500000E+3	4.54937264E-1
68	02/09/2022	16:43:51.462	0.00000000E+0	-1.73834538E+1	5.00000000E+0	5.82069010E+0	-1.23300000E+3	4.60952661E-1
69	02/09/2022	16:43:52.847	0.00000000E+0	-1.71740654E+1	5.00000000E+0	2.97247127E+0	-1.23500000E+3	4.62744040E-1
70	02/09/2022	16:43:54.322	0.00000000E+0	-1.69646770E+1	5.00000000E+0	3.85949566E+0	-1.23400000E+3	4.59183885E-1
71	02/09/2022	16:43:55.700	0.00000000E+0	-1.67552887E+1	5.00000000E+0	5.54457356E+0	-1.23300000E+3	4.58624514E-1
72	02/09/2022	16:43:57.242	0.00000000E+0	-1.65459003E+1	5.00000000E+0	4.83395696E+0	-1.23400000E+3	4.55086915E-1
73	02/09/2022	16:43:58.643	0.00000000E+0	-1.63361284E+1	5.00000000E+0	3.07218002E+0	-1.23500000E+3	4.47396195E-1
74	02/09/2022	16:44:00.030	0.00000000E+0	-1.61267400E+1	5.00000000E+0	3.68807331E+0	-1.23300000E+3	4.51419689E-1
75	02/09/2022	16:44:01.556	0.00000000E+0	-1.59173516E+1	5.00000000E+0	5.71829688E+0	-1.23500000E+3	4.44524480E-1
76	02/09/2022	16:44:02.938	0.00000000E+0	-1.57079633E+1	5.00000000E+0	4.10071414E+0	-1.23500000E+3	4.43049011E-1
77	02/09/2022	16:44:04.345	0.00000000E+0	-1.54985749E+1	5.00000000E+0	3.38127715E+0	-1.23500000E+3	4.41699536E-1
78	02/09/2022	16:44:05.828	0.00000000E+0	-1.52891865E+1	5.00000000E+0	3.66161214E+0	-1.23300000E+3	4.42207580E-1
79	02/09/2022	16:44:07.214	0.00000000E+0	-1.50797981E+1	5.00000000E+0	1.13667976E+0	-1.23400000E+3	4.40992649E-1
80	02/09/2022	16:44:08.752	0.00000000E+0	-1.48700263E+1	5.00000000E+0	3.54771407E+0	-1.23300000E+3	4.31835437E-1
81	02/09/2022	16:44:10.127	0.00000000E+0	-1.46606379E+1	5.00000000E+0	6.25097171E-1	-1.23300000E+3	4.34265745E-1
82	02/09/2022	16:44:11.495	0.00000000E+0	-1.44512495E+1	5.00000000E+0	3.47408299E+0	-1.23300000E+3	4.36172677E-1
83	02/09/2022	16:44:13.045	0.00000000E+0	-1.42418611E+1	5.00000000E+0	1.62947109E+0	-1.23300000E+3	4.27587647E-1
84	02/09/2022	16:44:14.429	0.00000000E+0	-1.40324728E+1	5.00000000E+0	6.03429692E+0	-1.23600000E+3	4.33453410E-1
85	02/09/2022	16:44:15.895	0.00000000E+0	-1.38230844E+1	5.00000000E+0	3.86831605E+0	-1.23500000E+3	4.38736468E-1
86	02/09/2022	16:44:17.261	0.00000000E+0	-1.36136960E+1	5.00000000E+0	2.75196153E+0	-1.23500000E+3	4.38819431E-1
87	02/09/2022	16:44:18.641	0.00000000E+0	-1.34043076E+1	5.00000000E+0	5.44064636E+0	-1.23400000E+3	4.39470879E-1
88	02/09/2022	16:44:20.132	0.00000000E+0	-1.31945357E+1	5.00000000E+0	4.52064138E+0	-1.23500000E+3	4.40302359E-1
89	02/09/2022	16:44:21.514	0.00000000E+0	-1.29851474E+1	5.00000000E+0	4.51987439E+0	-1.23400000E+3	4.46320218E-1
90	02/09/2022	16:44:22.905	0.00000000E+0	-1.27757590E+1	5.00000000E+0	3.87100052E+0	-1.23400000E+3	4.46491122E-1
91	02/09/2022	16:44:24.477	0.00000000E+0	-1.25663706E+1	5.00000000E+0	1.69581576E+0	-1.23400000E+3	4.47891805E-1
92	02/09/2022	16:44:25.866	0.00000000E+0	-1.23569822E+1	5.00000000E+0	2.47354402E+0	-1.23300000E+3	4.48163344E-1
93	02/09/2022	16:44:27.377	0.00000000E+0	-1.21475939E+1	5.00000000E+0	3.44800532E+0	-1.23400000E+3	4.47097750E-1
94	02/09/2022	16:44:28.782	0.00000000E+0	-1.19382055E+1	5.00000000E+0	5.41035024E+0	-1.23300000E+3	4.55538822E-1
95	02/09/2022	16:44:30.159	0.00000000E+0	-1.17284336E+1	5.00000000E+0	4.44355885E+0	-1.23400000E+3	4.54933920E-1
96	02/09/2022	16:44:31.659	0.00000000E+0	-1.15190452E+1	5.00000000E+0	2.65263628E+0	-1.23300000E+3	4.60873555E-1
97	02/09/2022	16:44:33.052	0.00000000E+0	-1.13096569E+1	5.00000000E+0	5.88741826E+0	-1.23500000E+3	4.60483669E-1
98	02/09/2022	16:44:34.444	0.00000000E+0	-1.11002685E+1	5.00000000E+0	1.85995171E-1	-1.23300000E+3	4.57800297E-1
99	02/09/2022	16:44:35.937	0.00000000E+0	-1.08908801E+1	5.00000000E+0	3.23516548E+0	-1.23300000E+3	4.60930583E-1
100	02/09/2022	16:44:37.320	0.00000000E+0	-1.06814917E+1	5.00000000E+0	5.02033562E+0	-1.23400000E+3	4.57564884E-1
101	02/09/2022	16:44:38.862	0.00000000E+0	-1.04721033E+1	5.00000000E+0	2.99011205E+0	-1.23300000E+3	4.53751904E-1
102	02/09/2022	16:44:40.227	0.00000000E+0	-1.02627150E+1	5.00000000E+0	3.36900531E+0	-1.23300000E+3	4.55008917E-1
103	02/09/2022	16:44:41.604	0.00000000E+0	-1.00529431E+1	5.00000000E+0	1.43043708E+0	-1.23300000E+3	4.54167117E-1
104	02/09/2022	16:44:43.092	0.00000000E+0	-9.84355472E+0	5.00000000E+0	6.51174844E-1	-1.23400000E+3	4.46866574E-1
105	02/09/2022	16:44:44.469	0.00000000E+0	-9.63416634E+0	5.00000000E+0	1.93281579E+0	-1.23300000E+3	4.45664872E-1
106	02/09/2022	16:44:45.899	0.00000000E+0	-9.42477796E+0	5.00000000E+0	9.06582646E-1	-1.23400000E+3	4.38288557E-1
107	02/09/2022	16:44:47.313	0.00000000E+0	-9.21538958E+0	5.00000000E+0	2.95176253E+0	-1.23400000E+3	4.40831811E-1
108	02/09/2022	16:44:48.713	0.00000000E+0	-9.00600121E+0	5.00000000E+0	1.53321380E+0	-1.23300000E+3	4.36369985E-1
109	02/09/2022	16:44:50.180	0.00000000E+0	-8.79661283E+0	5.00000000E+0	3.42729658E+0	-1.23300000E+3	4.43238093E-1
110	02/09/2022	16:44:51.556	0.00000000E+0	-8.58684096E+0	5.00000000E+0	3.92315587E+0	-1.23400000E+3	4.34114522E-1
111	02/09/2022	16:44:52.949	0.00000000E+0	-8.37745258E+0	5.00000000E+0	5.57640366E+0	-1.23400000E+3	4.34710454E-1
112	02/09/2022	16:44:54.474	0.00000000E+0	-8.16806420E+0	5.00000000E+0	4.75764141E+0	-1.23400000E+3	4.28500753E-1
113	02/09/2022	16:44:55.862	0.00000000E+0	-7.95867582E+0	5.00000000E+0	5.28648129E+0	-1.23500000E+3	4.32882512E-1
114	02/09/2022	16:44:57.304	0.00000000E+0	-7.74928745E+0	5.00000000E+0	3.44532085E+0	-1.23400000E+3	4.25449041E-1
115	02/09/2022	16:44:58.684	0.00000000E+0	-7.53989907E+0	5.00000000E+0	7.76577774E-1	-1.23500000E+3	4.33365936E-1
116	02/09/2022	16:45:00.126	0.00000000E+0	-7.33051069E+0	5.00000000E+0	4.28670931E+0	-1.23300000E+3	4.39688195E-1
117	02/09/2022	16:45:01.641	0.00000000E+0	-7.12112231E+0	5.00000000E+0	2.14834009E+0	-1.23400000E+3	4.41971271E-1
118	02/09/2022	16:45:03.015	0.00000000E+0	-6.91135044E+0	5.00000000E+0	4.58698605E+0	-1.23500000E+3	4.39711082E-1
119	02/09/2022	16:45:04.469	0.00000000E+0	-6.70196206E+0	5.00000000E+0	2.97975768E+0	-1.23400000E+3	4.41747438E-1
120	02/09/2022	16:45:05.955	0.00000000E+0	-6.49257368E+0	5.00000000E+0	1.02661664E+0	-1.23300000E+3	4.46380378E-1
121	02/09/2022	16:45:07.333	0.00000000E+0	-6.28318531E+0	5.00000000E+0	5.22588905E+0	-1.23300000E+3	4.46323282E-1
122	02/09/2022	16:45:08.813	0.00000000E+0	-6.07379693E+0	5.00000000E+0	5.54150560E-1	-1.23500000E+3	4.50953018E-1
123	02/09/2022	16:45:10.207	0.00000000E+0	-5.86440855E+0	5.00000000E+0	4.18700056E+0	-1.23300000E+3	4.58986669E-1
124	02/09/2022	16:45:11.583	0.00000000E+0	-5.65502017E+0	5.00000000E+0	6.17964160E+0	-1.23400000E+3	4.56295385E-1
125	02/09/2022	16:45:13.090	0.00000000E+0	-5.44524830E+0	5.00000000E+0	5.61398619E+0	-1.23400000E+3	4.51889670E-1
126	02/09/2022	16:45:14.485	0.00000000E+0	-5.23585992E+0	5.00000000E+0	4.25602970E+0	-1.23400000E+3	4.54492797E-1
127	02/09/2022	16:45:15.979	0.00000000E+0	-5.02647155E+0	5.00000000E+0	1.69504877E+0	-1.23500000E+3	4.58851327E-1
128	02/09/2022	16:45:17.441	0.00000000E+0	-4.81708317E+0	5.00000000E+0	2.74697610E+0	-1.23500000E+3	4.54424901E-1
129	02/09/2022	16:45:18.812	0.00000000E+0	-4.60769479E+0	5.00000000E+0	4.89109774E+0	-1.23500000E+3	4.62292342E-1
130	02/09/2022	16:45:20.280	0.00000000E+0	-4.39830641E+0	5.00000000E+0	5.73325319E-1	-1.23300000E+3	4.60642536E-1
131	02/09/2022	16:45:21.671	0.00000000E+0	-4.18891804E+0	5.00000000E+0	4.36877728E+0	-1.23500000E+3	4.52757354E-1
132	02/09/2022	16:45:23.100	0.00000000E+0	-3.97952966E+0	5.00000000E+0	2.95022855E+0	-1.23400000E+3	4.50449025E-1
133	02/09/2022	16:45:24.581	0.00000000E+0	-3.76975779E+0	5.00000000E+0	3.86333061E+0	-1.23300000E+3	4.53018563E-1
134	02/09/2022	16:45:25.955	0.00000000E+0	-3.56036941E+0	5.00000000E+0	5.48781627E+0	-1.23400000E+3	4.45163024E-1
135	02/09/2022	16:45:27.459	0.00000000E+0	-3.35098103E+0	5.00000000E+0	4.60002489E+0	-1.23400000E+3	4.50178956E-1
136	02/09/2022	16:45:28.846	0.00000000E+0	-3.14159265E+0	5.00000000E+0	2.94984506E+0	-1.23500000E+3	4.43376408E-1
137	02/09/2022	16:45:30.225	0.00000000E+0	-2.93220428E+0	5.00000000E+0	4.67940839E+0	-1.23400000E+3	4.43276303E-1
138	02/09/2022	16:45:31.750	0.00000000E+0	-2.72281590E+0	5.00000000E+0	5.48398132E+0	-1.23400000E+3	4.34182904E-1
139	02/09/2022	16:45:33.142	0.00000000E+0	-2.51342752E+0	5.00000000E+0	3.10209265E+0	-1.23400000E+3	4.37016668E-1
140	02/09/2022	16:45:34.619	0.00000000E+0	-2.30365565E+0	5.00000000E+0	4.00445685E+0	-1.23300000E+3	4.31186867E-1
141	02/09/2022	16:45:36.040	0.00000000E+0	-2.09426727E+0	5.00000000E+0	5.55876288E+0	-1.23400000E+3	4.31439923E-1
142	02/09/2022	16:45:37.443	0.00000000E+0	-1.88487889E+0	5.00000000E+0	5.60900075E+0	-1.23300000E+3	4.36744969E-1
143	02/09/2022	16:45:38.999	0.00000000E+0	-1.67549052E+0	5.00000000E+0	3.21062179E+0	-1.23300000E+3	4.34785684E-1
144	02/09/2022	16:45:40.366	0.00000000E+0	-1.46610214E+0	5.00000000E+0	6.02816100E+0	-1.23300000E+3	4.35869536E-1
145	02/09/2022	16:45:41.813	0.00000000E+0	-1.25671376E+0	5.00000000E+0	5.78234058E+0	-1.23400000E+3	4.33900376E-1
146	02/09/2022	16:45:43.329	0.00000000E+0	-1.04732538E+0	5.00000000E+0	5.51504443E+0	-1.23300000E+3	4.28970631E-1
147	02/09/2022	16:45:44.750	0.00000000E+0	-8.37937005E-1	5.00000000E+0	2.60776734E-2	-1.23300000E+3	4.40963342E-1
148	02/09/2022	16:45:46.291	0.00000000E+0	-6.28165133E-1	5.00000000E+0	4.18124813E+0	-1.23300000E+3	4.46402926E-1
149	02/09/2022	16:45:47.699	0.00000000E+0	-4.18776755E-1	5.00000000E+0	3.36325288E-1	-1.23300000E+3	4.36888692E-1
150	02/09/2022	16:45:49.058	0.00000000E+0	-2.09388378E-1	5.00000000E+0	3.39239851E+0	-1.23500000E+3	4.45830394E-1
151	02/09/2022	16:45:50.622	0.00000000E+0	0.00000000E+0	5.00000000E+0	2.23961195E+0	-1.23300000E+3	4.47372487E-1
152	02/09/2022	16:45:52.011	0.00000000E+0	2.09388378E-1	5.00000000E+0	5.48014636E-1	-1.23400000E+3	4.49958496E-1
153	02/09/2022	16:45:53.466	0.00000000E+0	4.18776755E-1	5.00000000E+0	7.30174855E-1	-1.23300000E+3	4.52337574E-1
154	02/09/2022	16:45:54.975	0.00000000E+0	6.28165133E-1	5.00000000E+0	2.38955857E+0	-1.23400000E+3	4.55772013E-1
155	02/09/2022	16:45:56.365	0.00000000E+0	8.37937005E-1	5.00000000E+0	2.84860232E+0	-1.23400000E+3	4.60389333E-1
156	02/09/2022	16:45:57.951	0.00000000E+0	1.04732538E+0	5.00000000E+0	2.36769935E+0	-1.23500000E+3	4.62636927E-1
157	02/09/2022	16:45:59.347	0.00000000E+0	1.25671376E+0	5.00000000E+0	2.61927220E+0	-1.23300000E+3	4.57498273E-1
158	02/09/2022	16:46:00.755	0.00000000E+0	1.46610214E+0	5.00000000E+0	5.55416094E+0	-1.23300000E+3	4.62383616E-1
159	02/09/2022	16:46:02.215	0.00000000E+0	1.67549052E+0	5.00000000E+0	6.09488917E+0	-1.23300000E+3	4.56277345E-1
160	02/09/2022	16:46:03.613	0.00000000E+0	1.88487889E+0	5.00000000E+0	4.64067538E+0	-1.23500000E+3	4.53503901E-1
161	02/09/2022	16:46:05.110	0.00000000E+0	2.09426727E+0	5.00000000E+0	2.06665562E+0	-1.23500000E+3	4.51889491E-1
162	02/09/2022	16:46:06.520	0.00000000E+0	2.30365565E+0	5.00000000E+0	4.75764141E+0	-1.23500000E+3	4.49067757E-1
163	02/09/2022	16:46:07.891	0.00000000E+0	2.51342752E+0	5.00000000E+0	2.21775272E+0	-1.23500000E+3	4.54798701E-1
164	02/09/2022	16:46:09.433	0.00000000E+0	2.72281590E+0	5.00000000E+0	6.03314644E+0	-1.23400000E+3	4.50084007E-1
165	02/09/2022	16:46:10.792	0.00000000E+0	2.93220428E+0	5.00000000E+0	5.88971924E+0	-1.23300000E+3	4.51872957E-1
166	02/09/2022	16:46:12.262	0.00000000E+0	3.14159265E+0	5.00000000E+0	5.23394245E+0	-1.23400000E+3	4.45199500E-1
167	02/09/2022	16:46:13.783	0.00000000E+0	3.35098103E+0	5.00000000E+0	2.66337414E+0	-1.23500000E+3	4.42519819E-1
168	02/09/2022	16:46:15.161	0.00000000E+0	3.56036941E+0	5.00000000E+0	4.17741318E+0	-1.23400000E+3	4.38415707E-1
169	02/09/2022	16:46:16.650	0.00000000E+0	3.76975779E+0	5.00000000E+0	5.96181633E+0	-1.23500000E+3	4.36553128E-1
170	02/09/2022	16:46:18.061	0.00000000E+0	3.97952966E+0	5.00000000E+0	5.87706389E+0	-1.23500000E+3	4.38599008E-1
171	02/09/2022	16:46:19.439	0.00000000E+0	4.18891804E+0	5.00000000E+0	8.61330212E-1	-1.23500000E+3	4.42306983E-1
172	02/09/2022	16:46:20.998	0.00000000E+0	4.39830641E+0	5.00000000E+0	5.68493280E+0	-1.23500000E+3	4.35336656E-1
173	02/09/2022	16:46:22.368	0.00000000E+0	4.60769479E+0	5.00000000E+0	2.35619449E+0	-1.23400000E+3	4.39228692E-1
174	02/09/2022	16:46:23.788	0.00000000E+0	4.81708317E+0	5.00000000E+0	3.11934993E+0	-1.23300000E+3	4.38630288E-1
175	02/09/2022	16:46:25.304	0.00000000E+0	5.02647155E+0	5.00000000E+0	6.13745713E+0	-1.23300000E+3	4.38506568E-1
176	02/09/2022	16:46:26.686	0.00000000E+0	5.23585992E+0	5.00000000E+0	5.55185997E+0	-1.23500000E+3	4.36251302E-1
177	02/09/2022	16:46:28.234	0.00000000E+0	5.44524830E+0	5.00000000E+0	1.86263617E+0	-1.23400000E+3	4.44427726E-1
178	02/09/2022	16:46:29.623	0.00000000E+0	5.65502017E+0	5.00000000E+0	2.32359740E+0	-1.23400000E+3	4.44054833E-1
179	02/09/2022	16:46:30.999	0.00000000E+0	5.86440855E+0	5.00000000E+0	3.74943254E+0	-1.23300000E+3	4.40912059E-1
180	02/09/2022	16:46:32.443	0.00000000E+0	6.07379693E+0	5.00000000E+0	3.05108779E+0	-1.23500000E+3	4.49246577E-1
181	02/09/2022	16:46:33.835	0.00000000E+0	6.28318531E+0	5.00000000E+0	4.13944716E+0	-1.23300000E+3	4.52604968E-1
182	02/09/2022	16:46:35.224	0.00000000E+0	6.49257368E+0	5.00000000E+0	3.39546647E+0	-1.23500000E+3	4.50100968E-1
183	02/09/2022	16:46:36.699	0.00000000E+0	6.70196206E+0	5.00000000E+0	5.86709302E+0	-1.23400000E+3	4.50468300E-1
184	02/09/2022	16:46:38.093	0.00000000E+0	6.91135044E+0	5.00000000E+0	5.47554442E+0	-1.23500000E+3	4.52607752E-1
185	02/09/2022	16:46:39.635	0.00000000E+0	7.12112231E+0	5.00000000E+0	5.61858813E+0	-1.23400000E+3	4.59495444E-1
186	02/09/2022	16:46:41.036	0.00000000E+0	7.33051069E+0	5.00000000E+0	2.06435465E+0	-1.23300000E+3	4.62428889E-1
187	02/09/2022	16:46:42.457	0.00000000E+0	7.53989907E+0	5.00000000E+0	3.68193739E+0	-1.23300000E+3	4.58099946E-1
188	02/09/2022	16:46:43.964	0.00000000E+0	7.74928745E+0	5.00000000E+0	5.21169973E+0	-1.23300000E+3	4.62881922E-1
189	02/09/2022	16:46:45.345	0.00000000E+0	7.95867582E+0	5.00000000E+0	5.35474344E+0	-1.23500000E+3	4.59312210E-1
190	02/09/2022	16:46:46.793	0.00000000E+0	8.16806420E+0	5.00000000E+0	6.16967073E+0	-1.23300000E+3	4.60685530E-1
191	02/09/2022	16:46:48.167	0.00000000E+0	8.37745258E+0	5.00000000E+0	1.07877199E+0	-1.23300000E+3	4.57034277E-1
192	02/09/2022	16:46:49.558	0.00000000E+0	8.58684096E+0	5.00000000E+0	6.58844748E-1	-1.23400000E+3	4.51988355E-1
193	02/09/2022	16:46:51.078	0.00000000E+0	8.79661283E+0	5.00000000E+0	5.41495218E+0	-1.23300000E+3	4.49416239E-1
194	02/09/2022	16:46:52.464	0.00000000E+0	9.00600121E+0	5.00000000E+0	3.43496648E+0	-1.23500000E+3	4.49252336E-1
195	02/09/2022	16:46:53.910	0.00000000E+0	9.21538958E+0	5.00000000E+0	2.67871395E+0	-1.23300000E+3	4.46905509E-1
196	02/09/2022	16:46:55.281	0.00000000E+0	9.42477796E+0	5.00000000E+0	2.44516538E+0	-1.23300000E+3	4.47155289E-1
197	02/09/2022	16:46:56.711	0.00000000E+0	9.63416634E+0	5.00000000E+0	6.27052997E+0	-1.23600000E+3	4.39378422E-1
198	02/09/2022	16:46:58.225	0.00000000E+0	9.84355472E+0	5.00000000E+0	4.26791805E+0	-1.23500000E+3	4.37869387E-1
199	02/09/2022	16:46:59.606	0.00000000E+0	1.00529431E+1	5.00000000E+0	3.46334512E+0	-1.23300000E+3	4.39656503E-1
200	02/09/2022	16:47:00.983	0.00000000E+0	1.02627150E+1	5.00000000E+0	1.62717012E+0	-1.23300000E+3	4.32451024E-1
201	02/09/2022	16:47:02.565	0.00000000E+0	1.04721033E+1	5.00000000E+0	5.91656390E+0	-1.23400000E+3	4.35865741E-1
202	02/09/2022	16:47:03.968	0.00000000E+0	1.06814917E+1	5.00000000E+0	1.39093708E+0	-1.23500000E+3	4.32857077E-1
203	02/09/2022	16:47:05.455	0.00000000E+0	1.08908801E+1	5.00000000E+0	4.65064625E+0	-1.23300000E+3	4.39244923E-1
204	02/09/2022	16:47:06.835	0.00000000E+0	1.11002685E+1	5.00000000E+0	4.69704917E+0	-1.23500000E+3	4.37526650E-1
205	02/09/2022	16:47:08.222	0.00000000E+0	1.13096569E+1	5.00000000E+0	3.76822381E+0	-1.23400000E+3	4.31689967E-1
206	02/09/2022	16:47:09.799	0.00000000E+0	1.15190452E+1	5.00000000E+0	4.12679181E+0	-1.23500000E+3	4.36559799E-1
207	02/09/2022	16:47:11.186	0.00000000E+0	1.17284336E+1	5.00000000E+0	5.36663179E+0	-1.23400000E+3	4.45178705E-1
208	02/09/2022	16:47:12.634	0.00000000E+0	1.19382055E+1	5.00000000E+0	2.64918482E+0	-1.23500000E+3	4.41952322E-1
209	02/09/2022	16:47:14.129	0.00000000E+0	1.21475939E+1	5.00000000E+0	2.93565573E+0	-1.23400000E+3	4.46737502E-1
210	02/09/2022	16:47:15.518	0.00000000E+0	1.23569822E+1	5.00000000E+0	4.81286472E+0	-1.23500000E+3	4.51778581E-1
211	02/09/2022	16:47:16.971	0.00000000E+0	1.25663706E+1	5.00000000E+0	2.46088868E+0	-1.23500000E+3	4.50242776E-1
212	02/09/2022	16:47:18.371	0.00000000E+0	1.27757590E+1	5.00000000E+0	4.49494720E+0	-1.23400000E+3	4.57825216E-1
213	02/09/2022	16:47:19.769	0.00000000E+0	1.29851474E+1	5.00000000E+0	8.74752544E-1	-1.23300000E+3	4.56313998E-1
214	02/09/2022	16:47:21.277	0.00000000E+0	1.31945357E+1	5.00000000E+0	2.60469938E+0	-1.23300000E+3	4.60727978E-1
215	02/09/2022	16:47:22.709	0.00000000E+0	1.34043076E+1	5.00000000E+0	2.88733534E+0	-1.23400000E+3	4.57988028E-1
216	02/09/2022	16:47:24.161	0.00000000E+0	1.36136960E+1	5.00000000E+0	3.29882568E+0	-1.23300000E+3	4.57947334E-1
217	02/09/2022	16:47:25.550	0.00000000E+0	1.38230844E+1	5.00000000E+0	3.48635484E+0	-1.23500000E+3	4.56295525E-1
218	02/09/2022	16:47:26.926	0.00000000E+0	1.40324728E+1	5.00000000E+0	2.42138867E+0	-1.23400000E+3	4.63330740E-1
219	02/09/2022	16:47:28.445	0.00000000E+0	1.42418611E+1	5.00000000E+0	3.79967041E+0	-1.23300000E+3	4.56912458E-1
220	02/09/2022	16:47:29.840	0.00000000E+0	1.44512495E+1	5.00000000E+0	1.90980608E-1	-1.23400000E+3	4.54927640E-1
221	02/09/2022	16:47:31.235	0.00000000E+0	1.46606379E+1	5.00000000E+0	1.40052446E+0	-1.23300000E+3	4.51097325E-1
222	02/09/2022	16:47:32.734	0.00000000E+0	1.48700263E+1	5.00000000E+0	2.98435962E+0	-1.23300000E+3	4.56793149E-1
223	02/09/2022	16:47:34.129	0.00000000E+0	1.50797981E+1	5.00000000E+0	5.05600068E+0	-1.23500000E+3	4.51690803E-1
224	02/09/2022	16:47:35.693	0.00000000E+0	1.52891865E+1	5.00000000E+0	2.32513138E+0	-1.23300000E+3	4.41092436E-1
225	02/09/2022	16:47:37.075	0.00000000E+0	1.54985749E+1	5.00000000E+0	4.77911714E+0	-1.23400000E+3	4.51395596E-1
226	02/09/2022	16:47:38.449	0.00000000E+0	1.57079633E+1	5.00000000E+0	3.51319950E+0	-1.23400000E+3	4.44403740E-1
227	02/09/2022	16:47:39.992	0.00000000E+0	1.59173516E+1	5.00000000E+0	2.52684985E+0	-1.23300000E+3	4.38454616E-1
228	02/09/2022	16:47:41.366	0.00000000E+0	1.61267400E+1	5.00000000E+0	5.68876775E+0	-1.23400000E+3	4.41367279E-1
229	02/09/2022	16:47:42.805	0.00000000E+0	1.63361284E+1	5.00000000E+0	5.61552017E+0	-1.23400000E+3	4.41910702E-1
230	02/09/2022	16:47:44.310	0.00000000E+0	1.65459003E+1	5.00000000E+0	6.12250082E+0	-1.23400000E+3	4.36863976E-1
231	02/09/2022	16:47:45.686	0.00000000E+0	1.67552887E+1	5.00000000E+0	5.79499592E+0	-1.23300000E+3	4.37640180E-1
232	02/09/2022	16:47:47.203	0.00000000E+0	1.69646770E+1	5.00000000E+0	4.31815592E-1	-1.23300000E+3	4.35619014E-1
233	02/09/2022	16:47:48.594	0.00000000E+0	1.71740654E+1	5.00000000E+0	5.69682115E+0	-1.23500000E+3	4.34726219E-1
234	02/09/2022	16:47:49.982	0.00000000E+0	1.73834538E+1	5.00000000E+0	4.17319473E+0	-1.23300000E+3	4.36822318E-1
235	02/09/2022	16:47:51.481	0.00000000E+0	1.75928422E+1	5.00000000E+0	6.18807850E+0	-1.23300000E+3	4.34212975E-1
236	02/09/2022	16:47:52.872	0.00000000E+0	1.78022305E+1	5.00000000E+0	2.81830620E+0	-1.23500000E+3	4.39620968E-1
237	02/09/2022	16:47:54.360	0.00000000E+0	1.80116189E+1	5.00000000E+0	4.97661717E+0	-1.23300000E+3	4.39277999E-1
238	02/09/2022	16:47:55.804	0.00000000E+0	1.82213908E+1	5.00000000E+0	1.92783036E+0	-1.23400000E+3	4.41121735E-1
239	02/09/2022	16:47:57.206	0.00000000E+0	1.84307792E+1	5.00000000E+0	5.23509293E+0	-1.23500000E+3	4.46015753E-1
240	02/09/2022	16:47:58.741	0.00000000E+0	1.86401675E+1	5.00000000E+0	1.75947596E+0	-1.23300000E+3	4.49229878E-1
241	02/09/2022	16:48:00.114	0.00000000E+0	1.88495559E+1	5.00000000E+0	1.89063132E-1	-1.23300000E+3	4.48840986E-1
242	02/09/2022	16:48:01.568	0.00000000E+0	1.90589443E+1	5.00000000E+0	5.05178223E+0	-1.23300000E+3	4.48541646E-1
243	02/09/2022	16:48:03.109	0.00000000E+0	1.92683327E+1	5.00000000E+0	5.64389881E+0	-1.23400000E+3	4.58324291E-1
244	02/09/2022	16:48:04.513	0.00000000E+0	1.94777211E+1	5.00000000E+0	3.21982567E+0	-1.23500000E+3	4.55575361E-1
245	02/09/2022	16:48:05.977	0.00000000E+0	1.96874929E+1	5.00000000E+0	1.23293706E+0	-1.23400000E+3	4.58476708E-1
246	02/09/2022	16:48:07.377	0.00000000E+0	1.98968813E+1	5.00000000E+0	4.37798117E+0	-1.23500000E+3	4.62425487E-1
247	02/09/2022	16:48:08.747	0.00000000E+0	2.01062697E+1	5.00000000E+0	3.65394224E+0	-1.23500000E+3	4.56028540E-1
248	02/09/2022	16:48:10.293	0.00000000E+0	2.03156581E+1	5.00000000E+0	2.00491289E+0	-1.23400000E+3	4.55388002E-1
249	02/09/2022	16:48:11.685	0.00000000E+0	2.05250464E+1	5.00000000E+0	4.59350547E+0	-1.23400000E+3	4.58404106E-1
250	02/09/2022	16:48:13.092	0.00000000E+0	2.07344348E+1	5.00000000E+0	3.00123341E+0	-1.23500000E+3	4.56538029E-1
251	02/09/2022	16:48:14.489	0.00000000E+0	2.09438232E+1	5.00000000E+0	4.27367048E+0	-1.23400000E+3	4.57878108E-1
252	02/09/2022	16:48:15.894	0.00000000E+0	2.11532116E+1	5.00000000E+0	1.56734487E+0	-1.23300000E+3	4.50885627E-1
253	02/09/2022	16:48:17.374	0.00000000E+0	2.13629834E+1	5.00000000E+0	2.65301977E+0	-1.23500000E+3	4.49384660E-1
254	02/09/2022	16:48:18.751	0.00000000E+0	2.15723718E+1	5.00000000E+0	7.14835047E-1	-1.23400000E+3	4.54633989E-1
255	02/09/2022	16:48:20.191	0.00000000E+0	2.17817602E+1	5.00000000E+0	3.01542273E+0	-1.23400000E+3	4.51343349E-1
256	02/09/2022	16:48:21.766	0.00000000E+0	2.19911486E+1	5.00000000E+0	4.75572394E+0	-1.23400000E+3	4.43037801E-1
257	02/09/2022	16:48:23.146	0.00000000E+0	2.22005370E+1	5.00000000E+0	3.48750532E+0	-1.23300000E+3	4.40497348E-1
258	02/09/2022	16:48:24.632	0.00000000E+0	2.24099253E+1	5.00000000E+0	1.52247593E+0	-1.23500000E+3	4.39008602E-1
259	02/09/2022	16:48:26.031	0.00000000E+0	2.26193137E+1	5.00000000E+0	2.88695184E+0	-1.23400000E+3	4.36103634E-1
260	02/09/2022	16:48:27.407	0.00000000E+0	2.28290856E+1	5.00000000E+0	5.42492306E+0	-1.23500000E+3	4.35306248E-1
261	02/09/2022	16:48:28.980	0.00000000E+0	2.30384740E+1	5.00000000E+0	2.00721386E+0	-1.23300000E+3	4.43222608E-1
262	02/09/2022	16:48:30.382	0.00000000E+0	2.32478623E+1	5.00000000E+0	2.54755859E+0	-1.23500000E+3	4.28688607E-1
263	02/09/2022	16:48:31.824	0.00000000E+0	2.34572507E+1	5.00000000E+0	8.16844770E-2	-1.23300000E+3	4.30174435E-1
264	02/09/2022	16:48:33.337	0.00000000E+0	2.36666391E+1	5.00000000E+0	5.13691816E+0	-1.23500000E+3	4.31600840E-1
265	02/09/2022	16:48:34.730	0.00000000E+0	2.38760275E+1	5.00000000E+0	1.72035945E+0	-1.23300000E+3	4.26643651E-1
266	02/09/2022	16:48:36.201	0.00000000E+0	2.40854158E+1	5.00000000E+0	4.07271899E+0	-1.23300000E+3	4.36593883E-1
267	02/09/2022	16:48:37.584	0.00000000E+0	2.42948042E+1	5.00000000E+0	1.45919922E+0	-1.23500000E+3	4.37529054E-1
268	02/09/2022	16:48:38.987	0.00000000E+0	2.45045761E+1	5.00000000E+0	3.67618496E+0	-1.23400000E+3	4.42087454E-1
269	02/09/2022	16:48:40.485	0.00000000E+0	2.47139645E+1	5.00000000E+0	5.52041336E+0	-1.23300000E+3	4.46943831E-1
270	02/09/2022	16:48:41.867	0.00000000E+0	2.49233529E+1	5.00000000E+0	6.17772413E+0	-1.23500000E+3	4.43910088E-1
271	02/09/2022	16:48:43.330	0.00000000E+0	2.51327412E+1	5.00000000E+0	2.94025768E+0	-1.23500000E+3	4.54026631E-1
272	02/09/2022	16:48:44.738	0.00000000E+0	2.53421296E+1	5.00000000E+0	5.65271920E-1	-1.23400000E+3	4.53310864E-1
273	02/09/2022	16:48:46.130	0.00000000E+0	2.55515180E+1	5.00000000E+0	5.69528717E+0	-1.23400000E+3	4.54482602E-1
274	02/09/2022	16:48:47.637	0.00000000E+0	2.57609064E+1	5.00000000E+0	5.93228720E+0	-1.23400000E+3	4.55366891E-1
275	02/09/2022	16:48:49.008	0.00000000E+0	2.59706782E+1	5.00000000E+0	1.34146620E+0	-1.23300000E+3	4.58344965E-1
276	02/09/2022	16:48:50.473	0.00000000E+0	2.61800666E+1	5.00000000E+0	5.08783078E+0	-1.23300000E+3	4.61352257E-1
277	02/09/2022	16:48:51.967	0.00000000E+0	2.63894550E+1	5.00000000E+0	1.92783036E+0	-1.23400000E+3	4.59154379E-1
278	02/09/2022	16:48:53.360	0.00000000E+0	2.65988434E+1	5.00000000E+0	3.29690821E+0	-1.23400000E+3	4.54470681E-1
279	02/09/2022	16:48:54.861	0.00000000E+0	2.68082317E+1	5.00000000E+0	1.09027684E+0	-1.23300000E+3	4.56945039E-1
280	02/09/2022	16:48:56.256	0.00000000E+0	2.70176201E+1	5.00000000E+0	2.66912657E-1	-1.23400000E+3	4.56865631E-1
281	02/09/2022	16:48:57.645	0.00000000E+0	2.72270085E+1	5.00000000E+0	2.73432075E+0	-1.23300000E+3	4.59665856E-1
282	02/09/2022	16:48:59.223	0.00000000E+0	2.74363969E+1	5.00000000E+0	2.15064106E+0	-1.23400000E+3	4.52775794E-1
283	02/09/2022	16:49:00.621	0.00000000E+0	2.76461687E+1	5.00000000E+0	3.57724320E+0	-1.23500000E+3	4.46755687E-1
284	02/09/2022	16:49:02.057	0.00000000E+0	2.78555571E+1	5.00000000E+0	3.81270925E+0	-1.23300000E+3	4.49182350E-1
285	02/09/2022	16:49:03.538	0.00000000E+0	2.80649455E+1	5.00000000E+0	4.55438896E+0	-1.23500000E+3	4.47826590E-1
286	02/09/2022	16:49:04.951	0.00000000E+0	2.82743339E+1	5.00000000E+0	5.51504443E+0	-1.23500000E+3	4.42935712E-1
287	02/09/2022	16:49:06.430	0.00000000E+0	2.84837223E+1	5.00000000E+0	1.05614577E+0	-1.23400000E+3	4.39841438E-1
288	02/09/2022	16:49:07.820	0.00000000E+0	2.86931106E+1	5.00000000E+0	5.74744252E+0	-1.23400000E+3	4.38565140E-1
289	02/09/2022	16:49:09.208	0.00000000E+0	2.89024990E+1	5.00000000E+0	3.57149077E+0	-1.23500000E+3	4.42510378E-1
290	02/09/2022	16:49:10.706	0.00000000E+0	2.91122709E+1	5.00000000E+0	9.25373910E-1	-1.23500000E+3	4.35177765E-1
291	02/09/2022	16:49:12.139	0.00000000E+0	2.93216593E+1	5.00000000E+0	1.94738861E+0	-1.23300000E+3	4.31742567E-1
292	02/09/2022	16:49:13.586	0.00000000E+0	2.95310476E+1	5.00000000E+0	3.30074316E+0	-1.23500000E+3	4.37131488E-1
293	02/09/2022	16:49:15.068	0.00000000E+0	2.97404360E+1	5.00000000E+0	3.89631120E+0	-1.23300000E+3	4.33968068E-1
294	02/09/2022	16:49:16.461	0.00000000E+0	2.99498244E+1	5.00000000E+0	3.76093740E+0	-1.23500000E+3	4.33487422E-1
295	02/09/2022	16:49:18.028	0.00000000E+0	3.01592128E+1	5.00000000E+0	1.90175268E+0	-1.23300000E+3	4.37364288E-1
296	02/09/2022	16:49:19.418	0.00000000E+0	3.03686012E+1	5.00000000E+0	3.83073352E+0	-1.23500000E+3	4.37160764E-1
297	02/09/2022	16:49:20.836	0.00000000E+0	3.05779895E+1	5.00000000E+0	8.73218564E-1	-1.23500000E+3	4.43686300E-1
298	02/09/2022	16:49:22.370	0.00000000E+0	3.07877614E+1	5.00000000E+0	4.62802004E+0	-1.23300000E+3	4.44565491E-1
299	02/09/2022	16:49:23.737	0.00000000E+0	3.09971498E+1	5.00000000E+0	3.98451510E+0	-1.23300000E+3	4.42805337E-1
300	02/09/2022	16:49:25.278	0.00000000E+0	3.12065382E+1	5.00000000E+0	1.49256331E+0	-1.23300000E+3	4.45838071E-1
301	02/09/2022	16:49:26.649	0.00000000E+0	3.14159265E+1	5.00000000E+0	2.31554400E+0	-1.23300000E+3	4.50010517E-1
