#Iteration	Date	Time	STSX	STSY	RotationRateX	RotationRateY	FrCntX	FrCntY	TiptiltCmd1	TiptiltCmd2	TiptiltMonitor1	TiptiltMonitor2
1	17/03/2023	15:06:36.791	0.00000E+0	0.00000E+0	-7.68329E+1	6.31385E-1	0.00000E+0	0.00000E+0	2.00747E+1	1.48585E+1	2.00755E+1	1.48574E+1
2	17/03/2023	15:06:38.307	0.00000E+0	0.00000E+0	1.19243E+2	2.77263E+0	0.00000E+0	0.00000E+0	2.29088E+1	1.20179E+1	2.29067E+1	1.20166E+1
3	17/03/2023	15:06:39.843	0.00000E+0	0.00000E+0	-1.08435E+2	-3.09069E-1	0.00000E+0	0.00000E+0	1.97738E+1	1.52146E+1	1.97742E+1	1.52177E+1
4	17/03/2023	15:06:41.364	0.00000E+0	0.00000E+0	-1.02636E+2	-3.86207E-1	0.00000E+0	0.00000E+0	1.96862E+1	1.52420E+1	1.96848E+1	1.52420E+1
5	17/03/2023	15:06:42.945	0.00000E+0	0.00000E+0	1.49353E+2	-5.79901E-1	0.00000E+0	0.00000E+0	2.33394E+1	1.16075E+1	2.33394E+1	1.16063E+1
6	17/03/2023	15:06:44.544	0.00000E+0	0.00000E+0	-1.08548E+2	-1.64858E+0	0.00000E+0	0.00000E+0	1.98362E+1	1.51010E+1	1.98366E+1	1.51014E+1
7	17/03/2023	15:06:46.055	0.00000E+0	0.00000E+0	-1.23021E+2	5.21392E-1	0.00000E+0	0.00000E+0	1.94163E+1	1.55103E+1	1.94159E+1	1.55084E+1
8	17/03/2023	15:06:47.609	0.00000E+0	0.00000E+0	1.85754E+2	2.11196E+0	0.00000E+0	0.00000E+0	2.37894E+1	1.12108E+1	2.37877E+1	1.12097E+1
9	17/03/2023	15:06:49.165	0.00000E+0	0.00000E+0	-1.19008E+2	-5.27561E+0	0.00000E+0	0.00000E+0	1.97345E+1	1.52311E+1	1.97343E+1	1.52282E+1
10	17/03/2023	15:06:50.716	0.00000E+0	0.00000E+0	-1.20673E+2	2.08023E+0	0.00000E+0	0.00000E+0	1.95671E+1	1.53870E+1	1.95655E+1	1.53867E+1
11	17/03/2023	15:06:52.314	0.00000E+0	0.00000E+0	1.90820E+2	-7.34602E-1	0.00000E+0	0.00000E+0	2.40011E+1	1.09547E+1	2.40012E+1	1.09548E+1
12	17/03/2023	15:06:53.825	0.00000E+0	0.00000E+0	8.54587E+1	-3.61752E-1	0.00000E+0	0.00000E+0	2.27444E+1	1.22585E+1	2.27433E+1	1.22568E+1
13	17/03/2023	15:06:55.407	0.00000E+0	0.00000E+0	-1.49972E+2	1.30781E+0	0.00000E+0	0.00000E+0	1.91024E+1	1.57929E+1	1.91031E+1	1.57927E+1
14	17/03/2023	15:06:56.916	0.00000E+0	0.00000E+0	5.01309E+1	1.12180E+0	0.00000E+0	0.00000E+0	2.17164E+1	1.32780E+1	2.17132E+1	1.32764E+1
15	17/03/2023	15:06:58.462	0.00000E+0	0.00000E+0	8.93381E+1	6.21875E-1	0.00000E+0	0.00000E+0	2.25432E+1	1.24386E+1	2.25465E+1	1.24399E+1
16	17/03/2023	15:07:00.032	0.00000E+0	0.00000E+0	3.43183E+1	4.31797E-1	0.00000E+0	0.00000E+0	2.20441E+1	1.29569E+1	2.20422E+1	1.29575E+1
17	17/03/2023	15:07:01.590	0.00000E+0	0.00000E+0	-1.50970E+2	-2.42055E+0	0.00000E+0	0.00000E+0	1.91260E+1	1.58512E+1	1.91258E+1	1.58512E+1
18	17/03/2023	15:07:03.095	0.00000E+0	0.00000E+0	-2.28935E+1	8.75708E-1	0.00000E+0	0.00000E+0	2.05263E+1	1.44455E+1	2.05255E+1	1.44470E+1
19	17/03/2023	15:07:04.833	0.00000E+0	0.00000E+0	1.62152E+2	2.53022E+0	0.00000E+0	0.00000E+0	2.35253E+1	1.14783E+1	2.35257E+1	1.14783E+1
20	17/03/2023	15:07:06.432	0.00000E+0	0.00000E+0	-1.38074E+2	-1.62395E+0	0.00000E+0	0.00000E+0	1.96296E+1	1.53113E+1	1.96318E+1	1.53113E+1
21	17/03/2023	15:07:07.962	0.00000E+0	0.00000E+0	-1.43729E+2	-5.76136E-1	0.00000E+0	0.00000E+0	1.91254E+1	1.57478E+1	1.91257E+1	1.57467E+1
22	17/03/2023	15:07:09.525	0.00000E+0	0.00000E+0	1.24770E+2	2.43452E-1	0.00000E+0	0.00000E+0	2.29922E+1	1.19911E+1	2.29942E+1	1.19898E+1
23	17/03/2023	15:07:11.047	0.00000E+0	0.00000E+0	1.57813E+2	2.99203E+0	0.00000E+0	0.00000E+0	2.36028E+1	1.14402E+1	2.35993E+1	1.14400E+1
24	17/03/2023	15:07:12.600	0.00000E+0	0.00000E+0	-1.02539E+2	3.87596E+0	0.00000E+0	0.00000E+0	1.97457E+1	1.51655E+1	1.97433E+1	1.51650E+1
25	17/03/2023	15:07:14.128	0.00000E+0	0.00000E+0	-1.11339E+2	-1.43785E+0	0.00000E+0	0.00000E+0	1.97075E+1	1.51907E+1	1.97061E+1	1.51897E+1
26	17/03/2023	15:07:15.707	0.00000E+0	0.00000E+0	2.06462E+2	8.19576E-1	0.00000E+0	0.00000E+0	2.41807E+1	1.07555E+1	2.41810E+1	1.07531E+1
27	17/03/2023	15:07:17.293	0.00000E+0	0.00000E+0	-6.89769E+1	9.30408E-1	0.00000E+0	0.00000E+0	2.05892E+1	1.43849E+1	2.05896E+1	1.43832E+1
28	17/03/2023	15:07:18.800	0.00000E+0	0.00000E+0	-1.63516E+2	2.52351E+0	0.00000E+0	0.00000E+0	1.88666E+1	1.61624E+1	1.88664E+1	1.61628E+1
29	17/03/2023	15:07:20.392	0.00000E+0	0.00000E+0	2.08518E+2	3.25023E+0	0.00000E+0	0.00000E+0	2.41323E+1	1.08013E+1	2.41350E+1	1.08017E+1
30	17/03/2023	15:07:22.486	0.00000E+0	0.00000E+0	-1.69089E+2	-1.21130E+0	0.00000E+0	0.00000E+0	1.88491E+1	1.60931E+1	1.88475E+1	1.60926E+1
31	17/03/2023	15:07:24.170	0.00000E+0	0.00000E+0	3.76188E+1	-2.51077E+0	0.00000E+0	0.00000E+0	2.14553E+1	1.35268E+1	2.14539E+1	1.35287E+1
32	17/03/2023	15:07:25.729	0.00000E+0	0.00000E+0	1.86151E+2	-2.02856E+0	0.00000E+0	0.00000E+0	2.39235E+1	1.10631E+1	2.39226E+1	1.10618E+1
33	17/03/2023	15:07:27.281	0.00000E+0	0.00000E+0	-1.61117E+2	-3.11849E-1	0.00000E+0	0.00000E+0	1.89282E+1	1.59879E+1	1.89299E+1	1.59859E+1
34	17/03/2023	15:07:28.908	0.00000E+0	0.00000E+0	-1.25339E+2	-1.43065E+0	0.00000E+0	0.00000E+0	1.94779E+1	1.54393E+1	1.94763E+1	1.54384E+1
35	17/03/2023	15:07:30.457	0.00000E+0	0.00000E+0	1.84292E+2	3.13605E-1	0.00000E+0	0.00000E+0	2.38465E+1	1.11115E+1	2.38453E+1	1.11114E+1
36	17/03/2023	15:07:32.062	0.00000E+0	0.00000E+0	-1.11623E+2	-2.50909E-1	0.00000E+0	0.00000E+0	1.99724E+1	1.49731E+1	1.99728E+1	1.49735E+1
37	17/03/2023	15:07:33.582	0.00000E+0	0.00000E+0	-1.42337E+2	-1.95610E+0	0.00000E+0	0.00000E+0	1.92497E+1	1.57322E+1	1.92499E+1	1.57330E+1
38	17/03/2023	15:07:35.172	0.00000E+0	0.00000E+0	1.43691E+2	-1.45854E-1	0.00000E+0	0.00000E+0	2.33944E+1	1.16163E+1	2.33954E+1	1.16157E+1
39	17/03/2023	15:07:36.657	0.00000E+0	0.00000E+0	1.71495E+2	1.45436E+0	0.00000E+0	0.00000E+0	2.37328E+1	1.12782E+1	2.37330E+1	1.12775E+1
40	17/03/2023	15:07:38.183	0.00000E+0	0.00000E+0	-1.65391E+2	-2.67527E-1	0.00000E+0	0.00000E+0	1.89135E+1	1.60736E+1	1.89129E+1	1.60737E+1
41	17/03/2023	15:07:39.764	0.00000E+0	0.00000E+0	-7.88786E+1	-3.46929E+0	0.00000E+0	0.00000E+0	1.99904E+1	1.49391E+1	1.99885E+1	1.49390E+1
42	17/03/2023	15:07:41.271	0.00000E+0	0.00000E+0	1.71801E+2	-3.25156E-1	0.00000E+0	0.00000E+0	2.36791E+1	1.12904E+1	2.36801E+1	1.12920E+1
43	17/03/2023	15:07:42.838	0.00000E+0	0.00000E+0	-1.70114E+2	6.71217E-1	0.00000E+0	0.00000E+0	1.89078E+1	1.60329E+1	1.89066E+1	1.60312E+1
44	17/03/2023	15:07:44.361	0.00000E+0	0.00000E+0	-1.37295E+2	1.98026E-1	0.00000E+0	0.00000E+0	1.92700E+1	1.56686E+1	1.92698E+1	1.56663E+1
45	17/03/2023	15:07:45.879	0.00000E+0	0.00000E+0	1.67579E+2	7.18401E-1	0.00000E+0	0.00000E+0	2.35540E+1	1.13787E+1	2.35553E+1	1.13794E+1
46	17/03/2023	15:07:47.451	0.00000E+0	0.00000E+0	5.53375E+1	3.71947E-1	0.00000E+0	0.00000E+0	2.23197E+1	1.27189E+1	2.23199E+1	1.27175E+1
47	17/03/2023	15:07:49.038	0.00000E+0	0.00000E+0	-1.55092E+2	-1.54714E+0	0.00000E+0	0.00000E+0	1.89949E+1	1.59111E+1	1.89973E+1	1.59112E+1
48	17/03/2023	15:07:50.565	0.00000E+0	0.00000E+0	1.38660E+2	3.11357E+0	0.00000E+0	0.00000E+0	2.30024E+1	1.19461E+1	2.30020E+1	1.19470E+1
49	17/03/2023	15:07:52.158	0.00000E+0	0.00000E+0	1.75072E+2	-5.67216E-1	0.00000E+0	0.00000E+0	2.37853E+1	1.11888E+1	2.37850E+1	1.11896E+1
50	17/03/2023	15:07:53.723	0.00000E+0	0.00000E+0	-1.49233E+2	-1.43341E+0	0.00000E+0	0.00000E+0	1.91310E+1	1.58112E+1	1.91319E+1	1.58119E+1
51	17/03/2023	15:07:55.302	0.00000E+0	0.00000E+0	-8.24023E+1	8.44272E-1	0.00000E+0	0.00000E+0	1.99114E+1	1.50353E+1	1.99132E+1	1.50365E+1
52	17/03/2023	15:07:56.828	0.00000E+0	0.00000E+0	1.82052E+2	1.23450E+0	0.00000E+0	0.00000E+0	2.38307E+1	1.11589E+1	2.38297E+1	1.11573E+1
53	17/03/2023	15:07:58.344	0.00000E+0	0.00000E+0	-1.68976E+2	-2.58680E+0	0.00000E+0	0.00000E+0	1.89225E+1	1.59626E+1	1.89234E+1	1.59613E+1
54	17/03/2023	15:07:59.982	0.00000E+0	0.00000E+0	-1.43121E+2	2.83820E-1	0.00000E+0	0.00000E+0	1.92628E+1	1.57201E+1	1.92651E+1	1.57191E+1
55	17/03/2023	15:08:01.497	0.00000E+0	0.00000E+0	2.56839E+2	2.95129E+0	0.00000E+0	0.00000E+0	2.48766E+1	1.01153E+1	2.48736E+1	1.01170E+1
56	17/03/2023	15:08:03.054	0.00000E+0	0.00000E+0	-2.27415E+1	9.40355E-1	0.00000E+0	0.00000E+0	2.11402E+1	1.37833E+1	2.11394E+1	1.37830E+1
57	17/03/2023	15:08:04.619	0.00000E+0	0.00000E+0	-1.69877E+2	-2.75572E-1	0.00000E+0	0.00000E+0	1.88243E+1	1.60979E+1	1.88241E+1	1.60968E+1
58	17/03/2023	15:08:06.247	0.00000E+0	0.00000E+0	2.14319E+2	1.52228E+0	0.00000E+0	0.00000E+0	2.42522E+1	1.07444E+1	2.42544E+1	1.07457E+1
59	17/03/2023	15:08:07.769	0.00000E+0	0.00000E+0	1.20785E+2	3.38508E-1	0.00000E+0	0.00000E+0	2.30476E+1	1.19305E+1	2.30496E+1	1.19319E+1
60	17/03/2023	15:08:09.336	0.00000E+0	0.00000E+0	-1.58134E+2	-1.51163E+0	0.00000E+0	0.00000E+0	1.89762E+1	1.59302E+1	1.89770E+1	1.59306E+1
61	17/03/2023	15:08:10.925	0.00000E+0	0.00000E+0	1.00300E+2	4.92895E+0	0.00000E+0	0.00000E+0	2.23420E+1	1.26445E+1	2.23422E+1	1.26428E+1
62	17/03/2023	15:08:12.511	0.00000E+0	0.00000E+0	1.57641E+2	1.00198E+0	0.00000E+0	0.00000E+0	2.34859E+1	1.14286E+1	2.34851E+1	1.14286E+1
63	17/03/2023	15:08:14.037	0.00000E+0	0.00000E+0	-1.71251E+2	-1.87609E+0	0.00000E+0	0.00000E+0	1.88552E+1	1.60994E+1	1.88563E+1	1.60978E+1
64	17/03/2023	15:08:15.602	0.00000E+0	0.00000E+0	5.64546E+1	1.38085E+0	0.00000E+0	0.00000E+0	2.16411E+1	1.33641E+1	2.16414E+1	1.33667E+1
65	17/03/2023	15:08:17.109	0.00000E+0	0.00000E+0	1.74862E+2	5.32174E-2	0.00000E+0	0.00000E+0	2.37313E+1	1.12504E+1	2.37293E+1	1.12498E+1
66	17/03/2023	15:08:18.676	0.00000E+0	0.00000E+0	-1.42089E+2	9.32980E-1	0.00000E+0	0.00000E+0	1.92469E+1	1.56961E+1	1.92469E+1	1.56952E+1
67	17/03/2023	15:08:20.196	0.00000E+0	0.00000E+0	-6.43307E+1	-3.42460E-1	0.00000E+0	0.00000E+0	2.00233E+1	1.48675E+1	2.00236E+1	1.48658E+1
68	17/03/2023	15:08:21.706	0.00000E+0	0.00000E+0	1.70646E+2	2.06239E+0	0.00000E+0	0.00000E+0	2.37012E+1	1.12850E+1	2.37016E+1	1.12848E+1
69	17/03/2023	15:08:23.289	0.00000E+0	0.00000E+0	-1.75557E+2	2.98549E-1	0.00000E+0	0.00000E+0	1.87272E+1	1.61981E+1	1.87268E+1	1.61973E+1
70	17/03/2023	15:08:24.797	0.00000E+0	0.00000E+0	-1.24914E+2	-1.08495E+0	0.00000E+0	0.00000E+0	1.94663E+1	1.54835E+1	1.94666E+1	1.54842E+1
71	17/03/2023	15:08:26.319	0.00000E+0	0.00000E+0	2.09688E+2	2.65832E+0	0.00000E+0	0.00000E+0	2.42274E+1	1.07619E+1	2.42253E+1	1.07622E+1
72	17/03/2023	15:08:27.882	0.00000E+0	0.00000E+0	-6.22435E+1	-4.84342E-1	0.00000E+0	0.00000E+0	2.06343E+1	1.42657E+1	2.06315E+1	1.42639E+1
73	17/03/2023	15:08:29.399	0.00000E+0	0.00000E+0	-1.51835E+2	-2.33279E+0	0.00000E+0	0.00000E+0	1.90685E+1	1.58478E+1	1.90674E+1	1.58495E+1
74	17/03/2023	15:08:30.975	0.00000E+0	0.00000E+0	1.66268E+2	5.23675E+0	0.00000E+0	0.00000E+0	2.35583E+1	1.13881E+1	2.35588E+1	1.13890E+1
75	17/03/2023	15:08:32.499	0.00000E+0	0.00000E+0	1.32708E+2	1.82535E+0	0.00000E+0	0.00000E+0	2.31579E+1	1.18047E+1	2.31560E+1	1.18018E+1
76	17/03/2023	15:08:34.063	0.00000E+0	0.00000E+0	-1.37430E+2	-9.31746E-1	0.00000E+0	0.00000E+0	1.92676E+1	1.56799E+1	1.92677E+1	1.56813E+1
77	17/03/2023	15:08:35.622	0.00000E+0	0.00000E+0	-1.36966E+2	-5.84037E-1	0.00000E+0	0.00000E+0	1.93116E+1	1.56084E+1	1.93138E+1	1.56076E+1
78	17/03/2023	15:08:37.203	0.00000E+0	0.00000E+0	1.46353E+2	-8.83993E-1	0.00000E+0	0.00000E+0	2.33222E+1	1.16683E+1	2.33204E+1	1.16675E+1
79	17/03/2023	15:08:38.802	0.00000E+0	0.00000E+0	-7.83616E+1	1.34695E-1	0.00000E+0	0.00000E+0	2.05600E+1	1.43999E+1	2.05605E+1	1.43997E+1
80	17/03/2023	15:08:40.333	0.00000E+0	0.00000E+0	-1.46117E+2	-3.44476E+0	0.00000E+0	0.00000E+0	1.91526E+1	1.57948E+1	1.91543E+1	1.57913E+1
81	17/03/2023	15:08:41.854	0.00000E+0	0.00000E+0	1.85036E+2	7.30110E-1	0.00000E+0	0.00000E+0	2.37390E+1	1.13094E+1	2.37366E+1	1.13094E+1
82	17/03/2023	15:08:43.397	0.00000E+0	0.00000E+0	1.51508E+2	-2.33049E+0	0.00000E+0	0.00000E+0	2.34960E+1	1.15564E+1	2.34959E+1	1.15559E+1
83	17/03/2023	15:08:44.997	0.00000E+0	0.00000E+0	-1.50944E+2	1.21618E+0	0.00000E+0	0.00000E+0	1.91617E+1	1.57669E+1	1.91607E+1	1.57662E+1
84	17/03/2023	15:08:46.528	0.00000E+0	0.00000E+0	-6.48137E+1	-1.67006E+0	0.00000E+0	0.00000E+0	2.01561E+1	1.48260E+1	2.01566E+1	1.48251E+1
85	17/03/2023	15:08:48.047	0.00000E+0	0.00000E+0	1.61076E+2	1.48891E+0	0.00000E+0	0.00000E+0	2.35775E+1	1.14463E+1	2.35781E+1	1.14456E+1
86	17/03/2023	15:08:49.668	0.00000E+0	0.00000E+0	-1.46735E+2	-2.89466E+0	0.00000E+0	0.00000E+0	1.92819E+1	1.56456E+1	1.92791E+1	1.56442E+1
87	17/03/2023	15:08:51.193	0.00000E+0	0.00000E+0	-1.12926E+2	1.39703E+0	0.00000E+0	0.00000E+0	1.95958E+1	1.53344E+1	1.95950E+1	1.53355E+1
88	17/03/2023	15:08:52.723	0.00000E+0	0.00000E+0	1.72558E+2	1.26796E+0	0.00000E+0	0.00000E+0	2.35427E+1	1.14380E+1	2.35428E+1	1.14397E+1
89	17/03/2023	15:08:54.292	0.00000E+0	0.00000E+0	1.52197E+2	1.70754E+0	0.00000E+0	0.00000E+0	2.34552E+1	1.15421E+1	2.34556E+1	1.15398E+1
90	17/03/2023	15:08:55.867	0.00000E+0	0.00000E+0	-1.46400E+2	-1.45950E+0	0.00000E+0	0.00000E+0	1.91312E+1	1.57975E+1	1.91325E+1	1.57958E+1
91	17/03/2023	15:08:57.386	0.00000E+0	0.00000E+0	-1.18568E+2	2.53767E-1	0.00000E+0	0.00000E+0	1.96285E+1	1.53059E+1	1.96252E+1	1.53063E+1
92	17/03/2023	15:08:58.961	0.00000E+0	0.00000E+0	1.86767E+2	-2.18314E-1	0.00000E+0	0.00000E+0	2.38136E+1	1.11648E+1	2.38127E+1	1.11643E+1
93	17/03/2023	15:09:00.537	0.00000E+0	0.00000E+0	1.14941E+2	5.57483E-1	0.00000E+0	0.00000E+0	2.30150E+1	1.19716E+1	2.30129E+1	1.19711E+1
94	17/03/2023	15:09:02.054	0.00000E+0	0.00000E+0	-1.49070E+2	-1.46585E+0	0.00000E+0	0.00000E+0	1.90757E+1	1.57929E+1	1.90772E+1	1.57937E+1
95	17/03/2023	15:09:03.570	0.00000E+0	0.00000E+0	-3.93617E+1	8.15112E-1	0.00000E+0	0.00000E+0	2.03302E+1	1.44334E+1	2.03301E+1	1.44356E+1
96	17/03/2023	15:09:05.141	0.00000E+0	0.00000E+0	1.67589E+2	1.57588E+0	0.00000E+0	0.00000E+0	2.36610E+1	1.12686E+1	2.36594E+1	1.12705E+1
97	17/03/2023	15:09:06.726	0.00000E+0	0.00000E+0	-1.79001E+2	-8.95760E-1	0.00000E+0	0.00000E+0	1.87479E+1	1.61674E+1	1.87495E+1	1.61696E+1
98	17/03/2023	15:09:08.296	0.00000E+0	0.00000E+0	5.50514E+1	-1.16777E-1	0.00000E+0	0.00000E+0	2.17693E+1	1.31995E+1	2.17672E+1	1.32012E+1
99	17/03/2023	15:09:09.822	0.00000E+0	0.00000E+0	1.77785E+2	1.06641E+0	0.00000E+0	0.00000E+0	2.37352E+1	1.12279E+1	2.37358E+1	1.12283E+1
100	17/03/2023	15:09:11.405	0.00000E+0	0.00000E+0	-1.74209E+2	2.46134E+0	0.00000E+0	0.00000E+0	1.87771E+1	1.61469E+1	1.87773E+1	1.61479E+1
101	17/03/2023	15:09:12.992	0.00000E+0	0.00000E+0	7.99171E+1	1.88095E+0	0.00000E+0	0.00000E+0	2.19173E+1	1.31282E+1	2.19203E+1	1.31280E+1
102	17/03/2023	15:09:14.594	0.00000E+0	0.00000E+0	1.65994E+2	-5.63225E-1	0.00000E+0	0.00000E+0	2.36816E+1	1.12712E+1	2.36822E+1	1.12737E+1
103	17/03/2023	15:09:16.146	0.00000E+0	0.00000E+0	-1.84354E+2	-2.17358E+0	0.00000E+0	0.00000E+0	1.85725E+1	1.63405E+1	1.85700E+1	1.63403E+1
104	17/03/2023	15:09:17.700	0.00000E+0	0.00000E+0	2.25803E+2	1.94735E+0	0.00000E+0	0.00000E+0	2.44494E+1	1.05104E+1	2.44502E+1	1.05129E+1
105	17/03/2023	15:09:19.257	0.00000E+0	0.00000E+0	-1.73114E+2	-9.22720E-1	0.00000E+0	0.00000E+0	1.90238E+1	1.59688E+1	1.90241E+1	1.59683E+1
106	17/03/2023	15:09:20.790	0.00000E+0	0.00000E+0	-1.49830E+2	-8.22483E-1	0.00000E+0	0.00000E+0	1.91232E+1	1.57984E+1	1.91226E+1	1.57988E+1
107	17/03/2023	15:09:22.316	0.00000E+0	0.00000E+0	2.02776E+2	2.54448E+0	0.00000E+0	0.00000E+0	2.42342E+1	1.08251E+1	2.42346E+1	1.08267E+1
108	17/03/2023	15:09:23.857	0.00000E+0	0.00000E+0	-1.99554E+2	-3.26779E+0	0.00000E+0	0.00000E+0	1.83698E+1	1.65100E+1	1.83709E+1	1.65102E+1
109	17/03/2023	15:09:25.438	0.00000E+0	0.00000E+0	2.27931E+2	2.16702E+0	0.00000E+0	0.00000E+0	2.44051E+1	1.05998E+1	2.44066E+1	1.06002E+1
110	17/03/2023	15:09:26.965	0.00000E+0	0.00000E+0	-6.16760E+1	-6.23808E-1	0.00000E+0	0.00000E+0	2.10020E+1	1.39799E+1	2.10009E+1	1.39795E+1
111	17/03/2023	15:09:28.517	0.00000E+0	0.00000E+0	-1.82419E+2	-1.18735E+0	0.00000E+0	0.00000E+0	1.86433E+1	1.63468E+1	1.86431E+1	1.63456E+1
112	17/03/2023	15:09:30.061	0.00000E+0	0.00000E+0	2.33537E+2	2.19008E+0	0.00000E+0	0.00000E+0	2.45632E+1	1.04308E+1	2.45650E+1	1.04295E+1
113	17/03/2023	15:09:31.623	0.00000E+0	0.00000E+0	-1.92836E+2	-1.40060E+0	0.00000E+0	0.00000E+0	1.84518E+1	1.63573E+1	1.84533E+1	1.63575E+1
114	17/03/2023	15:09:33.155	0.00000E+0	0.00000E+0	9.92689E+0	3.65915E+0	0.00000E+0	0.00000E+0	2.09160E+1	1.40078E+1	2.09149E+1	1.40078E+1
115	17/03/2023	15:09:34.630	0.00000E+0	0.00000E+0	1.88175E+2	2.30820E+0	0.00000E+0	0.00000E+0	2.40074E+1	1.10525E+1	2.40087E+1	1.10531E+1
116	17/03/2023	15:09:36.158	0.00000E+0	0.00000E+0	-1.95851E+2	-4.47306E+0	0.00000E+0	0.00000E+0	1.84021E+1	1.64818E+1	1.84012E+1	1.64816E+1
117	17/03/2023	15:09:37.723	0.00000E+0	0.00000E+0	1.99106E+2	2.70986E-1	0.00000E+0	0.00000E+0	2.38837E+1	1.11299E+1	2.38848E+1	1.11311E+1
118	17/03/2023	15:09:39.253	0.00000E+0	0.00000E+0	8.50841E+1	-1.60880E-1	0.00000E+0	0.00000E+0	2.28008E+1	1.22112E+1	2.28012E+1	1.22127E+1
119	17/03/2023	15:09:40.810	0.00000E+0	0.00000E+0	-1.77972E+2	5.79571E-1	0.00000E+0	0.00000E+0	1.87351E+1	1.62037E+1	1.87332E+1	1.62050E+1
120	17/03/2023	15:09:42.359	0.00000E+0	0.00000E+0	1.87704E+2	3.47064E+0	0.00000E+0	0.00000E+0	2.39042E+1	1.10653E+1	2.39070E+1	1.10629E+1
121	17/03/2023	15:09:43.905	0.00000E+0	0.00000E+0	1.03172E+2	3.61157E+0	0.00000E+0	0.00000E+0	2.29297E+1	1.20939E+1	2.29324E+1	1.20934E+1
122	17/03/2023	15:09:45.489	0.00000E+0	0.00000E+0	-1.96411E+2	-4.04175E+0	0.00000E+0	0.00000E+0	1.84100E+1	1.65093E+1	1.84106E+1	1.65103E+1
123	17/03/2023	15:09:47.013	0.00000E+0	0.00000E+0	2.03021E+2	6.72793E-1	0.00000E+0	0.00000E+0	2.41228E+1	1.07619E+1	2.41226E+1	1.07626E+1
124	17/03/2023	15:09:48.583	0.00000E+0	0.00000E+0	-4.54264E+1	8.46890E-1	0.00000E+0	0.00000E+0	2.08713E+1	1.40459E+1	2.08702E+1	1.40467E+1
125	17/03/2023	15:09:50.158	0.00000E+0	0.00000E+0	-1.72708E+2	-4.11209E-1	0.00000E+0	0.00000E+0	1.87762E+1	1.61696E+1	1.87769E+1	1.61698E+1
126	17/03/2023	15:09:51.672	0.00000E+0	0.00000E+0	2.29679E+2	1.20989E+0	0.00000E+0	0.00000E+0	2.45069E+1	1.04263E+1	2.45087E+1	1.04253E+1
127	17/03/2023	15:09:53.257	0.00000E+0	0.00000E+0	-9.71213E+1	-8.08981E-1	0.00000E+0	0.00000E+0	2.00484E+1	1.48048E+1	2.00489E+1	1.48048E+1
128	17/03/2023	15:09:54.818	0.00000E+0	0.00000E+0	-1.40951E+2	-3.63291E-1	0.00000E+0	0.00000E+0	1.92211E+1	1.56741E+1	1.92197E+1	1.56750E+1
129	17/03/2023	15:09:56.412	0.00000E+0	0.00000E+0	1.91420E+2	-6.91939E-1	0.00000E+0	0.00000E+0	2.39475E+1	1.09799E+1	2.39458E+1	1.09805E+1
130	17/03/2023	15:09:57.943	0.00000E+0	0.00000E+0	5.24538E+1	1.50303E+0	0.00000E+0	0.00000E+0	2.23510E+1	1.25944E+1	2.23504E+1	1.25927E+1
131	17/03/2023	15:09:59.488	0.00000E+0	0.00000E+0	-1.71419E+2	-6.22935E-1	0.00000E+0	0.00000E+0	1.87878E+1	1.60507E+1	1.87874E+1	1.60495E+1
132	17/03/2023	15:10:01.027	0.00000E+0	0.00000E+0	2.26859E+2	4.68631E+0	0.00000E+0	0.00000E+0	2.44611E+1	1.05206E+1	2.44628E+1	1.05195E+1
133	17/03/2023	15:10:02.549	0.00000E+0	0.00000E+0	-2.15954E+2	-7.94894E-1	0.00000E+0	0.00000E+0	1.82514E+1	1.66310E+1	1.82505E+1	1.66335E+1
134	17/03/2023	15:10:04.101	0.00000E+0	0.00000E+0	-1.32364E+2	-2.90103E+0	0.00000E+0	0.00000E+0	1.91867E+1	1.57164E+1	1.91878E+1	1.57168E+1
135	17/03/2023	15:10:05.688	0.00000E+0	0.00000E+0	2.08303E+2	3.43846E+0	0.00000E+0	0.00000E+0	2.42576E+1	1.07531E+1	2.42555E+1	1.07517E+1
136	17/03/2023	15:10:07.255	0.00000E+0	0.00000E+0	-1.59117E+2	-2.09239E+0	0.00000E+0	0.00000E+0	1.89647E+1	1.59450E+1	1.89641E+1	1.59464E+1
137	17/03/2023	15:10:08.794	0.00000E+0	0.00000E+0	-5.99039E+1	-2.48408E+0	0.00000E+0	0.00000E+0	2.04883E+1	1.44198E+1	2.04849E+1	1.44191E+1
138	17/03/2023	15:10:10.334	0.00000E+0	0.00000E+0	1.74579E+2	-2.92187E+0	0.00000E+0	0.00000E+0	2.36663E+1	1.12960E+1	2.36676E+1	1.12926E+1
139	17/03/2023	15:10:11.890	0.00000E+0	0.00000E+0	-2.19518E+2	-1.22213E+0	0.00000E+0	0.00000E+0	1.81563E+1	1.68311E+1	1.81550E+1	1.68324E+1
140	17/03/2023	15:10:13.477	0.00000E+0	0.00000E+0	2.71892E+1	1.56016E+0	0.00000E+0	0.00000E+0	2.12299E+1	1.37274E+1	2.12288E+1	1.37276E+1
141	17/03/2023	15:10:15.002	0.00000E+0	0.00000E+0	1.90979E+2	-1.84806E+0	0.00000E+0	0.00000E+0	2.39714E+1	1.09308E+1	2.39728E+1	1.09315E+1
142	17/03/2023	15:10:16.583	0.00000E+0	0.00000E+0	-2.02264E+2	-5.10455E-1	0.00000E+0	0.00000E+0	1.84006E+1	1.65305E+1	1.84013E+1	1.65304E+1
143	17/03/2023	15:10:18.151	0.00000E+0	0.00000E+0	2.17777E+2	6.14831E+0	0.00000E+0	0.00000E+0	2.43046E+1	1.07323E+1	2.43034E+1	1.07333E+1
144	17/03/2023	15:10:19.736	0.00000E+0	0.00000E+0	1.20246E+2	2.17743E+0	0.00000E+0	0.00000E+0	2.30417E+1	1.19426E+1	2.30424E+1	1.19395E+1
145	17/03/2023	15:10:21.302	0.00000E+0	0.00000E+0	-1.76490E+2	-3.29205E+0	0.00000E+0	0.00000E+0	1.86141E+1	1.62125E+1	1.86117E+1	1.62133E+1
146	17/03/2023	15:10:22.835	0.00000E+0	0.00000E+0	2.26600E+2	8.62618E-1	0.00000E+0	0.00000E+0	2.44778E+1	1.05301E+1	2.44795E+1	1.05280E+1
147	17/03/2023	15:10:24.415	0.00000E+0	0.00000E+0	8.97618E+1	-6.76581E-1	0.00000E+0	0.00000E+0	2.29486E+1	1.20721E+1	2.29501E+1	1.20717E+1
148	17/03/2023	15:10:25.926	0.00000E+0	0.00000E+0	-1.74927E+2	-1.12091E+0	0.00000E+0	0.00000E+0	1.87205E+1	1.61602E+1	1.87208E+1	1.61616E+1
149	17/03/2023	15:10:27.507	0.00000E+0	0.00000E+0	1.97633E+2	-1.33215E+0	0.00000E+0	0.00000E+0	2.40918E+1	1.08798E+1	2.40920E+1	1.08776E+1
150	17/03/2023	15:10:29.007	0.00000E+0	0.00000E+0	2.39776E+1	1.12379E+0	0.00000E+0	0.00000E+0	2.21049E+1	1.28876E+1	2.21062E+1	1.28877E+1
151	17/03/2023	15:10:30.598	0.00000E+0	0.00000E+0	-1.78855E+2	-1.98492E+0	0.00000E+0	0.00000E+0	1.86830E+1	1.62053E+1	1.86817E+1	1.62090E+1
152	17/03/2023	15:10:32.185	0.00000E+0	0.00000E+0	1.83374E+2	1.36574E+0	0.00000E+0	0.00000E+0	2.38263E+1	1.11763E+1	2.38252E+1	1.11794E+1
153	17/03/2023	15:10:33.716	0.00000E+0	0.00000E+0	1.63385E+1	-3.06123E+0	0.00000E+0	0.00000E+0	2.19968E+1	1.30136E+1	2.19993E+1	1.30115E+1
154	17/03/2023	15:10:35.306	0.00000E+0	0.00000E+0	-1.73358E+2	-3.36796E+0	0.00000E+0	0.00000E+0	1.87175E+1	1.61891E+1	1.87174E+1	1.61880E+1
155	17/03/2023	15:10:36.885	0.00000E+0	0.00000E+0	2.02257E+2	6.46194E-1	0.00000E+0	0.00000E+0	2.41680E+1	1.08318E+1	2.41674E+1	1.08312E+1
156	17/03/2023	15:10:38.450	0.00000E+0	0.00000E+0	-1.51908E+2	-1.22035E+0	0.00000E+0	0.00000E+0	1.94567E+1	1.54480E+1	1.94584E+1	1.54476E+1
157	17/03/2023	15:10:40.037	0.00000E+0	0.00000E+0	-1.59452E+2	-8.45016E-2	0.00000E+0	0.00000E+0	1.88989E+1	1.60076E+1	1.88993E+1	1.60086E+1
158	17/03/2023	15:10:41.568	0.00000E+0	0.00000E+0	1.72081E+2	4.99297E+0	0.00000E+0	0.00000E+0	2.36658E+1	1.13215E+1	2.36679E+1	1.13215E+1
159	17/03/2023	15:10:43.134	0.00000E+0	0.00000E+0	3.82439E+1	-3.60786E+0	0.00000E+0	0.00000E+0	2.23623E+1	1.26053E+1	2.23630E+1	1.26031E+1
160	17/03/2023	15:10:44.636	0.00000E+0	0.00000E+0	-1.78908E+2	1.13659E+0	0.00000E+0	0.00000E+0	1.86916E+1	1.62551E+1	1.86925E+1	1.62550E+1
161	17/03/2023	15:10:46.252	0.00000E+0	0.00000E+0	1.74277E+2	2.85811E+0	0.00000E+0	0.00000E+0	2.36577E+1	1.12706E+1	2.36590E+1	1.12714E+1
162	17/03/2023	15:10:47.807	0.00000E+0	0.00000E+0	-7.83545E+1	-1.84230E+0	0.00000E+0	0.00000E+0	2.04976E+1	1.43108E+1	2.04985E+1	1.43099E+1
163	17/03/2023	15:10:49.337	0.00000E+0	0.00000E+0	-1.55091E+2	-6.85940E-1	0.00000E+0	0.00000E+0	1.90579E+1	1.58906E+1	1.90574E+1	1.58943E+1
164	17/03/2023	15:10:50.979	0.00000E+0	0.00000E+0	1.83018E+2	1.57782E+0	0.00000E+0	0.00000E+0	2.38089E+1	1.11409E+1	2.38071E+1	1.11412E+1
165	17/03/2023	15:10:52.507	0.00000E+0	0.00000E+0	-3.46173E+1	-3.61188E+0	0.00000E+0	0.00000E+0	2.13021E+1	1.35780E+1	2.13020E+1	1.35794E+1
166	17/03/2023	15:10:54.067	0.00000E+0	0.00000E+0	-1.48024E+2	1.34673E+0	0.00000E+0	0.00000E+0	1.90762E+1	1.58371E+1	1.90776E+1	1.58374E+1
167	17/03/2023	15:10:55.580	0.00000E+0	0.00000E+0	1.91432E+2	9.92889E-1	0.00000E+0	0.00000E+0	2.38798E+1	1.10891E+1	2.38789E+1	1.10887E+1
168	17/03/2023	15:10:57.164	0.00000E+0	0.00000E+0	1.29001E+2	-5.86545E-2	0.00000E+0	0.00000E+0	2.31035E+1	1.18563E+1	2.31052E+1	1.18551E+1
169	17/03/2023	15:10:58.671	0.00000E+0	0.00000E+0	-1.41851E+2	2.60934E+0	0.00000E+0	0.00000E+0	1.92500E+1	1.57291E+1	1.92465E+1	1.57285E+1
170	17/03/2023	15:11:00.254	0.00000E+0	0.00000E+0	-1.35892E+2	-2.29523E+0	0.00000E+0	0.00000E+0	1.92854E+1	1.56929E+1	1.92844E+1	1.56924E+1
171	17/03/2023	15:11:01.780	0.00000E+0	0.00000E+0	1.84479E+2	-1.73124E+0	0.00000E+0	0.00000E+0	2.39668E+1	1.10348E+1	2.39682E+1	1.10346E+1
172	17/03/2023	15:11:03.345	0.00000E+0	0.00000E+0	-1.90540E+2	-1.31865E-1	0.00000E+0	0.00000E+0	1.85632E+1	1.63273E+1	1.85619E+1	1.63299E+1
173	17/03/2023	15:11:04.922	0.00000E+0	0.00000E+0	-6.19428E+1	-8.19553E-1	0.00000E+0	0.00000E+0	2.00220E+1	1.48601E+1	2.00244E+1	1.48606E+1
174	17/03/2023	15:11:06.448	0.00000E+0	0.00000E+0	1.50661E+2	4.16088E-1	0.00000E+0	0.00000E+0	2.34684E+1	1.15387E+1	2.34680E+1	1.15392E+1
175	17/03/2023	15:11:08.066	0.00000E+0	0.00000E+0	-1.63458E+2	-1.94387E+0	0.00000E+0	0.00000E+0	1.89125E+1	1.60586E+1	1.89127E+1	1.60588E+1
176	17/03/2023	15:11:09.616	0.00000E+0	0.00000E+0	-1.50910E+2	-1.14427E+0	0.00000E+0	0.00000E+0	1.90808E+1	1.58480E+1	1.90805E+1	1.58476E+1
177	17/03/2023	15:11:11.196	0.00000E+0	0.00000E+0	1.77026E+2	-3.92776E-1	0.00000E+0	0.00000E+0	2.37768E+1	1.11107E+1	2.37754E+1	1.11086E+1
178	17/03/2023	15:11:12.706	0.00000E+0	0.00000E+0	-2.00145E+2	-1.28597E+0	0.00000E+0	0.00000E+0	1.83528E+1	1.65208E+1	1.83523E+1	1.65198E+1
179	17/03/2023	15:11:14.252	0.00000E+0	0.00000E+0	-1.62057E+2	-2.89323E+0	0.00000E+0	0.00000E+0	1.88707E+1	1.60226E+1	1.88677E+1	1.60203E+1
180	17/03/2023	15:11:15.843	0.00000E+0	0.00000E+0	1.68128E+2	3.08789E-1	0.00000E+0	0.00000E+0	2.36671E+1	1.12895E+1	2.36650E+1	1.12892E+1
181	17/03/2023	15:11:17.379	0.00000E+0	0.00000E+0	-1.89106E+2	-3.64758E+0	0.00000E+0	0.00000E+0	1.84989E+1	1.64026E+1	1.85013E+1	1.64027E+1
182	17/03/2023	15:11:18.973	0.00000E+0	0.00000E+0	-1.28148E+2	-2.62193E+0	0.00000E+0	0.00000E+0	1.93622E+1	1.55541E+1	1.93597E+1	1.55529E+1
183	17/03/2023	15:11:20.496	0.00000E+0	0.00000E+0	1.60261E+2	1.06787E+0	0.00000E+0	0.00000E+0	2.35120E+1	1.14947E+1	2.35129E+1	1.14955E+1
184	17/03/2023	15:11:22.059	0.00000E+0	0.00000E+0	1.14783E+2	7.85933E-1	0.00000E+0	0.00000E+0	2.29416E+1	1.20200E+1	2.29421E+1	1.20187E+1
185	17/03/2023	15:11:23.638	0.00000E+0	0.00000E+0	-1.50913E+2	-1.70384E+0	0.00000E+0	0.00000E+0	1.91880E+1	1.57306E+1	1.91867E+1	1.57292E+1
186	17/03/2023	15:11:25.158	0.00000E+0	0.00000E+0	1.46180E+1	-1.50238E-1	0.00000E+0	0.00000E+0	2.10510E+1	1.39303E+1	2.10496E+1	1.39309E+1
187	17/03/2023	15:11:26.676	0.00000E+0	0.00000E+0	1.83472E+2	2.42445E+0	0.00000E+0	0.00000E+0	2.39374E+1	1.11731E+1	2.39373E+1	1.11727E+1
188	17/03/2023	15:11:28.240	0.00000E+0	0.00000E+0	-2.16060E+2	-2.80770E+0	0.00000E+0	0.00000E+0	1.81231E+1	1.67840E+1	1.81233E+1	1.67841E+1
189	17/03/2023	15:11:29.747	0.00000E+0	0.00000E+0	2.34697E+2	9.19689E-2	0.00000E+0	0.00000E+0	2.45592E+1	1.04451E+1	2.45595E+1	1.04472E+1
190	17/03/2023	15:11:31.323	0.00000E+0	0.00000E+0	3.27693E+1	4.22611E-1	0.00000E+0	0.00000E+0	2.21655E+1	1.27922E+1	2.21653E+1	1.27905E+1
191	17/03/2023	15:11:32.836	0.00000E+0	0.00000E+0	-1.75568E+2	-3.65329E+0	0.00000E+0	0.00000E+0	1.86291E+1	1.62482E+1	1.86290E+1	1.62483E+1
192	17/03/2023	15:11:34.422	0.00000E+0	0.00000E+0	1.88224E+2	1.44013E+0	0.00000E+0	0.00000E+0	2.39641E+1	1.10612E+1	2.39645E+1	1.10626E+1
193	17/03/2023	15:11:35.935	0.00000E+0	0.00000E+0	-1.44884E+2	-2.69803E-1	0.00000E+0	0.00000E+0	1.95045E+1	1.54572E+1	1.95045E+1	1.54582E+1
194	17/03/2023	15:11:37.487	0.00000E+0	0.00000E+0	-1.30711E+2	-2.02607E+0	0.00000E+0	0.00000E+0	1.92703E+1	1.55432E+1	1.92712E+1	1.55434E+1
195	17/03/2023	15:11:39.040	0.00000E+0	0.00000E+0	1.67027E+2	2.01908E+0	0.00000E+0	0.00000E+0	2.36263E+1	1.13732E+1	2.36280E+1	1.13735E+1
196	17/03/2023	15:11:40.667	0.00000E+0	0.00000E+0	-1.77015E+2	-2.29044E+0	0.00000E+0	0.00000E+0	1.88812E+1	1.59178E+1	1.88809E+1	1.59189E+1
197	17/03/2023	15:11:42.213	0.00000E+0	0.00000E+0	-1.36466E+2	-2.30074E+0	0.00000E+0	0.00000E+0	1.92525E+1	1.56387E+1	1.92485E+1	1.56398E+1
198	17/03/2023	15:11:43.780	0.00000E+0	0.00000E+0	1.70226E+2	-1.63744E-1	0.00000E+0	0.00000E+0	2.37009E+1	1.13147E+1	2.37013E+1	1.13163E+1
199	17/03/2023	15:11:45.366	0.00000E+0	0.00000E+0	-1.60724E+2	4.09154E-1	0.00000E+0	0.00000E+0	1.92632E+1	1.56460E+1	1.92626E+1	1.56452E+1
200	17/03/2023	15:11:46.883	0.00000E+0	0.00000E+0	-1.45104E+2	2.49960E-1	0.00000E+0	0.00000E+0	1.91397E+1	1.57792E+1	1.91400E+1	1.57789E+1
201	17/03/2023	15:11:48.454	0.00000E+0	0.00000E+0	2.02319E+2	3.78959E+0	0.00000E+0	0.00000E+0	2.40841E+1	1.08416E+1	2.40882E+1	1.08415E+1
202	17/03/2023	15:11:50.037	0.00000E+0	0.00000E+0	-2.22543E+2	-2.04638E+0	0.00000E+0	0.00000E+0	1.82484E+1	1.66364E+1	1.82484E+1	1.66369E+1
203	17/03/2023	15:11:51.554	0.00000E+0	0.00000E+0	-1.32262E+2	9.49965E-1	0.00000E+0	0.00000E+0	1.93085E+1	1.56439E+1	1.93090E+1	1.56436E+1
204	17/03/2023	15:11:53.134	0.00000E+0	0.00000E+0	2.04205E+2	1.58413E+0	0.00000E+0	0.00000E+0	2.41012E+1	1.08672E+1	2.41021E+1	1.08659E+1
205	17/03/2023	15:11:54.658	0.00000E+0	0.00000E+0	-2.06128E+2	-4.92521E+0	0.00000E+0	0.00000E+0	1.82750E+1	1.65596E+1	1.82752E+1	1.65591E+1
206	17/03/2023	15:11:56.223	0.00000E+0	0.00000E+0	-1.15360E+2	-9.14133E-1	0.00000E+0	0.00000E+0	1.94407E+1	1.54706E+1	1.94407E+1	1.54725E+1
207	17/03/2023	15:11:57.745	0.00000E+0	0.00000E+0	2.00283E+2	9.00598E-1	0.00000E+0	0.00000E+0	2.41180E+1	1.08078E+1	2.41173E+1	1.08069E+1
208	17/03/2023	15:11:59.315	0.00000E+0	0.00000E+0	-1.97551E+2	-3.26496E+0	0.00000E+0	0.00000E+0	1.84784E+1	1.64036E+1	1.84797E+1	1.64018E+1
209	17/03/2023	15:12:00.828	0.00000E+0	0.00000E+0	6.16184E+1	1.10790E-1	0.00000E+0	0.00000E+0	2.17108E+1	1.32367E+1	2.17118E+1	1.32360E+1
210	17/03/2023	15:12:02.354	0.00000E+0	0.00000E+0	1.69929E+2	2.29034E-1	0.00000E+0	0.00000E+0	2.37463E+1	1.12356E+1	2.37480E+1	1.12330E+1
211	17/03/2023	15:12:03.901	0.00000E+0	0.00000E+0	-1.88673E+2	-3.69661E+0	0.00000E+0	0.00000E+0	1.85819E+1	1.63444E+1	1.85820E+1	1.63437E+1
212	17/03/2023	15:12:05.432	0.00000E+0	0.00000E+0	-7.41040E+1	-2.16470E+0	0.00000E+0	0.00000E+0	1.99234E+1	1.49450E+1	1.99225E+1	1.49457E+1
213	17/03/2023	15:12:06.999	0.00000E+0	0.00000E+0	1.52811E+2	5.16110E-1	0.00000E+0	0.00000E+0	2.34774E+1	1.14853E+1	2.34777E+1	1.14842E+1
214	17/03/2023	15:12:08.588	0.00000E+0	0.00000E+0	-1.23396E+2	-1.20647E+0	0.00000E+0	0.00000E+0	1.94492E+1	1.54346E+1	1.94478E+1	1.54385E+1
215	17/03/2023	15:12:10.108	0.00000E+0	0.00000E+0	7.60942E+1	-4.03101E-1	0.00000E+0	0.00000E+0	2.20125E+1	1.28962E+1	2.20138E+1	1.28971E+1
216	17/03/2023	15:12:11.679	0.00000E+0	0.00000E+0	1.05111E+2	-9.78952E-1	0.00000E+0	0.00000E+0	2.28181E+1	1.21963E+1	2.28171E+1	1.21968E+1
217	17/03/2023	15:12:13.267	0.00000E+0	0.00000E+0	-1.39909E+2	5.59601E-1	0.00000E+0	0.00000E+0	1.93802E+1	1.55925E+1	1.93805E+1	1.55929E+1
218	17/03/2023	15:12:14.807	0.00000E+0	0.00000E+0	4.31237E+1	7.15533E-1	0.00000E+0	0.00000E+0	2.16774E+1	1.32658E+1	2.16795E+1	1.32649E+1
219	17/03/2023	15:12:16.361	0.00000E+0	0.00000E+0	1.29257E+2	8.89057E-1	0.00000E+0	0.00000E+0	2.30769E+1	1.19691E+1	2.30776E+1	1.19711E+1
220	17/03/2023	15:12:17.908	0.00000E+0	0.00000E+0	-2.06624E+2	-3.99801E+0	0.00000E+0	0.00000E+0	1.83245E+1	1.65603E+1	1.83246E+1	1.65598E+1
221	17/03/2023	15:12:19.453	0.00000E+0	0.00000E+0	-5.98908E+0	1.62356E+0	0.00000E+0	0.00000E+0	2.07047E+1	1.43073E+1	2.07057E+1	1.43097E+1
222	17/03/2023	15:12:20.977	0.00000E+0	0.00000E+0	1.81997E+2	-1.06974E+0	0.00000E+0	0.00000E+0	2.38531E+1	1.11610E+1	2.38546E+1	1.11642E+1
223	17/03/2023	15:12:22.569	0.00000E+0	0.00000E+0	-1.78539E+2	1.20380E+0	0.00000E+0	0.00000E+0	1.87254E+1	1.61920E+1	1.87270E+1	1.61938E+1
224	17/03/2023	15:12:24.129	0.00000E+0	0.00000E+0	6.51653E+1	4.92400E-1	0.00000E+0	0.00000E+0	2.17205E+1	1.32190E+1	2.17213E+1	1.32192E+1
225	17/03/2023	15:12:25.701	0.00000E+0	0.00000E+0	1.77727E+2	2.24697E-1	0.00000E+0	0.00000E+0	2.38373E+1	1.11849E+1	2.38373E+1	1.11846E+1
226	17/03/2023	15:12:27.223	0.00000E+0	0.00000E+0	-1.87172E+2	-4.69494E+0	0.00000E+0	0.00000E+0	1.85695E+1	1.62990E+1	1.85705E+1	1.63009E+1
227	17/03/2023	15:12:28.825	0.00000E+0	0.00000E+0	1.38006E+2	4.00744E+0	0.00000E+0	0.00000E+0	2.28920E+1	1.20244E+1	2.28905E+1	1.20261E+1
228	17/03/2023	15:12:30.394	0.00000E+0	0.00000E+0	1.74489E+2	-1.31523E+0	0.00000E+0	0.00000E+0	2.37626E+1	1.11995E+1	2.37614E+1	1.11983E+1
229	17/03/2023	15:12:31.977	0.00000E+0	0.00000E+0	-1.96390E+2	-4.84655E-1	0.00000E+0	0.00000E+0	1.84210E+1	1.64669E+1	1.84226E+1	1.64669E+1
230	17/03/2023	15:12:33.536	0.00000E+0	0.00000E+0	2.02011E+2	-2.28760E-3	0.00000E+0	0.00000E+0	2.39472E+1	1.10495E+1	2.39481E+1	1.10502E+1
231	17/03/2023	15:12:35.052	0.00000E+0	0.00000E+0	1.60097E+2	2.46956E+0	0.00000E+0	0.00000E+0	2.36259E+1	1.13077E+1	2.36258E+1	1.13096E+1
232	17/03/2023	15:12:36.660	0.00000E+0	0.00000E+0	-1.71654E+2	2.78411E-1	0.00000E+0	0.00000E+0	1.87901E+1	1.60962E+1	1.87902E+1	1.60975E+1
233	17/03/2023	15:12:38.233	0.00000E+0	0.00000E+0	2.29325E+2	3.33946E+0	0.00000E+0	0.00000E+0	2.44812E+1	1.05080E+1	2.44799E+1	1.05073E+1
234	17/03/2023	15:12:39.747	0.00000E+0	0.00000E+0	5.90339E+1	-3.52401E+0	0.00000E+0	0.00000E+0	2.25315E+1	1.24757E+1	2.25296E+1	1.24729E+1
235	17/03/2023	15:12:41.310	0.00000E+0	0.00000E+0	-1.64011E+2	-1.80983E+0	0.00000E+0	0.00000E+0	1.89947E+1	1.59381E+1	1.89961E+1	1.59386E+1
236	17/03/2023	15:12:42.845	0.00000E+0	0.00000E+0	2.34627E+2	1.29558E+0	0.00000E+0	0.00000E+0	2.45958E+1	1.03330E+1	2.45960E+1	1.03366E+1
237	17/03/2023	15:12:44.425	0.00000E+0	0.00000E+0	-1.33496E+2	-5.02733E-2	0.00000E+0	0.00000E+0	1.97047E+1	1.52942E+1	1.97043E+1	1.52938E+1
238	17/03/2023	15:12:46.015	0.00000E+0	0.00000E+0	-1.82616E+2	1.32853E-1	0.00000E+0	0.00000E+0	1.86414E+1	1.62921E+1	1.86402E+1	1.62940E+1
239	17/03/2023	15:12:47.536	0.00000E+0	0.00000E+0	2.16302E+2	2.09575E+0	0.00000E+0	0.00000E+0	2.43462E+1	1.07217E+1	2.43468E+1	1.07211E+1
240	17/03/2023	15:12:49.109	0.00000E+0	0.00000E+0	-1.81138E+2	-1.19057E+0	0.00000E+0	0.00000E+0	1.86196E+1	1.62757E+1	1.86230E+1	1.62761E+1
241	17/03/2023	15:12:50.613	0.00000E+0	0.00000E+0	-6.91178E+1	7.13503E-1	0.00000E+0	0.00000E+0	1.98509E+1	1.50060E+1	1.98522E+1	1.50048E+1
242	17/03/2023	15:12:52.176	0.00000E+0	0.00000E+0	1.77955E+2	-2.28616E-2	0.00000E+0	0.00000E+0	2.38002E+1	1.11844E+1	2.37983E+1	1.11849E+1
