#Iteration	Date	Time	RTPhase	NFringe	AccelAxis	AccelMean	AccelTemp
1	12/06/2023	16:57:57.472	4.94248610E+0	-2.51700000E+3	2.00000000E+0	-9.80612981E+0	7.22584900E+6
2	12/06/2023	16:57:59.151	3.86946654E-1	-2.51700000E+3	2.00000000E+0	-9.80612981E+0	7.22584900E+6
3	12/06/2023	16:58:00.915	1.60722837E+0	-2.51500000E+3	2.00000000E+0	-9.80612981E+0	7.22584900E+6
4	12/06/2023	16:58:02.766	1.86838860E+0	-2.49000000E+3	2.00000000E+0	-9.80612981E+0	7.22584900E+6
5	12/06/2023	16:58:04.624	5.12196185E+0	-2.38900000E+3	2.00000000E+0	-9.80612981E+0	7.22584900E+6
6	12/06/2023	16:58:06.494	1.47684000E+0	-2.27200000E+3	2.00000000E+0	-9.80612981E+0	7.22584900E+6
7	12/06/2023	16:58:08.312	4.01481122E+0	-2.19600000E+3	2.00000000E+0	-9.80612981E+0	7.22584900E+6
8	12/06/2023	16:58:10.156	4.35152000E+0	-2.18500000E+3	2.00000000E+0	-9.80612981E+0	7.22584900E+6
9	12/06/2023	16:58:12.084	3.30841306E+0	-2.27100000E+3	2.00000000E+0	-9.80612981E+0	7.22584900E+6
10	12/06/2023	16:58:14.018	3.05492274E+0	-2.38200000E+3	2.00000000E+0	-9.80612981E+0	7.22584900E+6
11	12/06/2023	16:58:15.900	5.66384056E+0	-2.40200000E+3	2.00000000E+0	-9.80612981E+0	7.22584900E+6
12	12/06/2023	16:58:17.664	4.34078213E+0	-2.44100000E+3	2.00000000E+0	-9.80612981E+0	7.22584900E+6
13	12/06/2023	16:58:19.438	1.87950996E+0	-2.48900000E+3	2.00000000E+0	-9.80612981E+0	7.22584900E+6
14	12/06/2023	16:58:21.221	4.25372872E+0	-2.49700000E+3	2.00000000E+0	-9.80612981E+0	7.22584900E+6
15	12/06/2023	16:58:22.889	4.50836954E+0	-2.51300000E+3	2.00000000E+0	-9.80612981E+0	7.22584900E+6
16	12/06/2023	16:58:24.668	2.62924307E+0	-2.51700000E+3	2.00000000E+0	-9.80612981E+0	7.22584900E+6
17	12/06/2023	16:58:26.659	6.17580665E+0	-2.51200000E+3	2.00000000E+0	-9.80612981E+0	7.22584900E+6
18	12/06/2023	16:58:28.507	2.72166541E+0	-2.42600000E+3	2.00000000E+0	-9.80612981E+0	7.22584900E+6
19	12/06/2023	16:58:30.418	6.27244744E+0	-2.21000000E+3	2.00000000E+0	-9.80612981E+0	7.22584900E+6
20	12/06/2023	16:58:32.284	2.51419451E+0	-2.17100000E+3	2.00000000E+0	-9.80612981E+0	7.22584900E+6
21	12/06/2023	16:58:34.124	4.46925303E+0	-2.37500000E+3	2.00000000E+0	-9.80612981E+0	7.22584900E+6
22	12/06/2023	16:58:36.055	3.99947141E+0	-2.51300000E+3	2.00000000E+0	-9.80612981E+0	7.22584900E+6
23	12/06/2023	16:58:37.944	5.27612692E+0	-2.51500000E+3	2.00000000E+0	-9.80612981E+0	7.22584900E+6
24	12/06/2023	16:58:39.723	3.81424323E+0	-2.51700000E+3	2.00000000E+0	-9.80612981E+0	7.22584900E+6
25	12/06/2023	16:58:41.506	5.01496669E+0	-2.51800000E+3	2.00000000E+0	-9.80612981E+0	7.22584900E+6
26	12/06/2023	16:58:43.269	5.21400070E+0	-2.51700000E+3	2.00000000E+0	-9.80612981E+0	7.22584900E+6
27	12/06/2023	16:58:45.130	1.95582550E-2	-2.51600000E+3	2.00000000E+0	-9.80612981E+0	7.22584900E+6
28	12/06/2023	16:58:46.923	5.34093761E+0	-2.50600000E+3	2.00000000E+0	-9.80612981E+0	7.22584900E+6
29	12/06/2023	16:58:48.806	4.85504919E+0	-2.51400000E+3	2.00000000E+0	-9.80612981E+0	7.22584900E+6
30	12/06/2023	16:58:50.719	2.78570911E+0	-2.41400000E+3	2.00000000E+0	-9.80612981E+0	7.22584900E+6
31	12/06/2023	16:58:52.559	6.18577753E-1	-2.25500000E+3	2.00000000E+0	-9.80612981E+0	7.22584900E+6
32	12/06/2023	16:58:54.483	2.14834009E+0	-2.42100000E+3	2.00000000E+0	-9.80612981E+0	7.22584900E+6
33	12/06/2023	16:58:56.385	3.96534034E+0	-2.39200000E+3	2.00000000E+0	-9.80612981E+0	7.22584900E+6
34	12/06/2023	16:58:58.205	2.36808284E+0	-2.19900000E+3	2.00000000E+0	-9.80612981E+0	7.22584900E+6
35	12/06/2023	16:59:00.146	2.14757310E-2	-2.40600000E+3	2.00000000E+0	-9.80612981E+0	7.22584900E+6
36	12/06/2023	16:59:01.968	1.19957298E+0	-2.50100000E+3	2.00000000E+0	-9.80612981E+0	7.22584900E+6
37	12/06/2023	16:59:03.841	3.13699071E+0	-2.50100000E+3	2.00000000E+0	-9.80612981E+0	7.22584900E+6
38	12/06/2023	16:59:05.644	1.70770411E+0	-2.46600000E+3	2.00000000E+0	-9.80612981E+0	7.22584900E+6
39	12/06/2023	16:59:07.415	2.35696148E+0	-2.35900000E+3	2.00000000E+0	-9.80612981E+0	7.22584900E+6
40	12/06/2023	16:59:09.422	4.88074337E+0	-2.44800000E+3	2.00000000E+0	-9.80612981E+0	7.22584900E+6
41	12/06/2023	16:59:11.263	4.49954915E+0	-2.47000000E+3	2.00000000E+0	-9.80612981E+0	7.22584900E+6
42	12/06/2023	16:59:13.127	3.12126741E+0	-2.39200000E+3	2.00000000E+0	-9.80612981E+0	7.22584900E+6
43	12/06/2023	16:59:14.968	1.45958272E+0	-2.25500000E+3	2.00000000E+0	-9.80612981E+0	7.22584900E+6
44	12/06/2023	16:59:16.857	7.97286515E-1	-2.17600000E+3	2.00000000E+0	-9.80612981E+0	7.22584900E+6
45	12/06/2023	16:59:18.770	1.15470404E+0	-2.30400000E+3	2.00000000E+0	-9.80612981E+0	7.22584900E+6
46	12/06/2023	16:59:20.637	3.27926743E+0	-2.43800000E+3	2.00000000E+0	-9.80612981E+0	7.22584900E+6
47	12/06/2023	16:59:22.366	5.10662204E+0	-2.50900000E+3	2.00000000E+0	-9.80612981E+0	7.22584900E+6
48	12/06/2023	16:59:24.161	3.20256839E+0	-2.51000000E+3	2.00000000E+0	-9.80612981E+0	7.22584900E+6
49	12/06/2023	16:59:25.884	2.77612173E+0	-2.51300000E+3	2.00000000E+0	-9.80612981E+0	7.22584900E+6
50	12/06/2023	16:59:27.614	1.90290317E+0	-2.50100000E+3	2.00000000E+0	-9.80612981E+0	7.22584900E+6
51	12/06/2023	16:59:29.515	2.27681098E+0	-2.42700000E+3	2.00000000E+0	-9.80612981E+0	7.22584900E+6
52	12/06/2023	16:59:31.416	1.36984484E+0	-2.23100000E+3	2.00000000E+0	-9.80612981E+0	7.22584900E+6
53	12/06/2023	16:59:33.373	3.16000042E-1	-2.05300000E+3	2.00000000E+0	-9.80612981E+0	7.22584900E+6
54	12/06/2023	16:59:35.263	4.51718993E+0	-1.99100000E+3	2.00000000E+0	-9.80612981E+0	7.22584900E+6
55	12/06/2023	16:59:37.105	2.76653435E+0	-2.10500000E+3	2.00000000E+0	-9.80612981E+0	7.22584900E+6
56	12/06/2023	16:59:39.105	3.45759270E+0	-2.30600000E+3	2.00000000E+0	-9.80612981E+0	7.22584900E+6
57	12/06/2023	16:59:41.064	3.49977717E+0	-2.40900000E+3	2.00000000E+0	-9.80612981E+0	7.22584900E+6
58	12/06/2023	16:59:43.032	3.90513159E+0	-2.47900000E+3	2.00000000E+0	-9.80612981E+0	7.22584900E+6
59	12/06/2023	16:59:44.847	4.60731130E+0	-2.50900000E+3	2.00000000E+0	-9.80612981E+0	7.22584900E+6
60	12/06/2023	16:59:46.645	1.15738850E+0	-2.52000000E+3	2.00000000E+0	-9.80612981E+0	7.22584900E+6
61	12/06/2023	16:59:48.483	6.04503479E+0	-2.52200000E+3	2.00000000E+0	-9.80612981E+0	7.22584900E+6
62	12/06/2023	16:59:50.256	8.61330212E-1	-2.51200000E+3	2.00000000E+0	-9.80612981E+0	7.22584900E+6
63	12/06/2023	16:59:52.051	8.91242838E-1	-2.49800000E+3	2.00000000E+0	-9.80612981E+0	7.22584900E+6
64	12/06/2023	16:59:54.092	1.29621377E+0	-2.47300000E+3	2.00000000E+0	-9.80612981E+0	7.22584900E+6
65	12/06/2023	16:59:55.982	1.01817975E+0	-2.42000000E+3	2.00000000E+0	-9.80612981E+0	7.22584900E+6
66	12/06/2023	16:59:57.996	5.27305896E+0	-2.36000000E+3	2.00000000E+0	-9.80612981E+0	7.22584900E+6
67	12/06/2023	16:59:59.915	3.86179663E-1	-2.28600000E+3	2.00000000E+0	-9.80612981E+0	7.22584900E+6
68	12/06/2023	17:00:01.826	1.66705362E+0	-2.22200000E+3	2.00000000E+0	-9.80612981E+0	7.22584900E+6
69	12/06/2023	17:00:03.831	5.07402495E+0	-2.13500000E+3	2.00000000E+0	-9.80612981E+0	7.22584900E+6
70	12/06/2023	17:00:05.751	1.47952447E+0	-2.17900000E+3	2.00000000E+0	-9.80612981E+0	7.22584900E+6
71	12/06/2023	17:00:07.605	1.79207306E+0	-2.24100000E+3	2.00000000E+0	-9.80612981E+0	7.22584900E+6
72	12/06/2023	17:00:09.606	2.97285477E+0	-2.34000000E+3	2.00000000E+0	-9.80612981E+0	7.22584900E+6
73	12/06/2023	17:00:11.522	6.05845712E+0	-2.42700000E+3	2.00000000E+0	-9.80612981E+0	7.22584900E+6
74	12/06/2023	17:00:13.354	2.43020906E+0	-2.48300000E+3	2.00000000E+0	-9.80612981E+0	7.22584900E+6
75	12/06/2023	17:00:15.089	3.90398111E-1	-2.49000000E+3	2.00000000E+0	-9.80612981E+0	7.22584900E+6
76	12/06/2023	17:00:16.964	4.47730642E+0	-2.50400000E+3	2.00000000E+0	-9.80612981E+0	7.22584900E+6
77	12/06/2023	17:00:18.947	4.60999576E+0	-2.51000000E+3	2.00000000E+0	-9.80612981E+0	7.22584900E+6
78	12/06/2023	17:00:20.862	2.75617998E+0	-2.52200000E+3	2.00000000E+0	-9.80612981E+0	7.22584900E+6
79	12/06/2023	17:00:22.750	2.59779646E+0	-2.46200000E+3	2.00000000E+0	-9.80612981E+0	7.22584900E+6
80	12/06/2023	17:00:24.736	4.45199574E+0	-2.42200000E+3	2.00000000E+0	-9.80612981E+0	7.22584900E+6
81	12/06/2023	17:00:26.656	2.61850520E+0	-2.27900000E+3	2.00000000E+0	-9.80612981E+0	7.22584900E+6
82	12/06/2023	17:00:28.658	5.20518031E+0	-2.09900000E+3	2.00000000E+0	-9.80612981E+0	7.22584900E+6
83	12/06/2023	17:00:30.502	3.99103451E+0	-1.96800000E+3	2.00000000E+0	-9.80612981E+0	7.22584900E+6
84	12/06/2023	17:00:32.271	2.52033043E+0	-2.16900000E+3	2.00000000E+0	-9.80612981E+0	7.22584900E+6
85	12/06/2023	17:00:34.197	1.96733036E+0	-2.31200000E+3	2.00000000E+0	-9.80612981E+0	7.22584900E+6
86	12/06/2023	17:00:35.928	3.59756844E+0	-2.43100000E+3	2.00000000E+0	-9.80612981E+0	7.22584900E+6
87	12/06/2023	17:00:37.730	2.38917508E-1	-2.50000000E+3	2.00000000E+0	-9.80612981E+0	7.22584900E+6
88	12/06/2023	17:00:39.633	4.55400546E+0	-2.51100000E+3	2.00000000E+0	-9.80612981E+0	7.22584900E+6
89	12/06/2023	17:00:41.560	3.16575285E+0	-2.51400000E+3	2.00000000E+0	-9.80612981E+0	7.22584900E+6
90	12/06/2023	17:00:43.515	1.24329143E+0	-2.50800000E+3	2.00000000E+0	-9.80612981E+0	7.22584900E+6
91	12/06/2023	17:00:45.436	2.05975270E+0	-2.49600000E+3	2.00000000E+0	-9.80612981E+0	7.22584900E+6
92	12/06/2023	17:00:47.370	5.98252507E-2	-2.45800000E+3	2.00000000E+0	-9.80612981E+0	7.22584900E+6
93	12/06/2023	17:00:49.371	2.28486438E+0	-2.34800000E+3	2.00000000E+0	-9.80612981E+0	7.22584900E+6
94	12/06/2023	17:00:51.244	5.75626291E-1	-2.19300000E+3	2.00000000E+0	-9.80612981E+0	7.22584900E+6
95	12/06/2023	17:00:53.152	1.30771862E+0	-2.18700000E+3	2.00000000E+0	-9.80612981E+0	7.22584900E+6
96	12/06/2023	17:00:54.919	3.63936942E-1	-2.33600000E+3	2.00000000E+0	-9.80612981E+0	7.22584900E+6
97	12/06/2023	17:00:56.751	6.13937461E+0	-2.42700000E+3	2.00000000E+0	-9.80612981E+0	7.22584900E+6
98	12/06/2023	17:00:58.555	1.71920897E+0	-2.49100000E+3	2.00000000E+0	-9.80612981E+0	7.22584900E+6
99	12/06/2023	17:01:00.239	2.38035469E+0	-2.51100000E+3	2.00000000E+0	-9.80612981E+0	7.22584900E+6
100	12/06/2023	17:01:02.223	3.41234026E+0	-2.50400000E+3	2.00000000E+0	-9.80612981E+0	7.22584900E+6
101	12/06/2023	17:01:04.243	4.43320448E-1	-2.51500000E+3	2.00000000E+0	-9.80612981E+0	7.22584900E+6
102	12/06/2023	17:01:06.165	5.53843763E+0	-2.52000000E+3	2.00000000E+0	-9.80612981E+0	7.22584900E+6
103	12/06/2023	17:01:08.165	5.91618040E+0	-2.48800000E+3	2.00000000E+0	-9.80612981E+0	7.22584900E+6
104	12/06/2023	17:01:10.071	4.63760742E+0	-2.45600000E+3	2.00000000E+0	-9.80612981E+0	7.22584900E+6
105	12/06/2023	17:01:11.939	5.55722890E+0	-2.32900000E+3	2.00000000E+0	-9.80612981E+0	7.22584900E+6
106	12/06/2023	17:01:13.938	5.57026774E+0	-2.19100000E+3	2.00000000E+0	-9.80612981E+0	7.22584900E+6
107	12/06/2023	17:01:15.784	3.16882081E+0	-2.09100000E+3	2.00000000E+0	-9.80612981E+0	7.22584900E+6
108	12/06/2023	17:01:17.686	3.93657820E+0	-2.23500000E+3	2.00000000E+0	-9.80612981E+0	7.22584900E+6
109	12/06/2023	17:01:19.455	1.08299044E+0	-2.36500000E+3	2.00000000E+0	-9.80612981E+0	7.22584900E+6
110	12/06/2023	17:01:21.197	1.98688862E+0	-2.43300000E+3	2.00000000E+0	-9.80612981E+0	7.22584900E+6
111	12/06/2023	17:01:23.024	4.54058313E+0	-2.49800000E+3	2.00000000E+0	-9.80612981E+0	7.22584900E+6
112	12/06/2023	17:01:24.982	1.76062645E+0	-2.51400000E+3	2.00000000E+0	-9.80612981E+0	7.22584900E+6
113	12/06/2023	17:01:26.821	6.05423867E+0	-2.51900000E+3	2.00000000E+0	-9.80612981E+0	7.22584900E+6
114	12/06/2023	17:01:28.739	3.35059754E+0	-2.49800000E+3	2.00000000E+0	-9.80612981E+0	7.22584900E+6
115	12/06/2023	17:01:30.666	2.15064106E+0	-2.49500000E+3	2.00000000E+0	-9.80612981E+0	7.22584900E+6
116	12/06/2023	17:01:32.645	1.72956334E-1	-2.44000000E+3	2.00000000E+0	-9.80612981E+0	7.22584900E+6
117	12/06/2023	17:01:34.590	6.02509304E+0	-2.33100000E+3	2.00000000E+0	-9.80612981E+0	7.22584900E+6
118	12/06/2023	17:01:36.510	3.13775770E+0	-2.15300000E+3	2.00000000E+0	-9.80612981E+0	7.22584900E+6
119	12/06/2023	17:01:38.527	3.71338399E+0	-2.11700000E+3	2.00000000E+0	-9.80612981E+0	7.22584900E+6
120	12/06/2023	17:01:40.299	6.56927272E-1	-2.28600000E+3	2.00000000E+0	-9.80612981E+0	7.22584900E+6
121	12/06/2023	17:01:42.220	3.62633058E+0	-2.42000000E+3	2.00000000E+0	-9.80612981E+0	7.22584900E+6
122	12/06/2023	17:01:43.948	4.08115589E+0	-2.48900000E+3	2.00000000E+0	-9.80612981E+0	7.22584900E+6
123	12/06/2023	17:01:45.678	6.21837462E+0	-2.51000000E+3	2.00000000E+0	-9.80612981E+0	7.22584900E+6
124	12/06/2023	17:01:47.699	5.78234058E+0	-2.52700000E+3	2.00000000E+0	-9.80612981E+0	7.22584900E+6
125	12/06/2023	17:01:49.609	4.20349085E+0	-2.50300000E+3	2.00000000E+0	-9.80612981E+0	7.22584900E+6
126	12/06/2023	17:01:51.527	5.03337446E+0	-2.44300000E+3	2.00000000E+0	-9.80612981E+0	7.22584900E+6
127	12/06/2023	17:01:53.564	2.82827708E+0	-2.26600000E+3	2.00000000E+0	-9.80612981E+0	7.22584900E+6
128	12/06/2023	17:01:55.443	3.17764120E+0	-2.14100000E+3	2.00000000E+0	-9.80612981E+0	7.22584900E+6
129	12/06/2023	17:01:57.423	4.55170449E+0	-2.29000000E+3	2.00000000E+0	-9.80612981E+0	7.22584900E+6
130	12/06/2023	17:01:59.322	3.76668982E+0	-2.43100000E+3	2.00000000E+0	-9.80612981E+0	7.22584900E+6
131	12/06/2023	17:02:01.209	3.52815581E-1	-2.49900000E+3	2.00000000E+0	-9.80612981E+0	7.22584900E+6
132	12/06/2023	17:02:03.177	3.62556359E+0	-2.51600000E+3	2.00000000E+0	-9.80612981E+0	7.22584900E+6
133	12/06/2023	17:02:05.043	3.13200527E+0	-2.50100000E+3	2.00000000E+0	-9.80612981E+0	7.22584900E+6
134	12/06/2023	17:02:06.852	4.10800055E+0	-2.51900000E+3	2.00000000E+0	-9.80612981E+0	7.22584900E+6
135	12/06/2023	17:02:08.760	1.33954872E+0	-2.47600000E+3	2.00000000E+0	-9.80612981E+0	7.22584900E+6
136	12/06/2023	17:02:10.604	5.01611718E+0	-2.35800000E+3	2.00000000E+0	-9.80612981E+0	7.22584900E+6
137	12/06/2023	17:02:12.534	3.28501986E+0	-2.14900000E+3	2.00000000E+0	-9.80612981E+0	7.22584900E+6
138	12/06/2023	17:02:14.463	3.95076752E+0	-2.29800000E+3	2.00000000E+0	-9.80612981E+0	7.22584900E+6
139	12/06/2023	17:02:16.355	3.19988392E+0	-2.48300000E+3	2.00000000E+0	-9.80612981E+0	7.22584900E+6
140	12/06/2023	17:02:18.382	3.43266551E+0	-2.51000000E+3	2.00000000E+0	-9.80612981E+0	7.22584900E+6
141	12/06/2023	17:02:20.295	6.03007848E+0	-2.51600000E+3	2.00000000E+0	-9.80612981E+0	7.22584900E+6
142	12/06/2023	17:02:22.276	9.93252560E-1	-2.43500000E+3	2.00000000E+0	-9.80612981E+0	7.22584900E+6
143	12/06/2023	17:02:24.214	3.43995192E+0	-2.18800000E+3	2.00000000E+0	-9.80612981E+0	7.22584900E+6
144	12/06/2023	17:02:26.032	1.17771375E+0	-2.16800000E+3	2.00000000E+0	-9.80612981E+0	7.22584900E+6
145	12/06/2023	17:02:27.922	3.13699071E+0	-2.39400000E+3	2.00000000E+0	-9.80612981E+0	7.22584900E+6
146	12/06/2023	17:02:29.665	1.20877686E+0	-2.50400000E+3	2.00000000E+0	-9.80612981E+0	7.22584900E+6
147	12/06/2023	17:02:31.395	6.23946685E-1	-2.49900000E+3	2.00000000E+0	-9.80612981E+0	7.22584900E+6
148	12/06/2023	17:02:33.329	2.97592273E+0	-2.50100000E+3	2.00000000E+0	-9.80612981E+0	7.22584900E+6
149	12/06/2023	17:02:35.183	1.15470404E+0	-2.34900000E+3	2.00000000E+0	-9.80612981E+0	7.22584900E+6
150	12/06/2023	17:02:37.169	3.39469948E+0	-2.10900000E+3	2.00000000E+0	-9.80612981E+0	7.22584900E+6
151	12/06/2023	17:02:39.049	2.31401002E+0	-2.23100000E+3	2.00000000E+0	-9.80612981E+0	7.22584900E+6
152	12/06/2023	17:02:40.932	4.98850552E+0	-2.38000000E+3	2.00000000E+0	-9.80612981E+0	7.22584900E+6
153	12/06/2023	17:02:42.922	6.51941835E-3	-2.48000000E+3	2.00000000E+0	-9.80612981E+0	7.22584900E+6
154	12/06/2023	17:02:44.853	1.09027684E+0	-2.48200000E+3	2.00000000E+0	-9.80612981E+0	7.22584900E+6
155	12/06/2023	17:02:46.790	4.16590832E+0	-2.41300000E+3	2.00000000E+0	-9.80612981E+0	7.22584900E+6
156	12/06/2023	17:02:48.557	2.30212167E+0	-2.12700000E+3	2.00000000E+0	-9.80612981E+0	7.22584900E+6
157	12/06/2023	17:02:50.309	3.98758306E+0	-2.19200000E+3	2.00000000E+0	-9.80612981E+0	7.22584900E+6
158	12/06/2023	17:02:52.305	3.14351013E+0	-2.41200000E+3	2.00000000E+0	-9.80612981E+0	7.22584900E+6
159	12/06/2023	17:02:54.046	6.61912710E-1	-2.50400000E+3	2.00000000E+0	-9.80612981E+0	7.22584900E+6
160	12/06/2023	17:02:55.887	4.75227248E+0	-2.51000000E+3	2.00000000E+0	-9.80612981E+0	7.22584900E+6
161	12/06/2023	17:02:57.890	9.77529257E-1	-2.51500000E+3	2.00000000E+0	-9.80612981E+0	7.22584900E+6
162	12/06/2023	17:02:59.804	4.63760742E+0	-2.47400000E+3	2.00000000E+0	-9.80612981E+0	7.22584900E+6
163	12/06/2023	17:03:01.786	1.13361180E+0	-2.30900000E+3	2.00000000E+0	-9.80612981E+0	7.22584900E+6
164	12/06/2023	17:03:03.652	1.39438854E+0	-2.11800000E+3	2.00000000E+0	-9.80612981E+0	7.22584900E+6
165	12/06/2023	17:03:05.508	3.45912668E+0	-2.12500000E+3	2.00000000E+0	-9.80612981E+0	7.22584900E+6
166	12/06/2023	17:03:07.516	2.74199066E+0	-2.39400000E+3	2.00000000E+0	-9.80612981E+0	7.22584900E+6
167	12/06/2023	17:03:09.490	2.42867508E+0	-2.49800000E+3	2.00000000E+0	-9.80612981E+0	7.22584900E+6
168	12/06/2023	17:03:11.269	1.22104871E+0	-2.51500000E+3	2.00000000E+0	-9.80612981E+0	7.22584900E+6
169	12/06/2023	17:03:13.116	2.63844696E-1	-2.50700000E+3	2.00000000E+0	-9.80612981E+0	7.22584900E+6
170	12/06/2023	17:03:14.959	1.93319929E+0	-2.51500000E+3	2.00000000E+0	-9.80612981E+0	7.22584900E+6
171	12/06/2023	17:03:16.837	4.96894727E+0	-2.45500000E+3	2.00000000E+0	-9.80612981E+0	7.22584900E+6
172	12/06/2023	17:03:18.770	8.27582635E-1	-2.28100000E+3	2.00000000E+0	-9.80612981E+0	7.22584900E+6
173	12/06/2023	17:03:20.627	3.89170926E+0	-2.08000000E+3	2.00000000E+0	-9.80612981E+0	7.22584900E+6
174	12/06/2023	17:03:22.616	1.54165069E-1	-2.13700000E+3	2.00000000E+0	-9.80612981E+0	7.22584900E+6
175	12/06/2023	17:03:24.498	5.08514631E-1	-2.38900000E+3	2.00000000E+0	-9.80612981E+0	7.22584900E+6
176	12/06/2023	17:03:26.462	1.24827687E+0	-2.45900000E+3	2.00000000E+0	-9.80612981E+0	7.22584900E+6
177	12/06/2023	17:03:28.413	4.78985501E+0	-2.49200000E+3	2.00000000E+0	-9.80612981E+0	7.22584900E+6
178	12/06/2023	17:03:30.293	5.67764639E+0	-2.51800000E+3	2.00000000E+0	-9.80612981E+0	7.22584900E+6
179	12/06/2023	17:03:32.256	4.12180638E+0	-2.50500000E+3	2.00000000E+0	-9.80612981E+0	7.22584900E+6
180	12/06/2023	17:03:34.146	3.76975779E+0	-2.51400000E+3	2.00000000E+0	-9.80612981E+0	7.22584900E+6
181	12/06/2023	17:03:35.915	2.90689359E+0	-2.50500000E+3	2.00000000E+0	-9.80612981E+0	7.22584900E+6
182	12/06/2023	17:03:37.732	1.40934485E+0	-2.49200000E+3	2.00000000E+0	-9.80612981E+0	7.22584900E+6
183	12/06/2023	17:03:39.489	4.04203938E+0	-2.47800000E+3	2.00000000E+0	-9.80612981E+0	7.22584900E+6
184	12/06/2023	17:03:41.450	2.50805859E+0	-2.42800000E+3	2.00000000E+0	-9.80612981E+0	7.22584900E+6
185	12/06/2023	17:03:43.332	2.92760233E+0	-2.33100000E+3	2.00000000E+0	-9.80612981E+0	7.22584900E+6
186	12/06/2023	17:03:45.256	2.93757321E+0	-2.16700000E+3	2.00000000E+0	-9.80612981E+0	7.22584900E+6
187	12/06/2023	17:03:47.514	3.19604897E+0	-2.05200000E+3	2.00000000E+0	-9.80612981E+0	7.22584900E+6
188	12/06/2023	17:03:49.435	6.74568051E-1	-2.18700000E+3	2.00000000E+0	-9.80612981E+0	7.22584900E+6
189	12/06/2023	17:03:51.431	5.87131147E+0	-2.30700000E+3	2.00000000E+0	-9.80612981E+0	7.22584900E+6
190	12/06/2023	17:03:53.440	5.29108323E+0	-2.44200000E+3	2.00000000E+0	-9.80612981E+0	7.22584900E+6
191	12/06/2023	17:03:55.222	2.22580612E+0	-2.51300000E+3	2.00000000E+0	-9.80612981E+0	7.22584900E+6
192	12/06/2023	17:03:57.173	4.09035977E+0	-2.51400000E+3	2.00000000E+0	-9.80612981E+0	7.22584900E+6
193	12/06/2023	17:03:59.012	4.38104913E+0	-2.51100000E+3	2.00000000E+0	-9.80612981E+0	7.22584900E+6
194	12/06/2023	17:04:00.887	4.13331123E+0	-2.47900000E+3	2.00000000E+0	-9.80612981E+0	7.22584900E+6
195	12/06/2023	17:04:02.714	5.04334534E+0	-2.40700000E+3	2.00000000E+0	-9.80612981E+0	7.22584900E+6
196	12/06/2023	17:04:04.637	2.13031582E+0	-2.30100000E+3	2.00000000E+0	-9.80612981E+0	7.22584900E+6
197	12/06/2023	17:04:06.557	5.08552981E+0	-2.21000000E+3	2.00000000E+0	-9.80612981E+0	7.22584900E+6
198	12/06/2023	17:04:08.462	4.89685017E+0	-2.10200000E+3	2.00000000E+0	-9.80612981E+0	7.22584900E+6
199	12/06/2023	17:04:10.397	6.23102996E+0	-2.23000000E+3	2.00000000E+0	-9.80612981E+0	7.22584900E+6
200	12/06/2023	17:04:12.401	1.85189831E+0	-2.43400000E+3	2.00000000E+0	-9.80612981E+0	7.22584900E+6
201	12/06/2023	17:04:14.329	3.83456847E+0	-2.50700000E+3	2.00000000E+0	-9.80612981E+0	7.22584900E+6
202	12/06/2023	17:04:16.240	2.45935470E+0	-2.51300000E+3	2.00000000E+0	-9.80612981E+0	7.22584900E+6
203	12/06/2023	17:04:18.110	1.44155845E+0	-2.51400000E+3	2.00000000E+0	-9.80612981E+0	7.22584900E+6
204	12/06/2023	17:04:19.861	4.30626757E+0	-2.51600000E+3	2.00000000E+0	-9.80612981E+0	7.22584900E+6
205	12/06/2023	17:04:21.693	4.18009765E+0	-2.52300000E+3	2.00000000E+0	-9.80612981E+0	7.22584900E+6
206	12/06/2023	17:04:23.524	1.68124294E+0	-2.49100000E+3	2.00000000E+0	-9.80612981E+0	7.22584900E+6
207	12/06/2023	17:04:25.351	3.40198589E+0	-2.46800000E+3	2.00000000E+0	-9.80612981E+0	7.22584900E+6
208	12/06/2023	17:04:27.355	5.53000074E+0	-2.38600000E+3	2.00000000E+0	-9.80612981E+0	7.22584900E+6
209	12/06/2023	17:04:29.242	3.35174802E-1	-2.28400000E+3	2.00000000E+0	-9.80612981E+0	7.22584900E+6
210	12/06/2023	17:04:31.201	3.37667521E+0	-2.17100000E+3	2.00000000E+0	-9.80612981E+0	7.22584900E+6
211	12/06/2023	17:04:33.075	1.63867498E+0	-2.09800000E+3	2.00000000E+0	-9.80612981E+0	7.22584900E+6
212	12/06/2023	17:04:34.989	5.63699590E+0	-2.26100000E+3	2.00000000E+0	-9.80612981E+0	7.22584900E+6
213	12/06/2023	17:04:36.963	2.43059256E+0	-2.40700000E+3	2.00000000E+0	-9.80612981E+0	7.22584900E+6
214	12/06/2023	17:04:38.885	3.15846644E+0	-2.45000000E+3	2.00000000E+0	-9.80612981E+0	7.22584900E+6
215	12/06/2023	17:04:40.727	3.01043730E+0	-2.48900000E+3	2.00000000E+0	-9.80612981E+0	7.22584900E+6
216	12/06/2023	17:04:42.725	4.92292784E+0	-2.50800000E+3	2.00000000E+0	-9.80612981E+0	7.22584900E+6
217	12/06/2023	17:04:44.513	3.99678694E+0	-2.52300000E+3	2.00000000E+0	-9.80612981E+0	7.22584900E+6
218	12/06/2023	17:04:46.630	3.39623346E+0	-2.51700000E+3	2.00000000E+0	-9.80612981E+0	7.22584900E+6
219	12/06/2023	17:04:48.404	4.29092776E+0	-2.51700000E+3	2.00000000E+0	-9.80612981E+0	7.22584900E+6
220	12/06/2023	17:04:50.303	2.30058769E+0	-2.53000000E+3	2.00000000E+0	-9.80612981E+0	7.22584900E+6
221	12/06/2023	17:04:52.304	3.79545196E+0	-2.44700000E+3	2.00000000E+0	-9.80612981E+0	7.22584900E+6
222	12/06/2023	17:04:54.268	3.15769945E+0	-2.33000000E+3	2.00000000E+0	-9.80612981E+0	7.22584900E+6
223	12/06/2023	17:04:56.162	4.90106862E-1	-2.19600000E+3	2.00000000E+0	-9.80612981E+0	7.22584900E+6
224	12/06/2023	17:04:58.097	8.21830207E-1	-2.18200000E+3	2.00000000E+0	-9.80612981E+0	7.22584900E+6
225	12/06/2023	17:04:59.987	1.83694199E-1	-2.20700000E+3	2.00000000E+0	-9.80612981E+0	7.22584900E+6
226	12/06/2023	17:05:01.970	5.20671429E+0	-2.26100000E+3	2.00000000E+0	-9.80612981E+0	7.22584900E+6
227	12/06/2023	17:05:03.902	4.98697154E+0	-2.32900000E+3	2.00000000E+0	-9.80612981E+0	7.22584900E+6
228	12/06/2023	17:05:05.868	2.22542263E+0	-2.38700000E+3	2.00000000E+0	-9.80612981E+0	7.22584900E+6
229	12/06/2023	17:05:07.826	2.66184016E+0	-2.40900000E+3	2.00000000E+0	-9.80612981E+0	7.22584900E+6
230	12/06/2023	17:05:09.721	4.77758316E+0	-2.43800000E+3	2.00000000E+0	-9.80612981E+0	7.22584900E+6
231	12/06/2023	17:05:11.547	2.95406350E+0	-2.44500000E+3	2.00000000E+0	-9.80612981E+0	7.22584900E+6
232	12/06/2023	17:05:13.419	7.94985543E-1	-2.47800000E+3	2.00000000E+0	-9.80612981E+0	7.22584900E+6
233	12/06/2023	17:05:15.434	4.92983076E+0	-2.48700000E+3	2.00000000E+0	-9.80612981E+0	7.22584900E+6
234	12/06/2023	17:05:17.412	4.73002976E+0	-2.49200000E+3	2.00000000E+0	-9.80612981E+0	7.22584900E+6
235	12/06/2023	17:05:19.346	1.05806325E+0	-2.49900000E+3	2.00000000E+0	-9.80612981E+0	7.22584900E+6
236	12/06/2023	17:05:21.274	4.00982578E+0	-2.50300000E+3	2.00000000E+0	-9.80612981E+0	7.22584900E+6
237	12/06/2023	17:05:23.277	2.30979157E+0	-2.50900000E+3	2.00000000E+0	-9.80612981E+0	7.22584900E+6
238	12/06/2023	17:05:25.195	4.37759767E+0	-2.51300000E+3	2.00000000E+0	-9.80612981E+0	7.22584900E+6
239	12/06/2023	17:05:27.060	3.22711208E+0	-2.50900000E+3	2.00000000E+0	-9.80612981E+0	7.22584900E+6
240	12/06/2023	17:05:28.822	5.62932600E+0	-2.51000000E+3	2.00000000E+0	-9.80612981E+0	7.22584900E+6
241	12/06/2023	17:05:30.742	4.35880641E+0	-2.51600000E+3	2.00000000E+0	-9.80612981E+0	7.22584900E+6
242	12/06/2023	17:05:32.639	5.72980174E+0	-2.51600000E+3	2.00000000E+0	-9.80612981E+0	7.22584900E+6
243	12/06/2023	17:05:34.391	5.90966099E-1	-2.51600000E+3	2.00000000E+0	-9.80612981E+0	7.22584900E+6
244	12/06/2023	17:05:36.726	8.75136039E-1	-2.51200000E+3	2.00000000E+0	-9.80612981E+0	7.22584900E+6
245	12/06/2023	17:05:38.650	3.78202963E+0	-2.50500000E+3	2.00000000E+0	-9.80612981E+0	7.22584900E+6
246	12/06/2023	17:05:40.565	5.65770464E+0	-2.49300000E+3	2.00000000E+0	-9.80612981E+0	7.22584900E+6
247	12/06/2023	17:05:42.578	5.83718039E+0	-2.48900000E+3	2.00000000E+0	-9.80612981E+0	7.22584900E+6
248	12/06/2023	17:05:44.474	1.33571377E+0	-2.46500000E+3	2.00000000E+0	-9.80612981E+0	7.22584900E+6
249	12/06/2023	17:05:46.401	6.20380180E+0	-2.43500000E+3	2.00000000E+0	-9.80612981E+0	7.22584900E+6
250	12/06/2023	17:05:48.409	5.13423370E+0	-2.40400000E+3	2.00000000E+0	-9.80612981E+0	7.22584900E+6
251	12/06/2023	17:05:50.398	2.83978193E+0	-2.35400000E+3	2.00000000E+0	-9.80612981E+0	7.22584900E+6
252	12/06/2023	17:05:52.532	2.88771883E-1	-2.29500000E+3	2.00000000E+0	-9.80612981E+0	7.22584900E+6
253	12/06/2023	17:05:54.305	4.96741329E+0	-2.27100000E+3	2.00000000E+0	-9.80612981E+0	7.22584900E+6
254	12/06/2023	17:05:56.052	8.15310789E-1	-2.20500000E+3	2.00000000E+0	-9.80612981E+0	7.22584900E+6
255	12/06/2023	17:05:57.855	2.71591298E+0	-2.16100000E+3	2.00000000E+0	-9.80612981E+0	7.22584900E+6
256	12/06/2023	17:05:59.631	1.13054384E+0	-2.12300000E+3	2.00000000E+0	-9.80612981E+0	7.22584900E+6
257	12/06/2023	17:06:01.551	3.49824319E+0	-2.17100000E+3	2.00000000E+0	-9.80612981E+0	7.22584900E+6
258	12/06/2023	17:06:03.470	2.89423825E+0	-2.19500000E+3	2.00000000E+0	-9.80612981E+0	7.22584900E+6
259	12/06/2023	17:06:05.348	3.23209752E+0	-2.21800000E+3	2.00000000E+0	-9.80612981E+0	7.22584900E+6
260	12/06/2023	17:06:07.380	4.88841328E+0	-2.24500000E+3	2.00000000E+0	-9.80612981E+0	7.22584900E+6
261	12/06/2023	17:06:09.251	5.25043274E+0	-2.28300000E+3	2.00000000E+0	-9.80612981E+0	7.22584900E+6
262	12/06/2023	17:06:11.164	5.89700564E+0	-2.31000000E+3	2.00000000E+0	-9.80612981E+0	7.22584900E+6
263	12/06/2023	17:06:13.165	5.44754927E+0	-2.38500000E+3	2.00000000E+0	-9.80612981E+0	7.22584900E+6
264	12/06/2023	17:06:15.093	6.07839887E+0	-2.44200000E+3	2.00000000E+0	-9.80612981E+0	7.22584900E+6
265	12/06/2023	17:06:16.956	2.80334989E+0	-2.48700000E+3	2.00000000E+0	-9.80612981E+0	7.22584900E+6
266	12/06/2023	17:06:18.706	1.51480603E+0	-2.50300000E+3	2.00000000E+0	-9.80612981E+0	7.22584900E+6
267	12/06/2023	17:06:20.515	5.50814151E+0	-2.50800000E+3	2.00000000E+0	-9.80612981E+0	7.22584900E+6
268	12/06/2023	17:06:22.349	9.80213723E-1	-2.51800000E+3	2.00000000E+0	-9.80612981E+0	7.22584900E+6
269	12/06/2023	17:06:24.235	1.22718463E+0	-2.50900000E+3	2.00000000E+0	-9.80612981E+0	7.22584900E+6
270	12/06/2023	17:06:26.163	6.02202508E+0	-2.51500000E+3	2.00000000E+0	-9.80612981E+0	7.22584900E+6
271	12/06/2023	17:06:28.178	4.53866566E+0	-2.42700000E+3	2.00000000E+0	-9.80612981E+0	7.22584900E+6
272	12/06/2023	17:06:30.081	1.84883034E+0	-2.12100000E+3	2.00000000E+0	-9.80612981E+0	7.22584900E+6
273	12/06/2023	17:06:32.052	2.45705373E+0	-2.34600000E+3	2.00000000E+0	-9.80612981E+0	7.22584900E+6
274	12/06/2023	17:06:33.934	3.85987916E+0	-2.50900000E+3	2.00000000E+0	-9.80612981E+0	7.22584900E+6
275	12/06/2023	17:06:35.857	1.69466528E+0	-2.50500000E+3	2.00000000E+0	-9.80612981E+0	7.22584900E+6
276	12/06/2023	17:06:37.897	4.79599093E+0	-2.48900000E+3	2.00000000E+0	-9.80612981E+0	7.22584900E+6
277	12/06/2023	17:06:39.649	7.17136018E-1	-2.27600000E+3	2.00000000E+0	-9.80612981E+0	7.22584900E+6
278	12/06/2023	17:06:41.471	6.27743288E+0	-2.09000000E+3	2.00000000E+0	-9.80612981E+0	7.22584900E+6
279	12/06/2023	17:06:43.219	4.97048125E+0	-2.36500000E+3	2.00000000E+0	-9.80612981E+0	7.22584900E+6
280	12/06/2023	17:06:44.951	4.50069963E+0	-2.50900000E+3	2.00000000E+0	-9.80612981E+0	7.22584900E+6
281	12/06/2023	17:06:46.976	1.55430603E+0	-2.51600000E+3	2.00000000E+0	-9.80612981E+0	7.22584900E+6
282	12/06/2023	17:06:48.895	4.16744231E+0	-2.36900000E+3	2.00000000E+0	-9.80612981E+0	7.22584900E+6
283	12/06/2023	17:06:50.815	1.97538376E+0	-2.06800000E+3	2.00000000E+0	-9.80612981E+0	7.22584900E+6
284	12/06/2023	17:06:52.810	3.88749081E+0	-2.40400000E+3	2.00000000E+0	-9.80612981E+0	7.22584900E+6
285	12/06/2023	17:06:54.738	4.14941803E+0	-2.50800000E+3	2.00000000E+0	-9.80612981E+0	7.22584900E+6
286	12/06/2023	17:06:56.681	5.92116584E-1	-2.50900000E+3	2.00000000E+0	-9.80612981E+0	7.22584900E+6
287	12/06/2023	17:06:58.584	2.12878184E+0	-2.28000000E+3	2.00000000E+0	-9.80612981E+0	7.22584900E+6
288	12/06/2023	17:07:00.507	2.99969943E+0	-2.08500000E+3	2.00000000E+0	-9.80612981E+0	7.22584900E+6
289	12/06/2023	17:07:02.424	4.84354434E+0	-2.47600000E+3	2.00000000E+0	-9.80612981E+0	7.22584900E+6
290	12/06/2023	17:07:04.202	6.06651052E+0	-2.51000000E+3	2.00000000E+0	-9.80612981E+0	7.22584900E+6
291	12/06/2023	17:07:05.974	4.93366571E+0	-2.47800000E+3	2.00000000E+0	-9.80612981E+0	7.22584900E+6
292	12/06/2023	17:07:07.771	3.35481598E+0	-2.21200000E+3	2.00000000E+0	-9.80612981E+0	7.22584900E+6
293	12/06/2023	17:07:09.690	4.58200061E+0	-2.18000000E+3	2.00000000E+0	-9.80612981E+0	7.22584900E+6
294	12/06/2023	17:07:11.737	1.13131083E+0	-2.47200000E+3	2.00000000E+0	-9.80612981E+0	7.22584900E+6
295	12/06/2023	17:07:13.626	3.63208301E+0	-2.50800000E+3	2.00000000E+0	-9.80612981E+0	7.22584900E+6
296	12/06/2023	17:07:15.523	1.29314580E+0	-2.47900000E+3	2.00000000E+0	-9.80612981E+0	7.22584900E+6
297	12/06/2023	17:07:17.557	5.58253958E+0	-2.16500000E+3	2.00000000E+0	-9.80612981E+0	7.22584900E+6
298	12/06/2023	17:07:19.468	5.04641330E+0	-2.21100000E+3	2.00000000E+0	-9.80612981E+0	7.22584900E+6
299	12/06/2023	17:07:21.409	3.58913155E+0	-2.49300000E+3	2.00000000E+0	-9.80612981E+0	7.22584900E+6
300	12/06/2023	17:07:23.425	4.34653456E+0	-2.51900000E+3	2.00000000E+0	-9.80612981E+0	7.22584900E+6
301	12/06/2023	17:07:25.163	2.23309253E+0	-2.43300000E+3	2.00000000E+0	-9.80612981E+0	7.22584900E+6
302	12/06/2023	17:07:27.002	5.44409782E+0	-2.10900000E+3	2.00000000E+0	-9.80612981E+0	7.22584900E+6
303	12/06/2023	17:07:28.908	5.08361233E+0	-2.34100000E+3	2.00000000E+0	-9.80612981E+0	7.22584900E+6
304	12/06/2023	17:07:30.663	2.57478675E+0	-2.51700000E+3	2.00000000E+0	-9.80612981E+0	7.22584900E+6
305	12/06/2023	17:07:32.670	5.60286483E+0	-2.50400000E+3	2.00000000E+0	-9.80612981E+0	7.22584900E+6
306	12/06/2023	17:07:34.539	6.22566103E+0	-2.45100000E+3	2.00000000E+0	-9.80612981E+0	7.22584900E+6
307	12/06/2023	17:07:36.448	1.65171381E+0	-2.12500000E+3	2.00000000E+0	-9.80612981E+0	7.22584900E+6
308	12/06/2023	17:07:38.368	2.49655373E+0	-2.31700000E+3	2.00000000E+0	-9.80612981E+0	7.22584900E+6
309	12/06/2023	17:07:40.229	9.69475858E-1	-2.50900000E+3	2.00000000E+0	-9.80612981E+0	7.22584900E+6
310	12/06/2023	17:07:42.248	5.28341333E+0	-2.51800000E+3	2.00000000E+0	-9.80612981E+0	7.22584900E+6
311	12/06/2023	17:07:44.168	4.02746656E+0	-2.49200000E+3	2.00000000E+0	-9.80612981E+0	7.22584900E+6
312	12/06/2023	17:07:46.082	1.85189831E+0	-2.25300000E+3	2.00000000E+0	-9.80612981E+0	7.22584900E+6
313	12/06/2023	17:07:47.919	1.70271867E-1	-2.09300000E+3	2.00000000E+0	-9.80612981E+0	7.22584900E+6
314	12/06/2023	17:07:49.800	2.31132555E+0	-2.41000000E+3	2.00000000E+0	-9.80612981E+0	7.22584900E+6
315	12/06/2023	17:07:51.649	8.43689433E-2	-2.51600000E+3	2.00000000E+0	-9.80612981E+0	7.22584900E+6
316	12/06/2023	17:07:53.357	4.87038900E+0	-2.50200000E+3	2.00000000E+0	-9.80612981E+0	7.22584900E+6
317	12/06/2023	17:07:55.271	4.04012190E+0	-2.48500000E+3	2.00000000E+0	-9.80612981E+0	7.22584900E+6
318	12/06/2023	17:07:57.259	2.27987895E+0	-2.18900000E+3	2.00000000E+0	-9.80612981E+0	7.22584900E+6
319	12/06/2023	17:07:59.156	5.76239883E+0	-2.26100000E+3	2.00000000E+0	-9.80612981E+0	7.22584900E+6
320	12/06/2023	17:08:01.107	1.17081084E+0	-2.49700000E+3	2.00000000E+0	-9.80612981E+0	7.22584900E+6
321	12/06/2023	17:08:03.028	6.10562703E+0	-2.45800000E+3	2.00000000E+0	-9.80612981E+0	7.22584900E+6
322	12/06/2023	17:08:04.884	1.62295167E+0	-2.49500000E+3	2.00000000E+0	-9.80612981E+0	7.22584900E+6
323	12/06/2023	17:08:06.905	5.39692791E+0	-2.46600000E+3	2.00000000E+0	-9.80612981E+0	7.22584900E+6
324	12/06/2023	17:08:08.820	3.36056841E+0	-2.12400000E+3	2.00000000E+0	-9.80612981E+0	7.22584900E+6
325	12/06/2023	17:08:10.569	4.99234047E+0	-2.17800000E+3	2.00000000E+0	-9.80612981E+0	7.22584900E+6
326	12/06/2023	17:08:12.557	1.76791286E+0	-2.46300000E+3	2.00000000E+0	-9.80612981E+0	7.22584900E+6
327	12/06/2023	17:08:14.305	2.14335466E+0	-2.50300000E+3	2.00000000E+0	-9.80612981E+0	7.22584900E+6
328	12/06/2023	17:08:16.166	5.07440845E+0	-2.44900000E+3	2.00000000E+0	-9.80612981E+0	7.22584900E+6
329	12/06/2023	17:08:17.987	2.77727222E+0	-2.51400000E+3	2.00000000E+0	-9.80612981E+0	7.22584900E+6
330	12/06/2023	17:08:19.942	4.49456371E-1	-2.27900000E+3	2.00000000E+0	-9.80612981E+0	7.22584900E+6
331	12/06/2023	17:08:21.923	2.62502462E+0	-2.35300000E+3	2.00000000E+0	-9.80612981E+0	7.22584900E+6
332	12/06/2023	17:08:23.846	1.11251957E+0	-2.51100000E+3	2.00000000E+0	-9.80612981E+0	7.22584900E+6
333	12/06/2023	17:08:25.764	3.02501011E+0	-2.45900000E+3	2.00000000E+0	-9.80612981E+0	7.22584900E+6
334	12/06/2023	17:08:27.675	2.32781585E+0	-2.51800000E+3	2.00000000E+0	-9.80612981E+0	7.22584900E+6
335	12/06/2023	17:08:29.560	1.42890310E+0	-2.38300000E+3	2.00000000E+0	-9.80612981E+0	7.22584900E+6
336	12/06/2023	17:08:31.560	2.37498575E+0	-1.98000000E+3	2.00000000E+0	-9.80612981E+0	7.22584900E+6
337	12/06/2023	17:08:33.299	2.26645661E+0	-2.31900000E+3	2.00000000E+0	-9.80612981E+0	7.22584900E+6
338	12/06/2023	17:08:35.058	5.76738427E+0	-2.51400000E+3	2.00000000E+0	-9.80612981E+0	7.22584900E+6
339	12/06/2023	17:08:36.917	9.13869054E-1	-2.51500000E+3	2.00000000E+0	-9.80612981E+0	7.22584900E+6
340	12/06/2023	17:08:38.716	4.83357346E+0	-2.38800000E+3	2.00000000E+0	-9.80612981E+0	7.22584900E+6
341	12/06/2023	17:08:40.676	4.14174813E-1	-2.12300000E+3	2.00000000E+0	-9.80612981E+0	7.22584900E+6
342	12/06/2023	17:08:42.478	4.96856377E+0	-2.43700000E+3	2.00000000E+0	-9.80612981E+0	7.22584900E+6
343	12/06/2023	17:08:44.404	2.96211690E+0	-2.50100000E+3	2.00000000E+0	-9.80612981E+0	7.22584900E+6
344	12/06/2023	17:08:46.429	2.70402463E+0	-2.51500000E+3	2.00000000E+0	-9.80612981E+0	7.22584900E+6
345	12/06/2023	17:08:48.296	2.87276252E+0	-2.32700000E+3	2.00000000E+0	-9.80612981E+0	7.22584900E+6
346	12/06/2023	17:08:50.230	1.47684000E+0	-2.14400000E+3	2.00000000E+0	-9.80612981E+0	7.22584900E+6
347	12/06/2023	17:08:52.181	4.76607831E+0	-2.48400000E+3	2.00000000E+0	-9.80612981E+0	7.22584900E+6
348	12/06/2023	17:08:54.075	1.21031084E+0	-2.50800000E+3	2.00000000E+0	-9.80612981E+0	7.22584900E+6
349	12/06/2023	17:08:55.940	3.31416549E+0	-2.42600000E+3	2.00000000E+0	-9.80612981E+0	7.22584900E+6
350	12/06/2023	17:08:57.757	2.17173330E+0	-2.17600000E+3	2.00000000E+0	-9.80612981E+0	7.22584900E+6
351	12/06/2023	17:08:59.537	3.88864130E-1	-2.28500000E+3	2.00000000E+0	-9.80612981E+0	7.22584900E+6
352	12/06/2023	17:09:01.405	6.51174844E-1	-2.48600000E+3	2.00000000E+0	-9.80612981E+0	7.22584900E+6
353	12/06/2023	17:09:03.254	5.24851527E+0	-2.51600000E+3	2.00000000E+0	-9.80612981E+0	7.22584900E+6
354	12/06/2023	17:09:05.185	5.87284545E+0	-2.50900000E+3	2.00000000E+0	-9.80612981E+0	7.22584900E+6
355	12/06/2023	17:09:07.103	5.63776289E+0	-2.37100000E+3	2.00000000E+0	-9.80612981E+0	7.22584900E+6
356	12/06/2023	17:09:08.956	5.78157359E+0	-2.10100000E+3	2.00000000E+0	-9.80612981E+0	7.22584900E+6
357	12/06/2023	17:09:10.944	5.58484055E+0	-2.27700000E+3	2.00000000E+0	-9.80612981E+0	7.22584900E+6
358	12/06/2023	17:09:12.794	2.72204891E+0	-2.48700000E+3	2.00000000E+0	-9.80612981E+0	7.22584900E+6
359	12/06/2023	17:09:14.696	6.25902511E+0	-2.50900000E+3	2.00000000E+0	-9.80612981E+0	7.22584900E+6
360	12/06/2023	17:09:16.815	3.37360725E+0	-2.50700000E+3	2.00000000E+0	-9.80612981E+0	7.22584900E+6
361	12/06/2023	17:09:18.552	2.50000519E+0	-2.40200000E+3	2.00000000E+0	-9.80612981E+0	7.22584900E+6
362	12/06/2023	17:09:20.324	4.17319473E+0	-2.21500000E+3	2.00000000E+0	-9.80612981E+0	7.22584900E+6
363	12/06/2023	17:09:22.212	3.77589371E+0	-2.40600000E+3	2.00000000E+0	-9.80612981E+0	7.22584900E+6
364	12/06/2023	17:09:23.889	1.60914585E+0	-2.50900000E+3	2.00000000E+0	-9.80612981E+0	7.22584900E+6
365	12/06/2023	17:09:25.824	4.46810254E+0	-2.52700000E+3	2.00000000E+0	-9.80612981E+0	7.22584900E+6
366	12/06/2023	17:09:27.658	4.85274822E+0	-2.46600000E+3	2.00000000E+0	-9.80612981E+0	7.22584900E+6
367	12/06/2023	17:09:29.541	8.05339914E-1	-2.23100000E+3	2.00000000E+0	-9.80612981E+0	7.22584900E+6
368	12/06/2023	17:09:31.387	3.11858294E+0	-2.11700000E+3	2.00000000E+0	-9.80612981E+0	7.22584900E+6
369	12/06/2023	17:09:33.221	2.19551000E+0	-2.37300000E+3	2.00000000E+0	-9.80612981E+0	7.22584900E+6
370	12/06/2023	17:09:35.100	4.31968990E+0	-2.50200000E+3	2.00000000E+0	-9.80612981E+0	7.22584900E+6
371	12/06/2023	17:09:36.973	3.48443736E+0	-2.51300000E+3	2.00000000E+0	-9.80612981E+0	7.22584900E+6
372	12/06/2023	17:09:38.842	1.41893223E-1	-2.48400000E+3	2.00000000E+0	-9.80612981E+0	7.22584900E+6
373	12/06/2023	17:09:40.730	1.31155357E-1	-2.33900000E+3	2.00000000E+0	-9.80612981E+0	7.22584900E+6
374	12/06/2023	17:09:42.600	1.20954385E+0	-2.11300000E+3	2.00000000E+0	-9.80612981E+0	7.22584900E+6
375	12/06/2023	17:09:44.344	3.87330149E-1	-2.26300000E+3	2.00000000E+0	-9.80612981E+0	7.22584900E+6
376	12/06/2023	17:09:46.086	2.56289840E+0	-2.45000000E+3	2.00000000E+0	-9.80612981E+0	7.22584900E+6
377	12/06/2023	17:09:48.002	2.11996145E+0	-2.50100000E+3	2.00000000E+0	-9.80612981E+0	7.22584900E+6
378	12/06/2023	17:09:50.023	5.58369007E-1	-2.44400000E+3	2.00000000E+0	-9.80612981E+0	7.22584900E+6
379	12/06/2023	17:09:51.956	7.52417576E-1	-2.36100000E+3	2.00000000E+0	-9.80612981E+0	7.22584900E+6
380	12/06/2023	17:09:53.867	4.00867529E+0	-2.30300000E+3	2.00000000E+0	-9.80612981E+0	7.22584900E+6
381	12/06/2023	17:09:55.856	2.94140816E-1	-2.17000000E+3	2.00000000E+0	-9.80612981E+0	7.22584900E+6
382	12/06/2023	17:09:57.760	4.51527245E+0	-2.26000000E+3	2.00000000E+0	-9.80612981E+0	7.22584900E+6
383	12/06/2023	17:09:59.768	4.98121911E+0	-2.37700000E+3	2.00000000E+0	-9.80612981E+0	7.22584900E+6
384	12/06/2023	17:10:01.671	1.03083509E+0	-2.46300000E+3	2.00000000E+0	-9.80612981E+0	7.22584900E+6
385	12/06/2023	17:10:03.486	2.98397613E+0	-2.49700000E+3	2.00000000E+0	-9.80612981E+0	7.22584900E+6
386	12/06/2023	17:10:05.398	5.38427257E+0	-2.50800000E+3	2.00000000E+0	-9.80612981E+0	7.22584900E+6
387	12/06/2023	17:10:07.226	5.28302983E+0	-2.52000000E+3	2.00000000E+0	-9.80612981E+0	7.22584900E+6
388	12/06/2023	17:10:08.983	5.19099099E+0	-2.51400000E+3	2.00000000E+0	-9.80612981E+0	7.22584900E+6
389	12/06/2023	17:10:10.865	4.82130162E+0	-2.51300000E+3	2.00000000E+0	-9.80612981E+0	7.22584900E+6
390	12/06/2023	17:10:12.680	2.09388378E-1	-2.49400000E+3	2.00000000E+0	-9.80612981E+0	7.22584900E+6
391	12/06/2023	17:10:14.637	2.66567511E+0	-2.41000000E+3	2.00000000E+0	-9.80612981E+0	7.22584900E+6
392	12/06/2023	17:10:16.631	3.81577721E-1	-2.26500000E+3	2.00000000E+0	-9.80612981E+0	7.22584900E+6
393	12/06/2023	17:10:18.526	3.29153928E+0	-2.18400000E+3	2.00000000E+0	-9.80612981E+0	7.22584900E+6
394	12/06/2023	17:10:20.493	4.84316084E+0	-2.32300000E+3	2.00000000E+0	-9.80612981E+0	7.22584900E+6
395	12/06/2023	17:10:22.377	1.71959246E+0	-2.48000000E+3	2.00000000E+0	-9.80612981E+0	7.22584900E+6
396	12/06/2023	17:10:24.308	4.68746179E+0	-2.51700000E+3	2.00000000E+0	-9.80612981E+0	7.22584900E+6
397	12/06/2023	17:10:26.189	4.21231124E+0	-2.52200000E+3	2.00000000E+0	-9.80612981E+0	7.22584900E+6
398	12/06/2023	17:10:28.042	3.35865094E+0	-2.47200000E+3	2.00000000E+0	-9.80612981E+0	7.22584900E+6
399	12/06/2023	17:10:29.898	1.00935936E+0	-2.41100000E+3	2.00000000E+0	-9.80612981E+0	7.22584900E+6
400	12/06/2023	17:10:31.646	3.91510247E+0	-2.27200000E+3	2.00000000E+0	-9.80612981E+0	7.22584900E+6
401	12/06/2023	17:10:33.558	1.48681088E+0	-2.16200000E+3	2.00000000E+0	-9.80612981E+0	7.22584900E+6
402	12/06/2023	17:10:35.631	5.86479205E+0	-2.27400000E+3	2.00000000E+0	-9.80612981E+0	7.22584900E+6
403	12/06/2023	17:10:37.562	5.86440855E+0	-2.41300000E+3	2.00000000E+0	-9.80612981E+0	7.22584900E+6
404	12/06/2023	17:10:39.592	4.96626280E-1	-2.49500000E+3	2.00000000E+0	-9.80612981E+0	7.22584900E+6
405	12/06/2023	17:10:41.510	4.13446172E+0	-2.51900000E+3	2.00000000E+0	-9.80612981E+0	7.22584900E+6
406	12/06/2023	17:10:43.283	6.78786499E-1	-2.50800000E+3	2.00000000E+0	-9.80612981E+0	7.22584900E+6
407	12/06/2023	17:10:45.264	4.99694242E-1	-2.46700000E+3	2.00000000E+0	-9.80612981E+0	7.22584900E+6
408	12/06/2023	17:10:47.062	3.59718495E-1	-2.39900000E+3	2.00000000E+0	-9.80612981E+0	7.22584900E+6
409	12/06/2023	17:10:48.961	5.69912212E+0	-2.29300000E+3	2.00000000E+0	-9.80612981E+0	7.22584900E+6
410	12/06/2023	17:10:50.809	4.39485496E+0	-2.20100000E+3	2.00000000E+0	-9.80612981E+0	7.22584900E+6
411	12/06/2023	17:10:52.554	4.66215111E+0	-2.12500000E+3	2.00000000E+0	-9.80612981E+0	7.22584900E+6
412	12/06/2023	17:10:54.370	1.61950022E+0	-2.27800000E+3	2.00000000E+0	-9.80612981E+0	7.22584900E+6
413	12/06/2023	17:10:56.302	5.56451531E-1	-2.40000000E+3	2.00000000E+0	-9.80612981E+0	7.22584900E+6
414	12/06/2023	17:10:58.228	4.83242298E+0	-2.47300000E+3	2.00000000E+0	-9.80612981E+0	7.22584900E+6
415	12/06/2023	17:11:00.171	5.70602504E+0	-2.51300000E+3	2.00000000E+0	-9.80612981E+0	7.22584900E+6
416	12/06/2023	17:11:02.069	3.73217526E+0	-2.51900000E+3	2.00000000E+0	-9.80612981E+0	7.22584900E+6
417	12/06/2023	17:11:04.009	2.02447114E+0	-2.50300000E+3	2.00000000E+0	-9.80612981E+0	7.22584900E+6
418	12/06/2023	17:11:05.982	6.00169983E+0	-2.47600000E+3	2.00000000E+0	-9.80612981E+0	7.22584900E+6
419	12/06/2023	17:11:07.860	1.57424778E+0	-2.38300000E+3	2.00000000E+0	-9.80612981E+0	7.22584900E+6
420	12/06/2023	17:11:09.702	1.59188856E+0	-2.20700000E+3	2.00000000E+0	-9.80612981E+0	7.22584900E+6
421	12/06/2023	17:11:11.518	1.46226719E+0	-2.07700000E+3	2.00000000E+0	-9.80612981E+0	7.22584900E+6
422	12/06/2023	17:11:13.287	3.70609758E+0	-2.24000000E+3	2.00000000E+0	-9.80612981E+0	7.22584900E+6
423	12/06/2023	17:11:15.119	1.27933998E+0	-2.38800000E+3	2.00000000E+0	-9.80612981E+0	7.22584900E+6
424	12/06/2023	17:11:16.966	6.24215132E+0	-2.45000000E+3	2.00000000E+0	-9.80612981E+0	7.22584900E+6
425	12/06/2023	17:11:18.884	3.61712670E+0	-2.49900000E+3	2.00000000E+0	-9.80612981E+0	7.22584900E+6
426	12/06/2023	17:11:20.789	5.35934538E+0	-2.51100000E+3	2.00000000E+0	-9.80612981E+0	7.22584900E+6
427	12/06/2023	17:11:22.669	3.70264613E+0	-2.51200000E+3	2.00000000E+0	-9.80612981E+0	7.22584900E+6
428	12/06/2023	17:11:24.534	5.98827750E+0	-2.47600000E+3	2.00000000E+0	-9.80612981E+0	7.22584900E+6
429	12/06/2023	17:11:26.416	4.84392783E+0	-2.37700000E+3	2.00000000E+0	-9.80612981E+0	7.22584900E+6
430	12/06/2023	17:11:28.370	3.91970441E+0	-2.17900000E+3	2.00000000E+0	-9.80612981E+0	7.22584900E+6
431	12/06/2023	17:11:30.269	2.04402940E-1	-2.09200000E+3	2.00000000E+0	-9.80612981E+0	7.22584900E+6
432	12/06/2023	17:11:32.103	1.28969435E+0	-2.28500000E+3	2.00000000E+0	-9.80612981E+0	7.22584900E+6
433	12/06/2023	17:11:34.082	1.27090308E+0	-2.46900000E+3	2.00000000E+0	-9.80612981E+0	7.22584900E+6
434	12/06/2023	17:11:35.815	3.19451499E-1	-2.47700000E+3	2.00000000E+0	-9.80612981E+0	7.22584900E+6
435	12/06/2023	17:11:37.722	5.12924826E+0	-2.40100000E+3	2.00000000E+0	-9.80612981E+0	7.22584900E+6
436	12/06/2023	17:11:39.522	9.43014689E-1	-2.25100000E+3	2.00000000E+0	-9.80612981E+0	7.22584900E+6
437	12/06/2023	17:11:41.295	3.10822857E+0	-2.08200000E+3	2.00000000E+0	-9.80612981E+0	7.22584900E+6
438	12/06/2023	17:11:43.200	4.25679669E-1	-2.19900000E+3	2.00000000E+0	-9.80612981E+0	7.22584900E+6
439	12/06/2023	17:11:45.061	3.03613147E+0	-2.35900000E+3	2.00000000E+0	-9.80612981E+0	7.22584900E+6
440	12/06/2023	17:11:46.951	2.34392264E+0	-2.44600000E+3	2.00000000E+0	-9.80612981E+0	7.22584900E+6
441	12/06/2023	17:11:48.845	5.04411233E+0	-2.48600000E+3	2.00000000E+0	-9.80612981E+0	7.22584900E+6
442	12/06/2023	17:11:50.682	5.38235509E+0	-2.51200000E+3	2.00000000E+0	-9.80612981E+0	7.22584900E+6
443	12/06/2023	17:11:52.519	3.15386450E+0	-2.51200000E+3	2.00000000E+0	-9.80612981E+0	7.22584900E+6
444	12/06/2023	17:11:54.284	1.67855848E+0	-2.52400000E+3	2.00000000E+0	-9.80612981E+0	7.22584900E+6
445	12/06/2023	17:11:56.165	4.47538895E+0	-2.50400000E+3	2.00000000E+0	-9.80612981E+0	7.22584900E+6
446	12/06/2023	17:11:58.031	6.31233094E-1	-2.41700000E+3	2.00000000E+0	-9.80612981E+0	7.22584900E+6
447	12/06/2023	17:11:59.853	5.02915601E+0	-2.29300000E+3	2.00000000E+0	-9.80612981E+0	7.22584900E+6
448	12/06/2023	17:12:01.522	1.70540314E+0	-2.11500000E+3	2.00000000E+0	-9.80612981E+0	7.22584900E+6
449	12/06/2023	17:12:03.380	1.25172832E+0	-2.27100000E+3	2.00000000E+0	-9.80612981E+0	7.22584900E+6
450	12/06/2023	17:12:05.275	1.12670889E+0	-2.45800000E+3	2.00000000E+0	-9.80612981E+0	7.22584900E+6
451	12/06/2023	17:12:07.179	4.29668019E+0	-2.51500000E+3	2.00000000E+0	-9.80612981E+0	7.22584900E+6
452	12/06/2023	17:12:09.022	5.57333570E+0	-2.50700000E+3	2.00000000E+0	-9.80612981E+0	7.22584900E+6
453	12/06/2023	17:12:10.857	2.92491787E+0	-2.40600000E+3	2.00000000E+0	-9.80612981E+0	7.22584900E+6
454	12/06/2023	17:12:12.792	1.60531089E+0	-2.14400000E+3	2.00000000E+0	-9.80612981E+0	7.22584900E+6
455	12/06/2023	17:12:14.628	1.80089344E+0	-2.22200000E+3	2.00000000E+0	-9.80612981E+0	7.22584900E+6
456	12/06/2023	17:12:16.393	9.74077800E-2	-2.41200000E+3	2.00000000E+0	-9.80612981E+0	7.22584900E+6
457	12/06/2023	17:12:18.363	4.26485009E+0	-2.51400000E+3	2.00000000E+0	-9.80612981E+0	7.22584900E+6
458	12/06/2023	17:12:20.071	4.87805891E-1	-2.50700000E+3	2.00000000E+0	-9.80612981E+0	7.22584900E+6
459	12/06/2023	17:12:21.924	1.21951473E+0	-2.45500000E+3	2.00000000E+0	-9.80612981E+0	7.22584900E+6
460	12/06/2023	17:12:23.564	2.82635960E+0	-2.23000000E+3	2.00000000E+0	-9.80612981E+0	7.22584900E+6
461	12/06/2023	17:12:25.417	2.17518476E+0	-2.17400000E+3	2.00000000E+0	-9.80612981E+0	7.22584900E+6
462	12/06/2023	17:12:27.387	2.46472363E+0	-2.45000000E+3	2.00000000E+0	-9.80612981E+0	7.22584900E+6
463	12/06/2023	17:12:29.249	6.04925324E+0	-2.51400000E+3	2.00000000E+0	-9.80612981E+0	7.22584900E+6
464	12/06/2023	17:12:31.119	2.30173817E+0	-2.50900000E+3	2.00000000E+0	-9.80612981E+0	7.22584900E+6
465	12/06/2023	17:12:33.033	2.49003431E+0	-2.38600000E+3	2.00000000E+0	-9.80612981E+0	7.22584900E+6
466	12/06/2023	17:12:34.823	3.27888393E+0	-2.11500000E+3	2.00000000E+0	-9.80612981E+0	7.22584900E+6
467	12/06/2023	17:12:36.738	1.36524290E+0	-2.29700000E+3	2.00000000E+0	-9.80612981E+0	7.22584900E+6
468	12/06/2023	17:12:38.615	5.51811239E+0	-2.44700000E+3	2.00000000E+0	-9.80612981E+0	7.22584900E+6
469	12/06/2023	17:12:40.460	3.08751983E+0	-2.50900000E+3	2.00000000E+0	-9.80612981E+0	7.22584900E+6
470	12/06/2023	17:12:42.309	5.44716578E+0	-2.51700000E+3	2.00000000E+0	-9.80612981E+0	7.22584900E+6
471	12/06/2023	17:12:44.141	4.57509770E+0	-2.51900000E+3	2.00000000E+0	-9.80612981E+0	7.22584900E+6
472	12/06/2023	17:12:46.059	1.33034484E+0	-2.48200000E+3	2.00000000E+0	-9.80612981E+0	7.22584900E+6
473	12/06/2023	17:12:47.953	5.44294733E+0	-2.39600000E+3	2.00000000E+0	-9.80612981E+0	7.22584900E+6
474	12/06/2023	17:12:49.801	5.96718526E+0	-2.25600000E+3	2.00000000E+0	-9.80612981E+0	7.22584900E+6
475	12/06/2023	17:12:51.737	2.79836445E+0	-2.09300000E+3	2.00000000E+0	-9.80612981E+0	7.22584900E+6
476	12/06/2023	17:12:53.554	4.43013652E+0	-2.37500000E+3	2.00000000E+0	-9.80612981E+0	7.22584900E+6
477	12/06/2023	17:12:55.352	2.79184503E+0	-2.50800000E+3	2.00000000E+0	-9.80612981E+0	7.22584900E+6
478	12/06/2023	17:12:57.163	3.09327226E+0	-2.51700000E+3	2.00000000E+0	-9.80612981E+0	7.22584900E+6
479	12/06/2023	17:12:59.048	5.60593279E+0	-2.51700000E+3	2.00000000E+0	-9.80612981E+0	7.22584900E+6
480	12/06/2023	17:13:00.865	5.67956387E+0	-2.50400000E+3	2.00000000E+0	-9.80612981E+0	7.22584900E+6
481	12/06/2023	17:13:02.726	3.48060241E+0	-2.48600000E+3	2.00000000E+0	-9.80612981E+0	7.22584900E+6
482	12/06/2023	17:13:04.490	5.06482107E+0	-2.38500000E+3	2.00000000E+0	-9.80612981E+0	7.22584900E+6
483	12/06/2023	17:13:06.321	1.60300992E-1	-2.21300000E+3	2.00000000E+0	-9.80612981E+0	7.22584900E+6
484	12/06/2023	17:13:08.004	6.09143771E+0	-2.07700000E+3	2.00000000E+0	-9.80612981E+0	7.22584900E+6
485	12/06/2023	17:13:09.874	5.28916576E+0	-2.24400000E+3	2.00000000E+0	-9.80612981E+0	7.22584900E+6
486	12/06/2023	17:13:11.787	1.38978659E+0	-2.40200000E+3	2.00000000E+0	-9.80612981E+0	7.22584900E+6
487	12/06/2023	17:13:13.649	1.41433029E+0	-2.47500000E+3	2.00000000E+0	-9.80612981E+0	7.22584900E+6
488	12/06/2023	17:13:15.551	1.37713125E+0	-2.50800000E+3	2.00000000E+0	-9.80612981E+0	7.22584900E+6
489	12/06/2023	17:13:17.515	5.39846189E+0	-2.51200000E+3	2.00000000E+0	-9.80612981E+0	7.22584900E+6
490	12/06/2023	17:13:19.295	2.88465087E+0	-2.51500000E+3	2.00000000E+0	-9.80612981E+0	7.22584900E+6
491	12/06/2023	17:13:21.245	3.11666547E+0	-2.51900000E+3	2.00000000E+0	-9.80612981E+0	7.22584900E+6
492	12/06/2023	17:13:23.082	2.43902945E-1	-2.47200000E+3	2.00000000E+0	-9.80612981E+0	7.22584900E+6
493	12/06/2023	17:13:25.017	4.68247636E+0	-2.41500000E+3	2.00000000E+0	-9.80612981E+0	7.22584900E+6
494	12/06/2023	17:13:26.799	5.45253471E+0	-2.33500000E+3	2.00000000E+0	-9.80612981E+0	7.22584900E+6
495	12/06/2023	17:13:28.526	7.44364177E-1	-2.21000000E+3	2.00000000E+0	-9.80612981E+0	7.22584900E+6
496	12/06/2023	17:13:30.304	4.54326760E+0	-2.14000000E+3	2.00000000E+0	-9.80612981E+0	7.22584900E+6
497	12/06/2023	17:13:32.119	2.24076244E+0	-2.26500000E+3	2.00000000E+0	-9.80612981E+0	7.22584900E+6
498	12/06/2023	17:13:34.008	3.24590335E+0	-2.40800000E+3	2.00000000E+0	-9.80612981E+0	7.22584900E+6
499	12/06/2023	17:13:35.899	3.97761218E+0	-2.51000000E+3	2.00000000E+0	-9.80612981E+0	7.22584900E+6
500	12/06/2023	17:13:37.758	5.86939399E+0	-2.51700000E+3	2.00000000E+0	-9.80612981E+0	7.22584900E+6
