#Iteration	Date	Time	STSX	STSY	RotationRateX	RotationRateY	FrCntX	FrCntY	TiptiltCmd1	TiptiltCmd2	TiptiltMonitor1	TiptiltMonitor2
1	12/06/2023	16:57:57.472	0.00000E+0	0.00000E+0	-1.67858E-2	1.15839E-1	0.00000E+0	0.00000E+0	1.95506E+1	1.36199E+1	1.95524E+1	1.36209E+1
2	12/06/2023	16:57:59.151	0.00000E+0	0.00000E+0	1.39631E-1	-6.45685E-2	0.00000E+0	0.00000E+0	1.95500E+1	1.36214E+1	1.95504E+1	1.36218E+1
3	12/06/2023	16:58:00.915	0.00000E+0	0.00000E+0	4.17620E+1	4.95677E-1	0.00000E+0	0.00000E+0	2.01488E+1	1.30502E+1	2.01477E+1	1.30498E+1
4	12/06/2023	16:58:02.766	0.00000E+0	0.00000E+0	5.47733E+1	-9.30809E-1	0.00000E+0	0.00000E+0	2.03745E+1	1.28225E+1	2.03732E+1	1.28236E+1
5	12/06/2023	16:58:04.624	0.00000E+0	0.00000E+0	8.07183E+1	2.20833E+0	0.00000E+0	0.00000E+0	2.07007E+1	1.24708E+1	2.07000E+1	1.24702E+1
6	12/06/2023	16:58:06.494	0.00000E+0	0.00000E+0	5.31960E+1	-5.77660E-1	0.00000E+0	0.00000E+0	2.03238E+1	1.28886E+1	2.03251E+1	1.28868E+1
7	12/06/2023	16:58:08.312	0.00000E+0	0.00000E+0	3.88985E+1	8.72020E-3	0.00000E+0	0.00000E+0	2.01059E+1	1.30853E+1	2.01069E+1	1.30827E+1
8	12/06/2023	16:58:10.156	0.00000E+0	0.00000E+0	-4.51363E+1	-1.24611E-1	0.00000E+0	0.00000E+0	1.89217E+1	1.42481E+1	1.89222E+1	1.42470E+1
9	12/06/2023	16:58:12.084	0.00000E+0	0.00000E+0	-5.07473E+1	6.69104E-1	0.00000E+0	0.00000E+0	1.88288E+1	1.43137E+1	1.88288E+1	1.43127E+1
10	12/06/2023	16:58:14.018	0.00000E+0	0.00000E+0	-5.38307E+1	-1.18472E+0	0.00000E+0	0.00000E+0	1.87757E+1	1.44126E+1	1.87758E+1	1.44139E+1
11	12/06/2023	16:58:15.900	0.00000E+0	0.00000E+0	-6.32449E-1	5.57802E-1	0.00000E+0	0.00000E+0	1.95496E+1	1.36263E+1	1.95485E+1	1.36288E+1
12	12/06/2023	16:58:17.664	0.00000E+0	0.00000E+0	-5.13534E+1	-2.47303E-2	0.00000E+0	0.00000E+0	1.87928E+1	1.43699E+1	1.87904E+1	1.43707E+1
13	12/06/2023	16:58:19.438	0.00000E+0	0.00000E+0	-4.46898E+1	-4.46733E-1	0.00000E+0	0.00000E+0	1.89078E+1	1.42665E+1	1.89061E+1	1.42662E+1
14	12/06/2023	16:58:21.221	0.00000E+0	0.00000E+0	-1.64595E+1	-2.63395E-1	0.00000E+0	0.00000E+0	1.93102E+1	1.38702E+1	1.93112E+1	1.38683E+1
15	12/06/2023	16:58:22.889	0.00000E+0	0.00000E+0	-2.68795E+1	7.27371E-1	0.00000E+0	0.00000E+0	1.91863E+1	1.40071E+1	1.91877E+1	1.40077E+1
16	12/06/2023	16:58:24.668	0.00000E+0	0.00000E+0	-3.50714E+1	3.41348E-1	0.00000E+0	0.00000E+0	1.89991E+1	1.41687E+1	1.89988E+1	1.41689E+1
17	12/06/2023	16:58:26.659	0.00000E+0	0.00000E+0	8.25127E+1	-1.67236E+0	0.00000E+0	0.00000E+0	2.07475E+1	1.24621E+1	2.07494E+1	1.24608E+1
18	12/06/2023	16:58:28.507	0.00000E+0	0.00000E+0	1.17481E+2	5.72685E-1	0.00000E+0	0.00000E+0	2.12270E+1	1.19907E+1	2.12269E+1	1.19912E+1
19	12/06/2023	16:58:30.418	0.00000E+0	0.00000E+0	8.81176E+1	3.39607E-1	0.00000E+0	0.00000E+0	2.08524E+1	1.23566E+1	2.08546E+1	1.23562E+1
20	12/06/2023	16:58:32.284	0.00000E+0	0.00000E+0	-6.67318E+1	-1.45570E+0	0.00000E+0	0.00000E+0	1.85730E+1	1.45994E+1	1.85723E+1	1.45965E+1
21	12/06/2023	16:58:34.124	0.00000E+0	0.00000E+0	-1.12412E+2	-9.07826E-1	0.00000E+0	0.00000E+0	1.79447E+1	1.52032E+1	1.79449E+1	1.52007E+1
22	12/06/2023	16:58:36.055	0.00000E+0	0.00000E+0	-1.29016E+2	-7.87068E-1	0.00000E+0	0.00000E+0	1.76667E+1	1.55217E+1	1.76649E+1	1.55211E+1
23	12/06/2023	16:58:37.944	0.00000E+0	0.00000E+0	-3.27534E+0	1.94914E-1	0.00000E+0	0.00000E+0	1.95445E+1	1.36192E+1	1.95458E+1	1.36207E+1
24	12/06/2023	16:58:39.723	0.00000E+0	0.00000E+0	-5.61033E-2	-1.82434E-1	0.00000E+0	0.00000E+0	1.95436E+1	1.36178E+1	1.95420E+1	1.36179E+1
25	12/06/2023	16:58:41.506	0.00000E+0	0.00000E+0	2.23550E-4	-8.80371E-2	0.00000E+0	0.00000E+0	1.95557E+1	1.36215E+1	1.95519E+1	1.36227E+1
26	12/06/2023	16:58:43.269	0.00000E+0	0.00000E+0	-1.04653E-1	-4.95309E-2	0.00000E+0	0.00000E+0	1.95495E+1	1.36209E+1	1.95509E+1	1.36213E+1
27	12/06/2023	16:58:45.130	0.00000E+0	0.00000E+0	4.89445E-1	-1.53852E-1	0.00000E+0	0.00000E+0	1.95534E+1	1.36280E+1	1.95513E+1	1.36295E+1
28	12/06/2023	16:58:46.923	0.00000E+0	0.00000E+0	7.57763E+1	5.82721E-1	0.00000E+0	0.00000E+0	2.06031E+1	1.26039E+1	2.06041E+1	1.26036E+1
29	12/06/2023	16:58:48.806	0.00000E+0	0.00000E+0	3.92250E+1	-3.09249E-1	0.00000E+0	0.00000E+0	2.00997E+1	1.30693E+1	2.00988E+1	1.30684E+1
30	12/06/2023	16:58:50.719	0.00000E+0	0.00000E+0	9.71620E+1	7.34754E-1	0.00000E+0	0.00000E+0	2.09482E+1	1.22616E+1	2.09476E+1	1.22619E+1
31	12/06/2023	16:58:52.559	0.00000E+0	0.00000E+0	2.78200E+1	-6.15020E-1	0.00000E+0	0.00000E+0	2.01524E+1	1.30418E+1	2.01525E+1	1.30416E+1
32	12/06/2023	16:58:54.483	0.00000E+0	0.00000E+0	-8.59394E+1	-9.89905E-1	0.00000E+0	0.00000E+0	1.82930E+1	1.48776E+1	1.82913E+1	1.48781E+1
33	12/06/2023	16:58:56.385	0.00000E+0	0.00000E+0	1.04639E+2	2.12256E-1	0.00000E+0	0.00000E+0	2.10612E+1	1.21519E+1	2.10596E+1	1.21518E+1
34	12/06/2023	16:58:58.205	0.00000E+0	0.00000E+0	7.20008E+1	5.07938E-1	0.00000E+0	0.00000E+0	2.07143E+1	1.24908E+1	2.07151E+1	1.24902E+1
35	12/06/2023	16:59:00.146	0.00000E+0	0.00000E+0	-1.32228E+2	-1.59183E+0	0.00000E+0	0.00000E+0	1.76148E+1	1.55199E+1	1.76130E+1	1.55193E+1
36	12/06/2023	16:59:01.968	0.00000E+0	0.00000E+0	-1.06323E+2	-1.04575E+0	0.00000E+0	0.00000E+0	1.80252E+1	1.51330E+1	1.80244E+1	1.51332E+1
37	12/06/2023	16:59:03.841	0.00000E+0	0.00000E+0	6.79459E+1	8.78333E-1	0.00000E+0	0.00000E+0	2.05319E+1	1.26528E+1	2.05353E+1	1.26521E+1
38	12/06/2023	16:59:05.644	0.00000E+0	0.00000E+0	8.59591E+1	8.45371E-1	0.00000E+0	0.00000E+0	2.07450E+1	1.24555E+1	2.07459E+1	1.24531E+1
39	12/06/2023	16:59:07.415	0.00000E+0	0.00000E+0	4.85064E+1	-8.80831E-1	0.00000E+0	0.00000E+0	2.03136E+1	1.28677E+1	2.03164E+1	1.28693E+1
40	12/06/2023	16:59:09.422	0.00000E+0	0.00000E+0	-6.80993E+1	-3.98115E-1	0.00000E+0	0.00000E+0	1.85563E+1	1.45920E+1	1.85572E+1	1.45900E+1
41	12/06/2023	16:59:11.263	0.00000E+0	0.00000E+0	2.89331E+1	7.81484E-1	0.00000E+0	0.00000E+0	1.98842E+1	1.33118E+1	1.98838E+1	1.33120E+1
42	12/06/2023	16:59:13.127	0.00000E+0	0.00000E+0	4.69981E+1	-5.09601E-1	0.00000E+0	0.00000E+0	2.02568E+1	1.29488E+1	2.02568E+1	1.29485E+1
43	12/06/2023	16:59:14.968	0.00000E+0	0.00000E+0	8.87833E+1	-5.86411E-1	0.00000E+0	0.00000E+0	2.08378E+1	1.23797E+1	2.08369E+1	1.23782E+1
44	12/06/2023	16:59:16.857	0.00000E+0	0.00000E+0	-5.48963E+1	-9.98108E-1	0.00000E+0	0.00000E+0	1.87996E+1	1.43669E+1	1.88012E+1	1.43685E+1
45	12/06/2023	16:59:18.770	0.00000E+0	0.00000E+0	-6.30111E+1	-8.32089E-2	0.00000E+0	0.00000E+0	1.86657E+1	1.44855E+1	1.86658E+1	1.44878E+1
46	12/06/2023	16:59:20.637	0.00000E+0	0.00000E+0	-9.43276E+1	-8.76676E-1	0.00000E+0	0.00000E+0	1.81881E+1	1.49633E+1	1.81890E+1	1.49622E+1
47	12/06/2023	16:59:22.366	0.00000E+0	0.00000E+0	-7.40450E+1	-1.40197E-2	0.00000E+0	0.00000E+0	1.84622E+1	1.46941E+1	1.84640E+1	1.46953E+1
48	12/06/2023	16:59:24.161	0.00000E+0	0.00000E+0	-6.18332E+1	-2.53688E-1	0.00000E+0	0.00000E+0	1.86432E+1	1.45345E+1	1.86432E+1	1.45348E+1
49	12/06/2023	16:59:25.884	0.00000E+0	0.00000E+0	4.92745E+1	1.27422E+0	0.00000E+0	0.00000E+0	2.02285E+1	1.29070E+1	2.02290E+1	1.29078E+1
50	12/06/2023	16:59:27.614	0.00000E+0	0.00000E+0	7.73293E+1	1.14386E+0	0.00000E+0	0.00000E+0	2.06670E+1	1.25446E+1	2.06664E+1	1.25452E+1
51	12/06/2023	16:59:29.515	0.00000E+0	0.00000E+0	1.11435E+2	4.60465E-1	0.00000E+0	0.00000E+0	2.11515E+1	1.20392E+1	2.11513E+1	1.20409E+1
52	12/06/2023	16:59:31.416	0.00000E+0	0.00000E+0	8.71784E+1	4.66750E-1	0.00000E+0	0.00000E+0	2.08473E+1	1.23547E+1	2.08473E+1	1.23571E+1
53	12/06/2023	16:59:33.373	0.00000E+0	0.00000E+0	5.30701E+1	3.80944E-3	0.00000E+0	0.00000E+0	2.03627E+1	1.28292E+1	2.03633E+1	1.28281E+1
54	12/06/2023	16:59:35.263	0.00000E+0	0.00000E+0	-1.34905E-1	-4.00869E-1	0.00000E+0	0.00000E+0	1.95557E+1	1.36259E+1	1.95572E+1	1.36258E+1
55	12/06/2023	16:59:37.105	0.00000E+0	0.00000E+0	-8.41339E+1	-1.27762E+0	0.00000E+0	0.00000E+0	1.83292E+1	1.47996E+1	1.83280E+1	1.47996E+1
56	12/06/2023	16:59:39.105	0.00000E+0	0.00000E+0	-7.64832E+1	-6.55503E-1	0.00000E+0	0.00000E+0	1.84476E+1	1.47112E+1	1.84484E+1	1.47096E+1
57	12/06/2023	16:59:41.064	0.00000E+0	0.00000E+0	-3.81601E+1	3.67891E-1	0.00000E+0	0.00000E+0	1.90157E+1	1.41515E+1	1.90153E+1	1.41518E+1
58	12/06/2023	16:59:43.032	0.00000E+0	0.00000E+0	-6.31717E+1	-8.04191E-1	0.00000E+0	0.00000E+0	1.86166E+1	1.45514E+1	1.86158E+1	1.45496E+1
59	12/06/2023	16:59:44.847	0.00000E+0	0.00000E+0	-8.11039E+1	-7.34813E-1	0.00000E+0	0.00000E+0	1.84019E+1	1.47862E+1	1.84033E+1	1.47868E+1
60	12/06/2023	16:59:46.645	0.00000E+0	0.00000E+0	-5.47527E+1	4.11958E-1	0.00000E+0	0.00000E+0	1.87848E+1	1.43871E+1	1.87858E+1	1.43851E+1
61	12/06/2023	16:59:48.483	0.00000E+0	0.00000E+0	4.53244E+1	-1.41844E-1	0.00000E+0	0.00000E+0	2.01891E+1	1.29841E+1	2.01891E+1	1.29830E+1
62	12/06/2023	16:59:50.256	0.00000E+0	0.00000E+0	1.40273E+1	9.24649E-1	0.00000E+0	0.00000E+0	1.97154E+1	1.34915E+1	1.97156E+1	1.34925E+1
63	12/06/2023	16:59:52.051	0.00000E+0	0.00000E+0	4.69018E+1	-1.61169E+0	0.00000E+0	0.00000E+0	2.02652E+1	1.29436E+1	2.02686E+1	1.29433E+1
64	12/06/2023	16:59:54.092	0.00000E+0	0.00000E+0	4.27548E+1	-6.01349E-1	0.00000E+0	0.00000E+0	2.01387E+1	1.30600E+1	2.01355E+1	1.30620E+1
65	12/06/2023	16:59:55.982	0.00000E+0	0.00000E+0	5.27740E+1	-3.98731E-1	0.00000E+0	0.00000E+0	2.02985E+1	1.29064E+1	2.02984E+1	1.29074E+1
66	12/06/2023	16:59:57.996	0.00000E+0	0.00000E+0	2.69608E+1	1.23926E-1	0.00000E+0	0.00000E+0	1.99491E+1	1.32352E+1	1.99500E+1	1.32360E+1
67	12/06/2023	16:59:59.915	0.00000E+0	0.00000E+0	1.64195E+1	2.58821E-1	0.00000E+0	0.00000E+0	1.97718E+1	1.34149E+1	1.97733E+1	1.34152E+1
68	12/06/2023	17:00:01.826	0.00000E+0	0.00000E+0	2.34942E+1	1.48344E-2	0.00000E+0	0.00000E+0	1.99104E+1	1.32641E+1	1.99096E+1	1.32621E+1
69	12/06/2023	17:00:03.831	0.00000E+0	0.00000E+0	4.60957E+1	9.21642E-1	0.00000E+0	0.00000E+0	2.02181E+1	1.29838E+1	2.02185E+1	1.29853E+1
70	12/06/2023	17:00:05.751	0.00000E+0	0.00000E+0	-2.94187E+1	1.18728E-1	0.00000E+0	0.00000E+0	1.91298E+1	1.40496E+1	1.91310E+1	1.40494E+1
71	12/06/2023	17:00:07.605	0.00000E+0	0.00000E+0	-1.82354E+1	-1.11999E+0	0.00000E+0	0.00000E+0	1.93131E+1	1.38706E+1	1.93099E+1	1.38720E+1
72	12/06/2023	17:00:09.606	0.00000E+0	0.00000E+0	-6.05874E+1	-5.50408E-1	0.00000E+0	0.00000E+0	1.87162E+1	1.44593E+1	1.87181E+1	1.44597E+1
73	12/06/2023	17:00:11.522	0.00000E+0	0.00000E+0	-6.52402E+1	-8.45286E-1	0.00000E+0	0.00000E+0	1.87007E+1	1.44742E+1	1.86988E+1	1.44733E+1
74	12/06/2023	17:00:13.354	0.00000E+0	0.00000E+0	-4.41799E+1	-1.14268E+0	0.00000E+0	0.00000E+0	1.89021E+1	1.42928E+1	1.89020E+1	1.42932E+1
75	12/06/2023	17:00:15.089	0.00000E+0	0.00000E+0	-1.23029E+1	8.30731E-1	0.00000E+0	0.00000E+0	1.93855E+1	1.37612E+1	1.93849E+1	1.37587E+1
76	12/06/2023	17:00:16.964	0.00000E+0	0.00000E+0	-5.08361E+1	1.84101E-1	0.00000E+0	0.00000E+0	1.87723E+1	1.43844E+1	1.87722E+1	1.43844E+1
77	12/06/2023	17:00:18.947	0.00000E+0	0.00000E+0	-4.00269E+1	-1.45797E+0	0.00000E+0	0.00000E+0	1.89083E+1	1.42515E+1	1.89076E+1	1.42492E+1
78	12/06/2023	17:00:20.862	0.00000E+0	0.00000E+0	6.54823E+1	3.58408E-1	0.00000E+0	0.00000E+0	2.05128E+1	1.27540E+1	2.05151E+1	1.27536E+1
79	12/06/2023	17:00:22.750	0.00000E+0	0.00000E+0	4.87877E+1	1.50632E+0	0.00000E+0	0.00000E+0	2.02622E+1	1.28653E+1	2.02621E+1	1.28654E+1
80	12/06/2023	17:00:24.736	0.00000E+0	0.00000E+0	9.01398E+1	8.45571E-1	0.00000E+0	0.00000E+0	2.08360E+1	1.23716E+1	2.08375E+1	1.23734E+1
81	12/06/2023	17:00:26.656	0.00000E+0	0.00000E+0	8.59961E+1	5.03230E-1	0.00000E+0	0.00000E+0	2.07726E+1	1.24236E+1	2.07737E+1	1.24242E+1
82	12/06/2023	17:00:28.658	0.00000E+0	0.00000E+0	6.50552E+1	5.58228E-2	0.00000E+0	0.00000E+0	2.04933E+1	1.27065E+1	2.04927E+1	1.27088E+1
83	12/06/2023	17:00:30.502	0.00000E+0	0.00000E+0	-3.43393E+1	-2.92591E-1	0.00000E+0	0.00000E+0	1.90755E+1	1.40749E+1	1.90780E+1	1.40754E+1
84	12/06/2023	17:00:32.271	0.00000E+0	0.00000E+0	-9.21779E+1	-1.13636E+0	0.00000E+0	0.00000E+0	1.81980E+1	1.49428E+1	1.81980E+1	1.49415E+1
85	12/06/2023	17:00:34.197	0.00000E+0	0.00000E+0	-1.03348E+2	-2.11652E-1	0.00000E+0	0.00000E+0	1.80639E+1	1.50843E+1	1.80641E+1	1.50850E+1
86	12/06/2023	17:00:35.928	0.00000E+0	0.00000E+0	-8.81914E+1	5.86022E-1	0.00000E+0	0.00000E+0	1.83190E+1	1.48153E+1	1.83188E+1	1.48147E+1
87	12/06/2023	17:00:37.730	0.00000E+0	0.00000E+0	-7.44587E+1	-5.00623E-1	0.00000E+0	0.00000E+0	1.85437E+1	1.46246E+1	1.85449E+1	1.46244E+1
88	12/06/2023	17:00:39.633	0.00000E+0	0.00000E+0	-5.81033E+1	1.25829E+0	0.00000E+0	0.00000E+0	1.86852E+1	1.44308E+1	1.86850E+1	1.44287E+1
89	12/06/2023	17:00:41.560	0.00000E+0	0.00000E+0	4.37933E+1	-2.02294E-1	0.00000E+0	0.00000E+0	2.02258E+1	1.30134E+1	2.02272E+1	1.30131E+1
90	12/06/2023	17:00:43.515	0.00000E+0	0.00000E+0	4.78538E+1	3.54289E+0	0.00000E+0	0.00000E+0	2.01923E+1	1.29662E+1	2.01939E+1	1.29664E+1
91	12/06/2023	17:00:45.436	0.00000E+0	0.00000E+0	3.41636E+1	1.39821E+0	0.00000E+0	0.00000E+0	2.00217E+1	1.31472E+1	2.00232E+1	1.31480E+1
92	12/06/2023	17:00:47.370	0.00000E+0	0.00000E+0	8.64937E+1	-2.39333E-1	0.00000E+0	0.00000E+0	2.08111E+1	1.24201E+1	2.08121E+1	1.24202E+1
93	12/06/2023	17:00:49.371	0.00000E+0	0.00000E+0	7.95578E+1	6.78464E-1	0.00000E+0	0.00000E+0	2.06593E+1	1.25280E+1	2.06596E+1	1.25272E+1
94	12/06/2023	17:00:51.244	0.00000E+0	0.00000E+0	7.03128E+1	-2.54400E-1	0.00000E+0	0.00000E+0	2.05606E+1	1.26435E+1	2.05603E+1	1.26431E+1
95	12/06/2023	17:00:53.152	0.00000E+0	0.00000E+0	-8.63409E+1	-1.63787E+0	0.00000E+0	0.00000E+0	1.83285E+1	1.48305E+1	1.83293E+1	1.48290E+1
96	12/06/2023	17:00:54.919	0.00000E+0	0.00000E+0	-8.14125E+1	-8.43506E-1	0.00000E+0	0.00000E+0	1.84091E+1	1.47537E+1	1.84085E+1	1.47550E+1
97	12/06/2023	17:00:56.751	0.00000E+0	0.00000E+0	-6.74418E+1	-4.81857E-1	0.00000E+0	0.00000E+0	1.85887E+1	1.45623E+1	1.85877E+1	1.45637E+1
98	12/06/2023	17:00:58.555	0.00000E+0	0.00000E+0	-5.76454E+1	-2.73408E-1	0.00000E+0	0.00000E+0	1.87279E+1	1.44374E+1	1.87248E+1	1.44356E+1
99	12/06/2023	17:01:00.239	0.00000E+0	0.00000E+0	-2.60084E+1	-6.83934E-1	0.00000E+0	0.00000E+0	1.91582E+1	1.39739E+1	1.91589E+1	1.39724E+1
100	12/06/2023	17:01:02.223	0.00000E+0	0.00000E+0	-4.70390E+1	5.38516E-1	0.00000E+0	0.00000E+0	1.88571E+1	1.42927E+1	1.88585E+1	1.42915E+1
101	12/06/2023	17:01:04.243	0.00000E+0	0.00000E+0	4.17461E+1	1.31107E+0	0.00000E+0	0.00000E+0	2.01580E+1	1.29694E+1	2.01548E+1	1.29681E+1
102	12/06/2023	17:01:06.165	0.00000E+0	0.00000E+0	7.72394E+1	-7.98871E-1	0.00000E+0	0.00000E+0	2.06554E+1	1.25377E+1	2.06544E+1	1.25375E+1
103	12/06/2023	17:01:08.165	0.00000E+0	0.00000E+0	3.85002E+1	-3.85634E-1	0.00000E+0	0.00000E+0	2.01202E+1	1.30928E+1	2.01211E+1	1.30917E+1
104	12/06/2023	17:01:10.071	0.00000E+0	0.00000E+0	6.20979E+1	-2.47521E-1	0.00000E+0	0.00000E+0	2.04279E+1	1.27586E+1	2.04276E+1	1.27592E+1
105	12/06/2023	17:01:11.939	0.00000E+0	0.00000E+0	7.98107E+1	3.66725E-1	0.00000E+0	0.00000E+0	2.06753E+1	1.25216E+1	2.06756E+1	1.25204E+1
106	12/06/2023	17:01:13.938	0.00000E+0	0.00000E+0	5.52976E+1	5.16202E-1	0.00000E+0	0.00000E+0	2.03287E+1	1.28488E+1	2.03270E+1	1.28500E+1
107	12/06/2023	17:01:15.784	0.00000E+0	0.00000E+0	-3.79817E+1	-6.96454E-1	0.00000E+0	0.00000E+0	1.90408E+1	1.41069E+1	1.90420E+1	1.41060E+1
108	12/06/2023	17:01:17.686	0.00000E+0	0.00000E+0	-4.92264E+1	3.33013E+0	0.00000E+0	0.00000E+0	1.88587E+1	1.43565E+1	1.88567E+1	1.43567E+1
109	12/06/2023	17:01:19.455	0.00000E+0	0.00000E+0	-8.42057E+1	-1.20868E+0	0.00000E+0	0.00000E+0	1.83037E+1	1.48223E+1	1.83027E+1	1.48224E+1
110	12/06/2023	17:01:21.197	0.00000E+0	0.00000E+0	-4.87994E+1	-1.38654E+0	0.00000E+0	0.00000E+0	1.87701E+1	1.43335E+1	1.87720E+1	1.43312E+1
111	12/06/2023	17:01:23.024	0.00000E+0	0.00000E+0	-4.98111E+1	-1.29383E+0	0.00000E+0	0.00000E+0	1.87864E+1	1.43695E+1	1.87841E+1	1.43681E+1
112	12/06/2023	17:01:24.982	0.00000E+0	0.00000E+0	-7.30420E+1	-1.05838E+0	0.00000E+0	0.00000E+0	1.85120E+1	1.46529E+1	1.85093E+1	1.46539E+1
113	12/06/2023	17:01:26.821	0.00000E+0	0.00000E+0	2.86677E+1	5.77740E-1	0.00000E+0	0.00000E+0	1.99003E+1	1.31499E+1	1.98999E+1	1.31514E+1
114	12/06/2023	17:01:28.739	0.00000E+0	0.00000E+0	5.88052E+1	-8.59166E-1	0.00000E+0	0.00000E+0	2.03245E+1	1.28235E+1	2.03233E+1	1.28226E+1
115	12/06/2023	17:01:30.666	0.00000E+0	0.00000E+0	4.40577E+1	1.53759E+0	0.00000E+0	0.00000E+0	2.01957E+1	1.29551E+1	2.01963E+1	1.29551E+1
116	12/06/2023	17:01:32.645	0.00000E+0	0.00000E+0	6.42226E+1	2.01599E-1	0.00000E+0	0.00000E+0	2.04786E+1	1.27026E+1	2.04789E+1	1.27038E+1
117	12/06/2023	17:01:34.590	0.00000E+0	0.00000E+0	9.65632E+1	2.44065E+0	0.00000E+0	0.00000E+0	2.09087E+1	1.22804E+1	2.09078E+1	1.22792E+1
118	12/06/2023	17:01:36.510	0.00000E+0	0.00000E+0	8.10621E+1	1.21900E+0	0.00000E+0	0.00000E+0	2.07107E+1	1.24699E+1	2.07113E+1	1.24688E+1
119	12/06/2023	17:01:38.527	0.00000E+0	0.00000E+0	-6.67661E+1	-5.14054E-1	0.00000E+0	0.00000E+0	1.86520E+1	1.45427E+1	1.86540E+1	1.45411E+1
120	12/06/2023	17:01:40.299	0.00000E+0	0.00000E+0	-7.11659E+1	-6.59621E-1	0.00000E+0	0.00000E+0	1.85488E+1	1.46074E+1	1.85461E+1	1.46068E+1
121	12/06/2023	17:01:42.220	0.00000E+0	0.00000E+0	-6.96697E+1	1.72360E+0	0.00000E+0	0.00000E+0	1.85929E+1	1.45785E+1	1.85908E+1	1.45797E+1
122	12/06/2023	17:01:43.948	0.00000E+0	0.00000E+0	-6.41737E+1	-2.22758E-1	0.00000E+0	0.00000E+0	1.86635E+1	1.44564E+1	1.86632E+1	1.44556E+1
123	12/06/2023	17:01:45.678	0.00000E+0	0.00000E+0	-4.35099E+1	-2.13845E+0	0.00000E+0	0.00000E+0	1.89617E+1	1.42207E+1	1.89617E+1	1.42216E+1
124	12/06/2023	17:01:47.699	0.00000E+0	0.00000E+0	4.17354E+1	-1.44368E+0	0.00000E+0	0.00000E+0	2.01276E+1	1.30494E+1	2.01256E+1	1.30530E+1
125	12/06/2023	17:01:49.609	0.00000E+0	0.00000E+0	5.50671E+1	9.91401E-1	0.00000E+0	0.00000E+0	2.03355E+1	1.28404E+1	2.03363E+1	1.28387E+1
126	12/06/2023	17:01:51.527	0.00000E+0	0.00000E+0	1.02785E+2	2.19997E-1	0.00000E+0	0.00000E+0	2.10109E+1	1.21858E+1	2.10092E+1	1.21838E+1
127	12/06/2023	17:01:53.564	0.00000E+0	0.00000E+0	1.04964E+2	-6.42911E-2	0.00000E+0	0.00000E+0	2.10727E+1	1.21196E+1	2.10723E+1	1.21197E+1
128	12/06/2023	17:01:55.443	0.00000E+0	0.00000E+0	-3.38443E+1	-2.59213E-1	0.00000E+0	0.00000E+0	1.91440E+1	1.40380E+1	1.91440E+1	1.40387E+1
129	12/06/2023	17:01:57.423	0.00000E+0	0.00000E+0	-6.90526E+1	-6.87727E-1	0.00000E+0	0.00000E+0	1.85633E+1	1.45822E+1	1.85633E+1	1.45835E+1
130	12/06/2023	17:01:59.322	0.00000E+0	0.00000E+0	-7.69524E+1	-1.11693E+0	0.00000E+0	0.00000E+0	1.84512E+1	1.47176E+1	1.84510E+1	1.47167E+1
131	12/06/2023	17:02:01.209	0.00000E+0	0.00000E+0	-8.69585E+1	-1.17567E+0	0.00000E+0	0.00000E+0	1.83187E+1	1.48427E+1	1.83186E+1	1.48428E+1
132	12/06/2023	17:02:03.177	0.00000E+0	0.00000E+0	-4.64283E+1	-5.81213E-1	0.00000E+0	0.00000E+0	1.88902E+1	1.42720E+1	1.88888E+1	1.42717E+1
133	12/06/2023	17:02:05.043	0.00000E+0	0.00000E+0	4.79943E+1	3.25268E+0	0.00000E+0	0.00000E+0	2.01911E+1	1.29851E+1	2.01938E+1	1.29846E+1
134	12/06/2023	17:02:06.852	0.00000E+0	0.00000E+0	8.46256E+1	2.52052E-1	0.00000E+0	0.00000E+0	2.07422E+1	1.24603E+1	2.07428E+1	1.24614E+1
135	12/06/2023	17:02:08.760	0.00000E+0	0.00000E+0	7.53768E+1	1.12900E+0	0.00000E+0	0.00000E+0	2.06106E+1	1.25774E+1	2.06080E+1	1.25797E+1
136	12/06/2023	17:02:10.604	0.00000E+0	0.00000E+0	1.02602E+2	9.52079E-1	0.00000E+0	0.00000E+0	2.09945E+1	1.21959E+1	2.09932E+1	1.21966E+1
137	12/06/2023	17:02:12.534	0.00000E+0	0.00000E+0	7.02869E+1	1.31280E+0	0.00000E+0	0.00000E+0	2.06166E+1	1.25814E+1	2.06173E+1	1.25829E+1
138	12/06/2023	17:02:14.463	0.00000E+0	0.00000E+0	-1.32657E+2	-4.13073E-1	0.00000E+0	0.00000E+0	1.76831E+1	1.54621E+1	1.76825E+1	1.54621E+1
139	12/06/2023	17:02:16.355	0.00000E+0	0.00000E+0	-1.27001E+2	-1.50999E+0	0.00000E+0	0.00000E+0	1.77278E+1	1.54148E+1	1.77251E+1	1.54150E+1
140	12/06/2023	17:02:18.382	0.00000E+0	0.00000E+0	-7.51212E+1	-2.00115E-1	0.00000E+0	0.00000E+0	1.84327E+1	1.47192E+1	1.84312E+1	1.47196E+1
141	12/06/2023	17:02:20.295	0.00000E+0	0.00000E+0	8.21459E+1	1.47226E+0	0.00000E+0	0.00000E+0	2.06636E+1	1.25284E+1	2.06624E+1	1.25269E+1
142	12/06/2023	17:02:22.276	0.00000E+0	0.00000E+0	1.23092E+2	1.99408E+0	0.00000E+0	0.00000E+0	2.13131E+1	1.18483E+1	2.13155E+1	1.18487E+1
143	12/06/2023	17:02:24.214	0.00000E+0	0.00000E+0	1.17140E+2	9.24958E-1	0.00000E+0	0.00000E+0	2.12912E+1	1.19258E+1	2.12902E+1	1.19265E+1
144	12/06/2023	17:02:26.032	0.00000E+0	0.00000E+0	-1.08367E+2	3.80378E-2	0.00000E+0	0.00000E+0	1.80332E+1	1.51212E+1	1.80330E+1	1.51182E+1
145	12/06/2023	17:02:27.922	0.00000E+0	0.00000E+0	-1.16091E+2	-5.61350E-1	0.00000E+0	0.00000E+0	1.79122E+1	1.52310E+1	1.79109E+1	1.52300E+1
146	12/06/2023	17:02:29.665	0.00000E+0	0.00000E+0	-1.32695E+2	-4.02351E-1	0.00000E+0	0.00000E+0	1.76583E+1	1.54766E+1	1.76561E+1	1.54757E+1
147	12/06/2023	17:02:31.395	0.00000E+0	0.00000E+0	4.81638E+1	-3.66776E+0	0.00000E+0	0.00000E+0	2.00717E+1	1.31192E+1	2.00696E+1	1.31180E+1
148	12/06/2023	17:02:33.329	0.00000E+0	0.00000E+0	1.15975E+2	6.09413E-1	0.00000E+0	0.00000E+0	2.11541E+1	1.20354E+1	2.11574E+1	1.20349E+1
149	12/06/2023	17:02:35.183	0.00000E+0	0.00000E+0	1.38132E+2	1.72821E+0	0.00000E+0	0.00000E+0	2.15087E+1	1.16958E+1	2.15143E+1	1.16962E+1
150	12/06/2023	17:02:37.169	0.00000E+0	0.00000E+0	5.68559E+1	4.86938E-1	0.00000E+0	0.00000E+0	2.04435E+1	1.27616E+1	2.04435E+1	1.27602E+1
151	12/06/2023	17:02:39.049	0.00000E+0	0.00000E+0	-7.99116E+1	-6.67584E-1	0.00000E+0	0.00000E+0	1.84164E+1	1.47764E+1	1.84141E+1	1.47761E+1
152	12/06/2023	17:02:40.932	0.00000E+0	0.00000E+0	-9.01010E+1	-1.26619E+0	0.00000E+0	0.00000E+0	1.82717E+1	1.49010E+1	1.82696E+1	1.49018E+1
153	12/06/2023	17:02:42.922	0.00000E+0	0.00000E+0	-8.96258E+1	-2.10165E-1	0.00000E+0	0.00000E+0	1.82589E+1	1.48823E+1	1.82605E+1	1.48833E+1
154	12/06/2023	17:02:44.853	0.00000E+0	0.00000E+0	5.35302E+1	-1.28056E+0	0.00000E+0	0.00000E+0	2.03561E+1	1.28369E+1	2.03535E+1	1.28372E+1
155	12/06/2023	17:02:46.790	0.00000E+0	0.00000E+0	1.84412E+2	1.28139E-1	0.00000E+0	0.00000E+0	2.21171E+1	1.10772E+1	2.21153E+1	1.10740E+1
156	12/06/2023	17:02:48.557	0.00000E+0	0.00000E+0	1.30353E+2	1.51366E+0	0.00000E+0	0.00000E+0	2.15350E+1	1.16850E+1	2.15357E+1	1.16855E+1
157	12/06/2023	17:02:50.309	0.00000E+0	0.00000E+0	-1.14449E+2	-1.05879E+0	0.00000E+0	0.00000E+0	1.79252E+1	1.52399E+1	1.79248E+1	1.52405E+1
158	12/06/2023	17:02:52.305	0.00000E+0	0.00000E+0	-1.35508E+2	-3.07864E+0	0.00000E+0	0.00000E+0	1.76778E+1	1.55436E+1	1.76775E+1	1.55437E+1
159	12/06/2023	17:02:54.046	0.00000E+0	0.00000E+0	-8.12491E+1	-6.63375E-1	0.00000E+0	0.00000E+0	1.83791E+1	1.47641E+1	1.83786E+1	1.47651E+1
160	12/06/2023	17:02:55.887	0.00000E+0	0.00000E+0	-6.30043E+1	-3.44690E-2	0.00000E+0	0.00000E+0	1.86192E+1	1.45560E+1	1.86201E+1	1.45562E+1
161	12/06/2023	17:02:57.890	0.00000E+0	0.00000E+0	9.74014E+1	-4.27186E-1	0.00000E+0	0.00000E+0	2.09451E+1	1.22560E+1	2.09451E+1	1.22583E+1
162	12/06/2023	17:02:59.804	0.00000E+0	0.00000E+0	1.05851E+2	2.97090E-1	0.00000E+0	0.00000E+0	2.10458E+1	1.21574E+1	2.10454E+1	1.21576E+1
163	12/06/2023	17:03:01.786	0.00000E+0	0.00000E+0	9.67953E+1	6.32877E-1	0.00000E+0	0.00000E+0	2.09385E+1	1.22594E+1	2.09383E+1	1.22616E+1
164	12/06/2023	17:03:03.652	0.00000E+0	0.00000E+0	8.44961E+1	5.29477E-1	0.00000E+0	0.00000E+0	2.07841E+1	1.24518E+1	2.07862E+1	1.24512E+1
165	12/06/2023	17:03:05.508	0.00000E+0	0.00000E+0	-1.05912E+2	-1.20089E+0	0.00000E+0	0.00000E+0	1.80538E+1	1.50686E+1	1.80550E+1	1.50691E+1
166	12/06/2023	17:03:07.516	0.00000E+0	0.00000E+0	-1.42839E+2	-1.59493E+0	0.00000E+0	0.00000E+0	1.74829E+1	1.56362E+1	1.74820E+1	1.56361E+1
167	12/06/2023	17:03:09.490	0.00000E+0	0.00000E+0	-4.83176E+1	3.58632E-1	0.00000E+0	0.00000E+0	1.88176E+1	1.43359E+1	1.88195E+1	1.43363E+1
168	12/06/2023	17:03:11.269	0.00000E+0	0.00000E+0	-7.67617E+1	-2.00362E+0	0.00000E+0	0.00000E+0	1.84598E+1	1.47081E+1	1.84589E+1	1.47080E+1
169	12/06/2023	17:03:13.116	0.00000E+0	0.00000E+0	4.10390E+1	2.07412E+0	0.00000E+0	0.00000E+0	1.98963E+1	1.32856E+1	1.99002E+1	1.32868E+1
170	12/06/2023	17:03:14.959	0.00000E+0	0.00000E+0	8.87299E+1	2.42332E-1	0.00000E+0	0.00000E+0	2.08234E+1	1.23550E+1	2.08248E+1	1.23564E+1
171	12/06/2023	17:03:16.837	0.00000E+0	0.00000E+0	1.14138E+2	-1.14584E+0	0.00000E+0	0.00000E+0	2.11556E+1	1.20101E+1	2.11572E+1	1.20109E+1
172	12/06/2023	17:03:18.770	0.00000E+0	0.00000E+0	8.12864E+1	1.27644E+0	0.00000E+0	0.00000E+0	2.07339E+1	1.24690E+1	2.07356E+1	1.24666E+1
173	12/06/2023	17:03:20.627	0.00000E+0	0.00000E+0	9.09764E+1	2.91221E+0	0.00000E+0	0.00000E+0	2.08395E+1	1.23576E+1	2.08403E+1	1.23586E+1
174	12/06/2023	17:03:22.616	0.00000E+0	0.00000E+0	-1.45255E+2	-1.63326E+0	0.00000E+0	0.00000E+0	1.75596E+1	1.56234E+1	1.75576E+1	1.56243E+1
175	12/06/2023	17:03:24.498	0.00000E+0	0.00000E+0	-7.27433E+1	-9.71404E-1	0.00000E+0	0.00000E+0	1.84678E+1	1.46764E+1	1.84674E+1	1.46774E+1
176	12/06/2023	17:03:26.462	0.00000E+0	0.00000E+0	-7.96551E+1	-1.39392E+0	0.00000E+0	0.00000E+0	1.84616E+1	1.47147E+1	1.84598E+1	1.47147E+1
177	12/06/2023	17:03:28.413	0.00000E+0	0.00000E+0	-5.12719E+1	5.87935E-1	0.00000E+0	0.00000E+0	1.88377E+1	1.43330E+1	1.88378E+1	1.43347E+1
178	12/06/2023	17:03:30.293	0.00000E+0	0.00000E+0	-8.97772E+1	-1.22604E+0	0.00000E+0	0.00000E+0	1.82841E+1	1.48915E+1	1.82867E+1	1.48918E+1
179	12/06/2023	17:03:32.256	0.00000E+0	0.00000E+0	9.47196E+0	2.42777E-2	0.00000E+0	0.00000E+0	1.96066E+1	1.35473E+1	1.96056E+1	1.35453E+1
180	12/06/2023	17:03:34.146	0.00000E+0	0.00000E+0	4.07785E+1	4.57047E-1	0.00000E+0	0.00000E+0	2.01604E+1	1.30329E+1	2.01625E+1	1.30329E+1
181	12/06/2023	17:03:35.915	0.00000E+0	0.00000E+0	3.52223E+1	-1.14268E-1	0.00000E+0	0.00000E+0	2.00770E+1	1.31167E+1	2.00763E+1	1.31163E+1
182	12/06/2023	17:03:37.732	0.00000E+0	0.00000E+0	2.60042E+1	-6.77141E-1	0.00000E+0	0.00000E+0	1.99501E+1	1.32403E+1	1.99526E+1	1.32401E+1
183	12/06/2023	17:03:39.489	0.00000E+0	0.00000E+0	2.39942E+1	1.55821E-1	0.00000E+0	0.00000E+0	1.98872E+1	1.32893E+1	1.98882E+1	1.32916E+1
184	12/06/2023	17:03:41.450	0.00000E+0	0.00000E+0	6.38435E+1	9.83762E-1	0.00000E+0	0.00000E+0	2.04712E+1	1.27503E+1	2.04690E+1	1.27521E+1
185	12/06/2023	17:03:43.332	0.00000E+0	0.00000E+0	6.99992E+1	8.71901E-1	0.00000E+0	0.00000E+0	2.05292E+1	1.26666E+1	2.05284E+1	1.26683E+1
186	12/06/2023	17:03:45.256	0.00000E+0	0.00000E+0	7.14872E+1	1.24810E+0	0.00000E+0	0.00000E+0	2.05675E+1	1.26255E+1	2.05659E+1	1.26254E+1
187	12/06/2023	17:03:47.514	0.00000E+0	0.00000E+0	-3.89786E+1	-3.61504E-1	0.00000E+0	0.00000E+0	1.90238E+1	1.41497E+1	1.90215E+1	1.41482E+1
188	12/06/2023	17:03:49.435	0.00000E+0	0.00000E+0	-6.10088E+1	-7.76464E-1	0.00000E+0	0.00000E+0	1.86554E+1	1.45276E+1	1.86548E+1	1.45268E+1
189	12/06/2023	17:03:51.431	0.00000E+0	0.00000E+0	-4.95010E+1	4.92402E-1	0.00000E+0	0.00000E+0	1.88614E+1	1.43004E+1	1.88589E+1	1.43001E+1
190	12/06/2023	17:03:53.440	0.00000E+0	0.00000E+0	-5.92349E+1	-5.48104E-1	0.00000E+0	0.00000E+0	1.87248E+1	1.44414E+1	1.87258E+1	1.44410E+1
191	12/06/2023	17:03:55.222	0.00000E+0	0.00000E+0	-9.75709E+1	-1.19178E+0	0.00000E+0	0.00000E+0	1.81403E+1	1.50290E+1	1.81387E+1	1.50313E+1
192	12/06/2023	17:03:57.173	0.00000E+0	0.00000E+0	-1.06438E+1	-5.39534E-1	0.00000E+0	0.00000E+0	1.93585E+1	1.38476E+1	1.93622E+1	1.38478E+1
193	12/06/2023	17:03:59.012	0.00000E+0	0.00000E+0	7.74203E+1	-2.42581E-3	0.00000E+0	0.00000E+0	2.06654E+1	1.25395E+1	2.06629E+1	1.25404E+1
194	12/06/2023	17:04:00.887	0.00000E+0	0.00000E+0	6.25267E+1	7.48798E-1	0.00000E+0	0.00000E+0	2.04334E+1	1.27394E+1	2.04346E+1	1.27408E+1
195	12/06/2023	17:04:02.714	0.00000E+0	0.00000E+0	5.73729E+1	7.63721E-1	0.00000E+0	0.00000E+0	2.04069E+1	1.27840E+1	2.04084E+1	1.27829E+1
196	12/06/2023	17:04:04.637	0.00000E+0	0.00000E+0	6.75663E+1	5.08129E-1	0.00000E+0	0.00000E+0	2.05293E+1	1.26562E+1	2.05296E+1	1.26578E+1
197	12/06/2023	17:04:06.557	0.00000E+0	0.00000E+0	3.46099E+1	3.40335E-1	0.00000E+0	0.00000E+0	2.00613E+1	1.31330E+1	2.00619E+1	1.31297E+1
198	12/06/2023	17:04:08.462	0.00000E+0	0.00000E+0	5.72882E+1	5.63432E-1	0.00000E+0	0.00000E+0	2.03634E+1	1.28495E+1	2.03634E+1	1.28501E+1
199	12/06/2023	17:04:10.397	0.00000E+0	0.00000E+0	-1.55196E+2	-1.74695E-1	0.00000E+0	0.00000E+0	1.73388E+1	1.58055E+1	1.73387E+1	1.58068E+1
200	12/06/2023	17:04:12.401	0.00000E+0	0.00000E+0	-8.67339E+1	-2.16750E+0	0.00000E+0	0.00000E+0	1.82976E+1	1.48592E+1	1.82967E+1	1.48602E+1
201	12/06/2023	17:04:14.329	0.00000E+0	0.00000E+0	-4.41844E+1	-2.29934E-1	0.00000E+0	0.00000E+0	1.89291E+1	1.42489E+1	1.89273E+1	1.42498E+1
202	12/06/2023	17:04:16.240	0.00000E+0	0.00000E+0	-4.53346E+1	-1.01461E+0	0.00000E+0	0.00000E+0	1.89230E+1	1.42523E+1	1.89195E+1	1.42524E+1
203	12/06/2023	17:04:18.110	0.00000E+0	0.00000E+0	-1.61906E+1	2.81273E-1	0.00000E+0	0.00000E+0	1.93010E+1	1.38699E+1	1.93009E+1	1.38693E+1
204	12/06/2023	17:04:19.861	0.00000E+0	0.00000E+0	3.78011E+1	1.26756E+0	0.00000E+0	0.00000E+0	2.01021E+1	1.31404E+1	2.01018E+1	1.31398E+1
205	12/06/2023	17:04:21.693	0.00000E+0	0.00000E+0	6.34269E+1	1.29889E+0	0.00000E+0	0.00000E+0	2.04355E+1	1.28088E+1	2.04334E+1	1.28077E+1
206	12/06/2023	17:04:23.524	0.00000E+0	0.00000E+0	4.19957E+1	2.42457E-1	0.00000E+0	0.00000E+0	2.01906E+1	1.30137E+1	2.01880E+1	1.30126E+1
207	12/06/2023	17:04:25.351	0.00000E+0	0.00000E+0	6.41031E+1	1.56522E-1	0.00000E+0	0.00000E+0	2.04441E+1	1.27731E+1	2.04417E+1	1.27756E+1
208	12/06/2023	17:04:27.355	0.00000E+0	0.00000E+0	4.61237E+1	2.92446E-1	0.00000E+0	0.00000E+0	2.02075E+1	1.29705E+1	2.02038E+1	1.29712E+1
209	12/06/2023	17:04:29.242	0.00000E+0	0.00000E+0	6.21392E+1	3.35298E-1	0.00000E+0	0.00000E+0	2.04794E+1	1.27217E+1	2.04800E+1	1.27217E+1
210	12/06/2023	17:04:31.201	0.00000E+0	0.00000E+0	4.41332E+1	4.82028E-1	0.00000E+0	0.00000E+0	2.01706E+1	1.30188E+1	2.01709E+1	1.30165E+1
211	12/06/2023	17:04:33.075	0.00000E+0	0.00000E+0	-4.57054E+1	-1.93139E-1	0.00000E+0	0.00000E+0	1.89120E+1	1.42223E+1	1.89126E+1	1.42220E+1
212	12/06/2023	17:04:34.989	0.00000E+0	0.00000E+0	-7.57134E+1	-1.02453E-1	0.00000E+0	0.00000E+0	1.84910E+1	1.46397E+1	1.84933E+1	1.46379E+1
213	12/06/2023	17:04:36.963	0.00000E+0	0.00000E+0	-4.80149E+1	-5.42134E-1	0.00000E+0	0.00000E+0	1.88367E+1	1.43228E+1	1.88366E+1	1.43237E+1
214	12/06/2023	17:04:38.885	0.00000E+0	0.00000E+0	-2.73283E+1	-2.13219E-1	0.00000E+0	0.00000E+0	1.91860E+1	1.40049E+1	1.91859E+1	1.40053E+1
215	12/06/2023	17:04:40.727	0.00000E+0	0.00000E+0	-3.34308E+1	-3.72871E-1	0.00000E+0	0.00000E+0	1.90675E+1	1.41003E+1	1.90676E+1	1.40996E+1
216	12/06/2023	17:04:42.725	0.00000E+0	0.00000E+0	-3.38727E+1	3.32742E-1	0.00000E+0	0.00000E+0	1.90926E+1	1.40527E+1	1.90937E+1	1.40534E+1
217	12/06/2023	17:04:44.513	0.00000E+0	0.00000E+0	-3.47611E+1	-7.22089E-1	0.00000E+0	0.00000E+0	1.90433E+1	1.41258E+1	1.90424E+1	1.41264E+1
218	12/06/2023	17:04:46.630	0.00000E+0	0.00000E+0	4.09622E+0	-4.83792E-1	0.00000E+0	0.00000E+0	1.96161E+1	1.35623E+1	1.96132E+1	1.35631E+1
219	12/06/2023	17:04:48.404	0.00000E+0	0.00000E+0	4.21375E+1	-2.17023E+0	0.00000E+0	0.00000E+0	2.00808E+1	1.30736E+1	2.00799E+1	1.30717E+1
220	12/06/2023	17:04:50.303	0.00000E+0	0.00000E+0	5.30027E+1	-6.19030E-2	0.00000E+0	0.00000E+0	2.03668E+1	1.27609E+1	2.03672E+1	1.27603E+1
221	12/06/2023	17:04:52.304	0.00000E+0	0.00000E+0	9.12695E+1	9.05634E-1	0.00000E+0	0.00000E+0	2.08792E+1	1.23063E+1	2.08786E+1	1.23066E+1
222	12/06/2023	17:04:54.268	0.00000E+0	0.00000E+0	7.63652E+1	3.81687E-1	0.00000E+0	0.00000E+0	2.06275E+1	1.25594E+1	2.06300E+1	1.25578E+1
223	12/06/2023	17:04:56.162	0.00000E+0	0.00000E+0	8.11232E+1	1.36873E+0	0.00000E+0	0.00000E+0	2.07101E+1	1.25010E+1	2.07099E+1	1.25006E+1
224	12/06/2023	17:04:58.097	0.00000E+0	0.00000E+0	-1.91870E+1	5.59794E-1	0.00000E+0	0.00000E+0	1.92626E+1	1.39101E+1	1.92639E+1	1.39100E+1
225	12/06/2023	17:04:59.987	0.00000E+0	0.00000E+0	-2.43466E+1	-9.58525E-3	0.00000E+0	0.00000E+0	1.92218E+1	1.39518E+1	1.92205E+1	1.39512E+1
226	12/06/2023	17:05:01.970	0.00000E+0	0.00000E+0	-3.33531E+1	-1.70357E-1	0.00000E+0	0.00000E+0	1.90847E+1	1.40776E+1	1.90859E+1	1.40800E+1
227	12/06/2023	17:05:03.902	0.00000E+0	0.00000E+0	-5.41217E+1	4.37552E-1	0.00000E+0	0.00000E+0	1.88168E+1	1.43507E+1	1.88173E+1	1.43505E+1
228	12/06/2023	17:05:05.868	0.00000E+0	0.00000E+0	-2.50445E+0	-7.49024E-2	0.00000E+0	0.00000E+0	1.95498E+1	1.36499E+1	1.95486E+1	1.36499E+1
229	12/06/2023	17:05:07.826	0.00000E+0	0.00000E+0	-3.37183E+1	-4.92450E-1	0.00000E+0	0.00000E+0	1.90963E+1	1.40855E+1	1.90975E+1	1.40852E+1
230	12/06/2023	17:05:09.721	0.00000E+0	0.00000E+0	-1.25175E+1	-6.62817E-1	0.00000E+0	0.00000E+0	1.93923E+1	1.37966E+1	1.93915E+1	1.37956E+1
231	12/06/2023	17:05:11.547	0.00000E+0	0.00000E+0	-9.47972E+0	-1.33832E+0	0.00000E+0	0.00000E+0	1.94541E+1	1.37188E+1	1.94530E+1	1.37194E+1
232	12/06/2023	17:05:13.419	0.00000E+0	0.00000E+0	-4.37053E-1	1.52917E+0	0.00000E+0	0.00000E+0	1.94938E+1	1.36523E+1	1.94951E+1	1.36512E+1
233	12/06/2023	17:05:15.434	0.00000E+0	0.00000E+0	-1.15035E+1	3.61383E-1	0.00000E+0	0.00000E+0	1.93745E+1	1.37826E+1	1.93730E+1	1.37804E+1
234	12/06/2023	17:05:17.412	0.00000E+0	0.00000E+0	-1.08892E+1	2.77467E-1	0.00000E+0	0.00000E+0	1.94049E+1	1.37765E+1	1.94060E+1	1.37754E+1
235	12/06/2023	17:05:19.346	0.00000E+0	0.00000E+0	-7.10861E+0	-2.84422E-1	0.00000E+0	0.00000E+0	1.94512E+1	1.37210E+1	1.94512E+1	1.37210E+1
236	12/06/2023	17:05:21.274	0.00000E+0	0.00000E+0	-2.12489E+1	-2.42769E-1	0.00000E+0	0.00000E+0	1.92276E+1	1.39390E+1	1.92267E+1	1.39393E+1
237	12/06/2023	17:05:23.277	0.00000E+0	0.00000E+0	-8.11043E+0	-7.66339E-1	0.00000E+0	0.00000E+0	1.94439E+1	1.37473E+1	1.94435E+1	1.37476E+1
238	12/06/2023	17:05:25.195	0.00000E+0	0.00000E+0	-1.96393E+1	-7.88711E-1	0.00000E+0	0.00000E+0	1.92581E+1	1.39007E+1	1.92584E+1	1.39012E+1
239	12/06/2023	17:05:27.060	0.00000E+0	0.00000E+0	-1.39212E+1	-9.17920E-1	0.00000E+0	0.00000E+0	1.93778E+1	1.38401E+1	1.93783E+1	1.38375E+1
240	12/06/2023	17:05:28.822	0.00000E+0	0.00000E+0	-1.21847E+1	-1.56681E-1	0.00000E+0	0.00000E+0	1.93081E+1	1.38599E+1	1.93072E+1	1.38615E+1
241	12/06/2023	17:05:30.742	0.00000E+0	0.00000E+0	1.87016E+1	-7.13241E-1	0.00000E+0	0.00000E+0	1.98053E+1	1.33460E+1	1.98036E+1	1.33447E+1
242	12/06/2023	17:05:32.639	0.00000E+0	0.00000E+0	1.67098E+1	-8.53239E-1	0.00000E+0	0.00000E+0	1.98047E+1	1.33798E+1	1.98055E+1	1.33795E+1
243	12/06/2023	17:05:34.391	0.00000E+0	0.00000E+0	8.00361E+0	4.65719E-1	0.00000E+0	0.00000E+0	1.96494E+1	1.35146E+1	1.96507E+1	1.35140E+1
244	12/06/2023	17:05:36.726	0.00000E+0	0.00000E+0	6.16445E+0	2.06481E-1	0.00000E+0	0.00000E+0	1.96464E+1	1.35460E+1	1.96475E+1	1.35426E+1
245	12/06/2023	17:05:38.650	0.00000E+0	0.00000E+0	2.03964E+1	-1.85576E-1	0.00000E+0	0.00000E+0	1.98320E+1	1.33423E+1	1.98340E+1	1.33429E+1
246	12/06/2023	17:05:40.565	0.00000E+0	0.00000E+0	1.18287E+1	-2.19941E-1	0.00000E+0	0.00000E+0	1.96989E+1	1.34282E+1	1.96987E+1	1.34273E+1
247	12/06/2023	17:05:42.578	0.00000E+0	0.00000E+0	1.76221E+1	4.53529E-2	0.00000E+0	0.00000E+0	1.97798E+1	1.33950E+1	1.97776E+1	1.33927E+1
248	12/06/2023	17:05:44.474	0.00000E+0	0.00000E+0	4.73698E+1	-5.37836E-1	0.00000E+0	0.00000E+0	2.02046E+1	1.29829E+1	2.02032E+1	1.29827E+1
249	12/06/2023	17:05:46.401	0.00000E+0	0.00000E+0	9.64314E+0	-8.88464E-1	0.00000E+0	0.00000E+0	1.97111E+1	1.34670E+1	1.97092E+1	1.34673E+1
250	12/06/2023	17:05:48.409	0.00000E+0	0.00000E+0	2.61160E+1	-6.91291E-3	0.00000E+0	0.00000E+0	1.99357E+1	1.32607E+1	1.99389E+1	1.32605E+1
251	12/06/2023	17:05:50.398	0.00000E+0	0.00000E+0	4.06129E+1	-3.57639E-2	0.00000E+0	0.00000E+0	2.01327E+1	1.30504E+1	2.01321E+1	1.30491E+1
252	12/06/2023	17:05:52.532	0.00000E+0	0.00000E+0	7.92860E+0	1.93709E-1	0.00000E+0	0.00000E+0	1.96550E+1	1.35179E+1	1.96533E+1	1.35179E+1
253	12/06/2023	17:05:54.305	0.00000E+0	0.00000E+0	3.09981E+1	7.25763E-1	0.00000E+0	0.00000E+0	1.99694E+1	1.32121E+1	1.99698E+1	1.32118E+1
254	12/06/2023	17:05:56.052	0.00000E+0	0.00000E+0	1.82180E+1	7.33778E-1	0.00000E+0	0.00000E+0	1.97994E+1	1.33614E+1	1.97965E+1	1.33592E+1
255	12/06/2023	17:05:57.855	0.00000E+0	0.00000E+0	2.89829E+1	1.39559E+0	0.00000E+0	0.00000E+0	1.99675E+1	1.32128E+1	1.99681E+1	1.32154E+1
256	12/06/2023	17:05:59.631	0.00000E+0	0.00000E+0	-3.62692E+1	-1.07790E+0	0.00000E+0	0.00000E+0	1.90545E+1	1.41459E+1	1.90548E+1	1.41462E+1
257	12/06/2023	17:06:01.551	0.00000E+0	0.00000E+0	-1.37924E+1	1.53671E-1	0.00000E+0	0.00000E+0	1.93592E+1	1.38303E+1	1.93593E+1	1.38285E+1
258	12/06/2023	17:06:03.470	0.00000E+0	0.00000E+0	-1.62749E+1	5.27542E-1	0.00000E+0	0.00000E+0	1.93253E+1	1.38500E+1	1.93280E+1	1.38509E+1
259	12/06/2023	17:06:05.348	0.00000E+0	0.00000E+0	-1.13214E+1	-7.35611E-2	0.00000E+0	0.00000E+0	1.93972E+1	1.37816E+1	1.93974E+1	1.37828E+1
260	12/06/2023	17:06:07.380	0.00000E+0	0.00000E+0	-1.38860E+1	2.37186E-2	0.00000E+0	0.00000E+0	1.93790E+1	1.38022E+1	1.93780E+1	1.38045E+1
261	12/06/2023	17:06:09.251	0.00000E+0	0.00000E+0	-5.83350E+0	-2.84008E-1	0.00000E+0	0.00000E+0	1.94793E+1	1.36986E+1	1.94804E+1	1.37007E+1
262	12/06/2023	17:06:11.164	0.00000E+0	0.00000E+0	-2.65004E+1	3.91723E-1	0.00000E+0	0.00000E+0	1.91830E+1	1.39882E+1	1.91826E+1	1.39888E+1
263	12/06/2023	17:06:13.165	0.00000E+0	0.00000E+0	-4.31673E+1	-1.26075E+0	0.00000E+0	0.00000E+0	1.89668E+1	1.42098E+1	1.89684E+1	1.42090E+1
264	12/06/2023	17:06:15.093	0.00000E+0	0.00000E+0	-1.05236E+1	-1.71292E+0	0.00000E+0	0.00000E+0	1.93905E+1	1.37799E+1	1.93916E+1	1.37803E+1
265	12/06/2023	17:06:16.956	0.00000E+0	0.00000E+0	-3.49024E+1	-1.75646E-1	0.00000E+0	0.00000E+0	1.90920E+1	1.40980E+1	1.90907E+1	1.40972E+1
266	12/06/2023	17:06:18.706	0.00000E+0	0.00000E+0	-3.77071E+1	8.09227E-1	0.00000E+0	0.00000E+0	1.89786E+1	1.41610E+1	1.89784E+1	1.41604E+1
267	12/06/2023	17:06:20.515	0.00000E+0	0.00000E+0	-1.37883E+1	-1.20845E+0	0.00000E+0	0.00000E+0	1.93779E+1	1.37978E+1	1.93781E+1	1.37993E+1
268	12/06/2023	17:06:22.349	0.00000E+0	0.00000E+0	-5.04779E+1	5.73465E-2	0.00000E+0	0.00000E+0	1.88324E+1	1.43222E+1	1.88307E+1	1.43241E+1
269	12/06/2023	17:06:24.235	0.00000E+0	0.00000E+0	2.49856E+1	1.51631E+0	0.00000E+0	0.00000E+0	1.98506E+1	1.33671E+1	1.98494E+1	1.33672E+1
270	12/06/2023	17:06:26.163	0.00000E+0	0.00000E+0	1.20276E+2	1.21626E+0	0.00000E+0	0.00000E+0	2.12708E+1	1.19428E+1	2.12719E+1	1.19420E+1
271	12/06/2023	17:06:28.178	0.00000E+0	0.00000E+0	1.93389E+2	-1.30458E-1	0.00000E+0	0.00000E+0	2.23433E+1	1.09192E+1	2.23432E+1	1.09188E+1
272	12/06/2023	17:06:30.081	0.00000E+0	0.00000E+0	2.48224E+1	3.31296E+0	0.00000E+0	0.00000E+0	2.00411E+1	1.31318E+1	2.00399E+1	1.31346E+1
273	12/06/2023	17:06:32.052	0.00000E+0	0.00000E+0	-1.66327E+2	-1.31862E+0	0.00000E+0	0.00000E+0	1.71768E+1	1.59474E+1	1.71746E+1	1.59492E+1
274	12/06/2023	17:06:33.934	0.00000E+0	0.00000E+0	-1.12925E+2	2.16141E-1	0.00000E+0	0.00000E+0	1.79393E+1	1.52170E+1	1.79404E+1	1.52172E+1
275	12/06/2023	17:06:35.857	0.00000E+0	0.00000E+0	4.51403E+1	-9.32078E-1	0.00000E+0	0.00000E+0	2.01570E+1	1.31361E+1	2.01562E+1	1.31365E+1
276	12/06/2023	17:06:37.897	0.00000E+0	0.00000E+0	1.43592E+2	1.61628E+0	0.00000E+0	0.00000E+0	2.15675E+1	1.16149E+1	2.15682E+1	1.16154E+1
277	12/06/2023	17:06:39.649	0.00000E+0	0.00000E+0	1.62862E+2	1.74937E+0	0.00000E+0	0.00000E+0	2.19163E+1	1.13006E+1	2.19169E+1	1.13018E+1
278	12/06/2023	17:06:41.471	0.00000E+0	0.00000E+0	-7.95981E+1	1.93961E-1	0.00000E+0	0.00000E+0	1.85232E+1	1.46280E+1	1.85216E+1	1.46271E+1
279	12/06/2023	17:06:43.219	0.00000E+0	0.00000E+0	-1.61303E+2	-1.32036E+0	0.00000E+0	0.00000E+0	1.72475E+1	1.58949E+1	1.72464E+1	1.58930E+1
280	12/06/2023	17:06:44.951	0.00000E+0	0.00000E+0	-1.56057E+2	-8.74143E-1	0.00000E+0	0.00000E+0	1.73278E+1	1.58140E+1	1.73281E+1	1.58148E+1
281	12/06/2023	17:06:46.976	0.00000E+0	0.00000E+0	1.48164E+2	-1.46664E+0	0.00000E+0	0.00000E+0	2.15831E+1	1.16008E+1	2.15813E+1	1.16008E+1
282	12/06/2023	17:06:48.895	0.00000E+0	0.00000E+0	1.80013E+2	1.08940E+0	0.00000E+0	0.00000E+0	2.21807E+1	1.10812E+1	2.21812E+1	1.10807E+1
283	12/06/2023	17:06:50.815	0.00000E+0	0.00000E+0	-4.84117E+1	-2.83728E-1	0.00000E+0	0.00000E+0	1.90738E+1	1.41189E+1	1.90725E+1	1.41165E+1
284	12/06/2023	17:06:52.810	0.00000E+0	0.00000E+0	-1.86465E+2	-2.07875E+0	0.00000E+0	0.00000E+0	1.68884E+1	1.62446E+1	1.68890E+1	1.62444E+1
285	12/06/2023	17:06:54.738	0.00000E+0	0.00000E+0	-1.35132E+2	-2.11932E+0	0.00000E+0	0.00000E+0	1.75742E+1	1.55707E+1	1.75755E+1	1.55714E+1
286	12/06/2023	17:06:56.681	0.00000E+0	0.00000E+0	1.93146E+2	2.03180E+0	0.00000E+0	0.00000E+0	2.22747E+1	1.09538E+1	2.22746E+1	1.09549E+1
287	12/06/2023	17:06:58.584	0.00000E+0	0.00000E+0	1.61442E+2	1.56995E+0	0.00000E+0	0.00000E+0	2.18860E+1	1.13244E+1	2.18868E+1	1.13262E+1
288	12/06/2023	17:07:00.507	0.00000E+0	0.00000E+0	-9.90629E+1	-1.82308E+0	0.00000E+0	0.00000E+0	1.82342E+1	1.49141E+1	1.82337E+1	1.49152E+1
289	12/06/2023	17:07:02.424	0.00000E+0	0.00000E+0	-2.66875E+2	-1.35229E+0	0.00000E+0	0.00000E+0	1.57667E+1	1.73421E+1	1.57669E+1	1.73433E+1
290	12/06/2023	17:07:04.202	0.00000E+0	0.00000E+0	7.61454E+1	1.87175E-1	0.00000E+0	0.00000E+0	2.05405E+1	1.27471E+1	2.05402E+1	1.27453E+1
291	12/06/2023	17:07:05.974	0.00000E+0	0.00000E+0	1.90852E+2	3.22563E-1	0.00000E+0	0.00000E+0	2.22198E+1	1.09378E+1	2.22180E+1	1.09386E+1
292	12/06/2023	17:07:07.771	0.00000E+0	0.00000E+0	1.36261E+2	1.05823E+0	0.00000E+0	0.00000E+0	2.15453E+1	1.16613E+1	2.15475E+1	1.16611E+1
293	12/06/2023	17:07:09.690	0.00000E+0	0.00000E+0	-1.48720E+2	-2.30811E+0	0.00000E+0	0.00000E+0	1.74708E+1	1.56624E+1	1.74692E+1	1.56619E+1
294	12/06/2023	17:07:11.737	0.00000E+0	0.00000E+0	-1.72621E+2	-7.73531E-1	0.00000E+0	0.00000E+0	1.70745E+1	1.60807E+1	1.70746E+1	1.60820E+1
295	12/06/2023	17:07:13.626	0.00000E+0	0.00000E+0	-1.57269E+1	-5.86481E-1	0.00000E+0	0.00000E+0	1.91542E+1	1.40342E+1	1.91521E+1	1.40324E+1
296	12/06/2023	17:07:15.523	0.00000E+0	0.00000E+0	1.80637E+2	3.20784E+0	0.00000E+0	0.00000E+0	2.21403E+1	1.11052E+1	2.21420E+1	1.11030E+1
297	12/06/2023	17:07:17.557	0.00000E+0	0.00000E+0	1.60650E+2	1.11623E+0	0.00000E+0	0.00000E+0	2.18722E+1	1.13640E+1	2.18708E+1	1.13656E+1
298	12/06/2023	17:07:19.468	0.00000E+0	0.00000E+0	-1.87378E+2	-1.25155E+0	0.00000E+0	0.00000E+0	1.68998E+1	1.62229E+1	1.69003E+1	1.62220E+1
299	12/06/2023	17:07:21.409	0.00000E+0	0.00000E+0	-1.86088E+2	-8.48461E-1	0.00000E+0	0.00000E+0	1.68754E+1	1.62416E+1	1.68746E+1	1.62416E+1
300	12/06/2023	17:07:23.425	0.00000E+0	0.00000E+0	1.06008E+2	4.01926E-1	0.00000E+0	0.00000E+0	2.09185E+1	1.22569E+1	2.09165E+1	1.22574E+1
301	12/06/2023	17:07:25.163	0.00000E+0	0.00000E+0	2.20257E+2	3.40314E+0	0.00000E+0	0.00000E+0	2.26693E+1	1.05224E+1	2.26699E+1	1.05230E+1
302	12/06/2023	17:07:27.002	0.00000E+0	0.00000E+0	5.36422E+1	6.03273E-1	0.00000E+0	0.00000E+0	2.05105E+1	1.26819E+1	2.05105E+1	1.26827E+1
303	12/06/2023	17:07:28.908	0.00000E+0	0.00000E+0	-1.80631E+2	-2.20290E+0	0.00000E+0	0.00000E+0	1.70047E+1	1.61353E+1	1.70058E+1	1.61356E+1
304	12/06/2023	17:07:30.663	0.00000E+0	0.00000E+0	-1.53358E+2	-7.82776E-1	0.00000E+0	0.00000E+0	1.73341E+1	1.57910E+1	1.73334E+1	1.57903E+1
305	12/06/2023	17:07:32.670	0.00000E+0	0.00000E+0	9.56607E+1	4.39856E-1	0.00000E+0	0.00000E+0	2.08192E+1	1.23404E+1	2.08199E+1	1.23376E+1
306	12/06/2023	17:07:34.539	0.00000E+0	0.00000E+0	1.93925E+2	1.70297E+0	0.00000E+0	0.00000E+0	2.23379E+1	1.08993E+1	2.23360E+1	1.09006E+1
307	12/06/2023	17:07:36.448	0.00000E+0	0.00000E+0	9.11634E+1	2.58653E+0	0.00000E+0	0.00000E+0	2.09761E+1	1.22195E+1	2.09737E+1	1.22211E+1
308	12/06/2023	17:07:38.368	0.00000E+0	0.00000E+0	-1.69038E+2	-1.86773E+0	0.00000E+0	0.00000E+0	1.71521E+1	1.59748E+1	1.71491E+1	1.59766E+1
309	12/06/2023	17:07:40.229	0.00000E+0	0.00000E+0	-1.48130E+2	-2.26633E+0	0.00000E+0	0.00000E+0	1.74054E+1	1.57048E+1	1.74024E+1	1.57043E+1
310	12/06/2023	17:07:42.248	0.00000E+0	0.00000E+0	5.99531E+1	2.07286E+0	0.00000E+0	0.00000E+0	2.03358E+1	1.28656E+1	2.03350E+1	1.28641E+1
311	12/06/2023	17:07:44.168	0.00000E+0	0.00000E+0	1.49415E+2	1.99864E+0	0.00000E+0	0.00000E+0	2.16846E+1	1.15029E+1	2.16838E+1	1.15010E+1
312	12/06/2023	17:07:46.082	0.00000E+0	0.00000E+0	1.67777E+2	1.68877E+0	0.00000E+0	0.00000E+0	2.19850E+1	1.12677E+1	2.19843E+1	1.12689E+1
313	12/06/2023	17:07:47.919	0.00000E+0	0.00000E+0	-9.22103E+1	-1.08411E+0	0.00000E+0	0.00000E+0	1.82939E+1	1.48419E+1	1.82910E+1	1.48446E+1
314	12/06/2023	17:07:49.800	0.00000E+0	0.00000E+0	-1.73706E+2	-2.06124E+0	0.00000E+0	0.00000E+0	1.70707E+1	1.60615E+1	1.70716E+1	1.60604E+1
315	12/06/2023	17:07:51.649	0.00000E+0	0.00000E+0	-1.44728E+2	-4.16020E-1	0.00000E+0	0.00000E+0	1.74062E+1	1.57191E+1	1.74069E+1	1.57186E+1
316	12/06/2023	17:07:53.357	0.00000E+0	0.00000E+0	8.77346E+1	6.12403E-2	0.00000E+0	0.00000E+0	2.07684E+1	1.24420E+1	2.07699E+1	1.24407E+1
317	12/06/2023	17:07:55.271	0.00000E+0	0.00000E+0	1.64424E+2	1.57649E+0	0.00000E+0	0.00000E+0	2.18929E+1	1.13373E+1	2.18951E+1	1.13376E+1
318	12/06/2023	17:07:57.259	0.00000E+0	0.00000E+0	1.09387E+2	4.78154E-1	0.00000E+0	0.00000E+0	2.11629E+1	1.20313E+1	2.11629E+1	1.20314E+1
319	12/06/2023	17:07:59.156	0.00000E+0	0.00000E+0	-1.47957E+2	-1.24760E+0	0.00000E+0	0.00000E+0	1.74659E+1	1.56833E+1	1.74677E+1	1.56837E+1
320	12/06/2023	17:08:01.107	0.00000E+0	0.00000E+0	-1.80631E+2	-1.90338E+0	0.00000E+0	0.00000E+0	1.69753E+1	1.61894E+1	1.69740E+1	1.61904E+1
321	12/06/2023	17:08:03.028	0.00000E+0	0.00000E+0	-1.18953E+2	-7.64049E-1	0.00000E+0	0.00000E+0	1.77847E+1	1.53599E+1	1.77846E+1	1.53591E+1
322	12/06/2023	17:08:04.884	0.00000E+0	0.00000E+0	1.48775E+2	1.77353E+0	0.00000E+0	0.00000E+0	2.16393E+1	1.15835E+1	2.16404E+1	1.15814E+1
323	12/06/2023	17:08:06.905	0.00000E+0	0.00000E+0	1.79670E+2	-4.12927E-1	0.00000E+0	0.00000E+0	2.20756E+1	1.11046E+1	2.20746E+1	1.11038E+1
324	12/06/2023	17:08:08.820	0.00000E+0	0.00000E+0	1.38173E+2	1.06877E+0	0.00000E+0	0.00000E+0	2.15978E+1	1.16243E+1	2.15972E+1	1.16253E+1
325	12/06/2023	17:08:10.569	0.00000E+0	0.00000E+0	-1.39039E+2	2.71576E-2	0.00000E+0	0.00000E+0	1.76102E+1	1.55225E+1	1.76097E+1	1.55207E+1
326	12/06/2023	17:08:12.557	0.00000E+0	0.00000E+0	-1.88079E+2	-9.06658E-1	0.00000E+0	0.00000E+0	1.68906E+1	1.62286E+1	1.68897E+1	1.62281E+1
327	12/06/2023	17:08:14.305	0.00000E+0	0.00000E+0	-1.38382E+2	-3.45845E-1	0.00000E+0	0.00000E+0	1.75643E+1	1.56001E+1	1.75639E+1	1.56022E+1
328	12/06/2023	17:08:16.166	0.00000E+0	0.00000E+0	8.19401E+1	2.05298E+0	0.00000E+0	0.00000E+0	2.06912E+1	1.25208E+1	2.06904E+1	1.25195E+1
329	12/06/2023	17:08:17.987	0.00000E+0	0.00000E+0	1.92330E+2	1.85487E+0	0.00000E+0	0.00000E+0	2.22926E+1	1.09292E+1	2.22928E+1	1.09280E+1
330	12/06/2023	17:08:19.942	0.00000E+0	0.00000E+0	2.14728E+2	8.40247E-1	0.00000E+0	0.00000E+0	2.26473E+1	1.06364E+1	2.26490E+1	1.06350E+1
331	12/06/2023	17:08:21.923	0.00000E+0	0.00000E+0	-1.80719E+2	-2.24685E+0	0.00000E+0	0.00000E+0	1.69931E+1	1.61405E+1	1.69928E+1	1.61426E+1
332	12/06/2023	17:08:23.846	0.00000E+0	0.00000E+0	-1.70706E+2	-8.43649E-1	0.00000E+0	0.00000E+0	1.70790E+1	1.60405E+1	1.70770E+1	1.60412E+1
333	12/06/2023	17:08:25.764	0.00000E+0	0.00000E+0	1.83353E+1	1.17492E+0	0.00000E+0	0.00000E+0	1.97005E+1	1.34694E+1	1.97004E+1	1.34657E+1
334	12/06/2023	17:08:27.675	0.00000E+0	0.00000E+0	1.53624E+2	1.53071E+0	0.00000E+0	0.00000E+0	2.17305E+1	1.14823E+1	2.17325E+1	1.14795E+1
335	12/06/2023	17:08:29.560	0.00000E+0	0.00000E+0	2.20635E+2	1.56073E+0	0.00000E+0	0.00000E+0	2.26347E+1	1.05682E+1	2.26361E+1	1.05674E+1
336	12/06/2023	17:08:31.560	0.00000E+0	0.00000E+0	-1.05746E+1	2.27371E+0	0.00000E+0	0.00000E+0	1.95994E+1	1.35248E+1	1.96008E+1	1.35263E+1
337	12/06/2023	17:08:33.299	0.00000E+0	0.00000E+0	-1.97492E+2	-1.84410E+0	0.00000E+0	0.00000E+0	1.67869E+1	1.63584E+1	1.67898E+1	1.63604E+1
338	12/06/2023	17:08:35.058	0.00000E+0	0.00000E+0	-2.01282E+2	-2.31993E+0	0.00000E+0	0.00000E+0	1.66509E+1	1.64348E+1	1.66489E+1	1.64342E+1
339	12/06/2023	17:08:36.917	0.00000E+0	0.00000E+0	1.24488E+2	1.24374E+0	0.00000E+0	0.00000E+0	2.12825E+1	1.19123E+1	2.12841E+1	1.19145E+1
340	12/06/2023	17:08:38.716	0.00000E+0	0.00000E+0	1.98298E+2	2.62071E+0	0.00000E+0	0.00000E+0	2.23871E+1	1.08257E+1	2.23880E+1	1.08258E+1
341	12/06/2023	17:08:40.676	0.00000E+0	0.00000E+0	-6.27612E+1	-9.83989E-1	0.00000E+0	0.00000E+0	1.87985E+1	1.43631E+1	1.87969E+1	1.43630E+1
342	12/06/2023	17:08:42.478	0.00000E+0	0.00000E+0	-2.48888E+2	-2.19188E+0	0.00000E+0	0.00000E+0	1.60031E+1	1.71193E+1	1.60026E+1	1.71197E+1
343	12/06/2023	17:08:44.404	0.00000E+0	0.00000E+0	-3.38974E+1	1.69264E+0	0.00000E+0	0.00000E+0	1.89461E+1	1.42948E+1	1.89452E+1	1.42931E+1
344	12/06/2023	17:08:46.429	0.00000E+0	0.00000E+0	1.44568E+2	1.64696E+0	0.00000E+0	0.00000E+0	2.15630E+1	1.16289E+1	2.15627E+1	1.16313E+1
345	12/06/2023	17:08:48.296	0.00000E+0	0.00000E+0	2.30528E+2	2.12472E+0	0.00000E+0	0.00000E+0	2.28651E+1	1.03681E+1	2.28654E+1	1.03665E+1
346	12/06/2023	17:08:50.230	0.00000E+0	0.00000E+0	-1.65833E+2	-1.11279E+0	0.00000E+0	0.00000E+0	1.73024E+1	1.58410E+1	1.73020E+1	1.58407E+1
347	12/06/2023	17:08:52.181	0.00000E+0	0.00000E+0	-2.35191E+2	-1.27158E+0	0.00000E+0	0.00000E+0	1.62066E+1	1.69181E+1	1.62043E+1	1.69194E+1
348	12/06/2023	17:08:54.075	0.00000E+0	0.00000E+0	1.09041E+2	1.14273E+0	0.00000E+0	0.00000E+0	2.09989E+1	1.21580E+1	2.09993E+1	1.21574E+1
349	12/06/2023	17:08:55.940	0.00000E+0	0.00000E+0	1.91905E+2	1.27903E+0	0.00000E+0	0.00000E+0	2.23020E+1	1.09105E+1	2.23007E+1	1.09090E+1
350	12/06/2023	17:08:57.757	0.00000E+0	0.00000E+0	1.10001E+2	8.10740E-1	0.00000E+0	0.00000E+0	2.11219E+1	1.20845E+1	2.11221E+1	1.20828E+1
351	12/06/2023	17:08:59.537	0.00000E+0	0.00000E+0	-1.48731E+2	-8.91164E-1	0.00000E+0	0.00000E+0	1.74189E+1	1.57190E+1	1.74195E+1	1.57176E+1
352	12/06/2023	17:09:01.405	0.00000E+0	0.00000E+0	-1.30134E+2	-1.62886E+0	0.00000E+0	0.00000E+0	1.76735E+1	1.54641E+1	1.76725E+1	1.54629E+1
353	12/06/2023	17:09:03.254	0.00000E+0	0.00000E+0	-5.60023E+1	-2.89253E-1	0.00000E+0	0.00000E+0	1.86987E+1	1.44458E+1	1.86965E+1	1.44476E+1
354	12/06/2023	17:09:05.185	0.00000E+0	0.00000E+0	1.19930E+2	1.65149E+0	0.00000E+0	0.00000E+0	2.12355E+1	1.19356E+1	2.12360E+1	1.19363E+1
355	12/06/2023	17:09:07.103	0.00000E+0	0.00000E+0	1.55560E+2	3.47213E+0	0.00000E+0	0.00000E+0	2.17501E+1	1.14452E+1	2.17483E+1	1.14468E+1
356	12/06/2023	17:09:08.956	0.00000E+0	0.00000E+0	5.24503E+1	1.85135E-1	0.00000E+0	0.00000E+0	2.03995E+1	1.27690E+1	2.03996E+1	1.27683E+1
357	12/06/2023	17:09:10.944	0.00000E+0	0.00000E+0	-1.43394E+2	-1.64828E+0	0.00000E+0	0.00000E+0	1.75089E+1	1.56268E+1	1.75074E+1	1.56294E+1
358	12/06/2023	17:09:12.794	0.00000E+0	0.00000E+0	-1.60408E+2	-1.74128E+0	0.00000E+0	0.00000E+0	1.72524E+1	1.59228E+1	1.72540E+1	1.59220E+1
359	12/06/2023	17:09:14.696	0.00000E+0	0.00000E+0	-3.56385E+1	1.86645E+0	0.00000E+0	0.00000E+0	1.89318E+1	1.42487E+1	1.89311E+1	1.42491E+1
360	12/06/2023	17:09:16.815	0.00000E+0	0.00000E+0	1.28773E+2	9.03549E-1	0.00000E+0	0.00000E+0	2.13412E+1	1.18576E+1	2.13394E+1	1.18582E+1
361	12/06/2023	17:09:18.552	0.00000E+0	0.00000E+0	1.42000E+2	9.13315E-1	0.00000E+0	0.00000E+0	2.15611E+1	1.16499E+1	2.15600E+1	1.16510E+1
362	12/06/2023	17:09:20.324	0.00000E+0	0.00000E+0	-4.30006E+1	-2.42595E-1	0.00000E+0	0.00000E+0	1.90191E+1	1.41295E+1	1.90180E+1	1.41305E+1
363	12/06/2023	17:09:22.212	0.00000E+0	0.00000E+0	-1.12319E+2	-1.26721E+0	0.00000E+0	0.00000E+0	1.79536E+1	1.51908E+1	1.79543E+1	1.51905E+1
364	12/06/2023	17:09:23.889	0.00000E+0	0.00000E+0	-1.15981E+2	-8.42677E-1	0.00000E+0	0.00000E+0	1.78664E+1	1.52878E+1	1.78644E+1	1.52879E+1
365	12/06/2023	17:09:25.824	0.00000E+0	0.00000E+0	7.41392E+1	7.95702E-1	0.00000E+0	0.00000E+0	2.05833E+1	1.26707E+1	2.05817E+1	1.26687E+1
366	12/06/2023	17:09:27.658	0.00000E+0	0.00000E+0	1.18007E+2	6.20977E-1	0.00000E+0	0.00000E+0	2.11870E+1	1.19968E+1	2.11860E+1	1.19956E+1
367	12/06/2023	17:09:29.541	0.00000E+0	0.00000E+0	1.43124E+2	2.24672E+0	0.00000E+0	0.00000E+0	2.16205E+1	1.15919E+1	2.16207E+1	1.15931E+1
368	12/06/2023	17:09:31.387	0.00000E+0	0.00000E+0	-9.35564E+1	-6.65381E-1	0.00000E+0	0.00000E+0	1.82565E+1	1.49162E+1	1.82563E+1	1.49185E+1
369	12/06/2023	17:09:33.221	0.00000E+0	0.00000E+0	-1.31962E+2	-7.37880E-1	0.00000E+0	0.00000E+0	1.76563E+1	1.54785E+1	1.76568E+1	1.54790E+1
370	12/06/2023	17:09:35.100	0.00000E+0	0.00000E+0	-1.25732E+2	1.03129E+0	0.00000E+0	0.00000E+0	1.77700E+1	1.53950E+1	1.77722E+1	1.53953E+1
371	12/06/2023	17:09:36.973	0.00000E+0	0.00000E+0	4.01339E+1	8.71087E-1	0.00000E+0	0.00000E+0	2.01084E+1	1.30964E+1	2.01096E+1	1.30984E+1
372	12/06/2023	17:09:38.842	0.00000E+0	0.00000E+0	1.01865E+2	1.22757E-1	0.00000E+0	0.00000E+0	2.09971E+1	1.22120E+1	2.09979E+1	1.22095E+1
373	12/06/2023	17:09:40.730	0.00000E+0	0.00000E+0	1.17850E+2	1.26505E+0	0.00000E+0	0.00000E+0	2.12126E+1	1.19882E+1	2.12117E+1	1.19873E+1
374	12/06/2023	17:09:42.600	0.00000E+0	0.00000E+0	9.94686E+0	-1.16334E+0	0.00000E+0	0.00000E+0	1.97732E+1	1.34227E+1	1.97748E+1	1.34216E+1
375	12/06/2023	17:09:44.344	0.00000E+0	0.00000E+0	-1.26664E+2	-1.16668E+0	0.00000E+0	0.00000E+0	1.77701E+1	1.53758E+1	1.77695E+1	1.53769E+1
376	12/06/2023	17:09:46.086	0.00000E+0	0.00000E+0	-1.13163E+2	-5.03445E-1	0.00000E+0	0.00000E+0	1.79459E+1	1.52030E+1	1.79440E+1	1.52041E+1
377	12/06/2023	17:09:48.002	0.00000E+0	0.00000E+0	4.39449E+1	5.44215E-1	0.00000E+0	0.00000E+0	2.01410E+1	1.30688E+1	2.01412E+1	1.30682E+1
378	12/06/2023	17:09:50.023	0.00000E+0	0.00000E+0	9.30291E+1	1.06612E+0	0.00000E+0	0.00000E+0	2.09189E+1	1.22957E+1	2.09198E+1	1.22953E+1
379	12/06/2023	17:09:51.956	0.00000E+0	0.00000E+0	1.95653E+1	9.29136E-1	0.00000E+0	0.00000E+0	1.98527E+1	1.33298E+1	1.98502E+1	1.33308E+1
380	12/06/2023	17:09:53.867	0.00000E+0	0.00000E+0	6.25738E+1	-2.76118E-1	0.00000E+0	0.00000E+0	2.04664E+1	1.27462E+1	2.04652E+1	1.27453E+1
381	12/06/2023	17:09:55.856	0.00000E+0	0.00000E+0	2.57649E+1	4.11532E-1	0.00000E+0	0.00000E+0	1.99796E+1	1.32230E+1	1.99804E+1	1.32215E+1
382	12/06/2023	17:09:57.760	0.00000E+0	0.00000E+0	-5.79501E+1	2.78226E-1	0.00000E+0	0.00000E+0	1.87326E+1	1.44178E+1	1.87321E+1	1.44202E+1
383	12/06/2023	17:09:59.768	0.00000E+0	0.00000E+0	-7.33236E+1	-7.62492E-1	0.00000E+0	0.00000E+0	1.85036E+1	1.46460E+1	1.85016E+1	1.46458E+1
384	12/06/2023	17:10:01.671	0.00000E+0	0.00000E+0	-5.69227E+1	2.13357E-1	0.00000E+0	0.00000E+0	1.87868E+1	1.43987E+1	1.87869E+1	1.43978E+1
385	12/06/2023	17:10:03.486	0.00000E+0	0.00000E+0	-2.08960E+1	3.81219E-1	0.00000E+0	0.00000E+0	1.92312E+1	1.39225E+1	1.92334E+1	1.39212E+1
386	12/06/2023	17:10:05.398	0.00000E+0	0.00000E+0	-4.24162E+1	2.35733E-1	0.00000E+0	0.00000E+0	1.88715E+1	1.42632E+1	1.88714E+1	1.42639E+1
387	12/06/2023	17:10:07.226	0.00000E+0	0.00000E+0	-2.82671E+1	-2.86539E-1	0.00000E+0	0.00000E+0	1.91268E+1	1.40400E+1	1.91286E+1	1.40412E+1
388	12/06/2023	17:10:08.983	0.00000E+0	0.00000E+0	2.72951E+1	4.86611E-1	0.00000E+0	0.00000E+0	1.99143E+1	1.32407E+1	1.99149E+1	1.32421E+1
389	12/06/2023	17:10:10.865	0.00000E+0	0.00000E+0	6.53054E+1	1.27398E+0	0.00000E+0	0.00000E+0	2.04684E+1	1.27013E+1	2.04680E+1	1.27033E+1
390	12/06/2023	17:10:12.680	0.00000E+0	0.00000E+0	4.90442E+1	1.82268E+0	0.00000E+0	0.00000E+0	2.02551E+1	1.29309E+1	2.02554E+1	1.29303E+1
391	12/06/2023	17:10:14.637	0.00000E+0	0.00000E+0	8.63215E+1	3.41011E-1	0.00000E+0	0.00000E+0	2.07916E+1	1.24208E+1	2.07948E+1	1.24192E+1
392	12/06/2023	17:10:16.631	0.00000E+0	0.00000E+0	6.24991E+1	6.38341E-1	0.00000E+0	0.00000E+0	2.04467E+1	1.27356E+1	2.04464E+1	1.27335E+1
393	12/06/2023	17:10:18.526	0.00000E+0	0.00000E+0	-2.53933E+1	-5.47983E-1	0.00000E+0	0.00000E+0	1.92171E+1	1.39235E+1	1.92178E+1	1.39244E+1
394	12/06/2023	17:10:20.493	0.00000E+0	0.00000E+0	-1.06928E+2	-1.46575E-1	0.00000E+0	0.00000E+0	1.80505E+1	1.51193E+1	1.80489E+1	1.51196E+1
395	12/06/2023	17:10:22.377	0.00000E+0	0.00000E+0	-1.28991E+2	-4.61685E-1	0.00000E+0	0.00000E+0	1.76986E+1	1.54383E+1	1.77039E+1	1.54383E+1
396	12/06/2023	17:10:24.308	0.00000E+0	0.00000E+0	-5.56721E+1	-3.38746E-1	0.00000E+0	0.00000E+0	1.87303E+1	1.44298E+1	1.87297E+1	1.44289E+1
397	12/06/2023	17:10:26.189	0.00000E+0	0.00000E+0	7.71746E+1	-7.66532E-1	0.00000E+0	0.00000E+0	2.06539E+1	1.25665E+1	2.06541E+1	1.25679E+1
398	12/06/2023	17:10:28.042	0.00000E+0	0.00000E+0	4.67313E+1	1.77617E-1	0.00000E+0	0.00000E+0	2.01799E+1	1.29561E+1	2.01795E+1	1.29575E+1
399	12/06/2023	17:10:29.898	0.00000E+0	0.00000E+0	9.23845E+1	9.46922E-1	0.00000E+0	0.00000E+0	2.08815E+1	1.23129E+1	2.08822E+1	1.23123E+1
400	12/06/2023	17:10:31.646	0.00000E+0	0.00000E+0	9.96298E+1	4.83379E-1	0.00000E+0	0.00000E+0	2.09853E+1	1.22279E+1	2.09846E+1	1.22265E+1
401	12/06/2023	17:10:33.558	0.00000E+0	0.00000E+0	-6.58591E+1	4.01476E-2	0.00000E+0	0.00000E+0	1.86599E+1	1.44923E+1	1.86604E+1	1.44949E+1
402	12/06/2023	17:10:35.631	0.00000E+0	0.00000E+0	-6.09822E+1	-2.76628E-1	0.00000E+0	0.00000E+0	1.86719E+1	1.44819E+1	1.86707E+1	1.44815E+1
403	12/06/2023	17:10:37.562	0.00000E+0	0.00000E+0	-9.25900E+1	-5.46469E-1	0.00000E+0	0.00000E+0	1.81835E+1	1.49352E+1	1.81853E+1	1.49352E+1
404	12/06/2023	17:10:39.592	0.00000E+0	0.00000E+0	-8.88973E+1	-1.48976E+0	0.00000E+0	0.00000E+0	1.83189E+1	1.48524E+1	1.83181E+1	1.48521E+1
405	12/06/2023	17:10:41.510	0.00000E+0	0.00000E+0	1.79902E+0	2.33113E-1	0.00000E+0	0.00000E+0	1.94901E+1	1.37039E+1	1.94901E+1	1.37032E+1
406	12/06/2023	17:10:43.283	0.00000E+0	0.00000E+0	9.36704E+1	-3.08587E-1	0.00000E+0	0.00000E+0	2.09057E+1	1.22752E+1	2.09057E+1	1.22742E+1
407	12/06/2023	17:10:45.264	0.00000E+0	0.00000E+0	5.14322E+1	5.87771E-2	0.00000E+0	0.00000E+0	2.02635E+1	1.29292E+1	2.02641E+1	1.29280E+1
408	12/06/2023	17:10:47.062	0.00000E+0	0.00000E+0	7.38316E+1	-5.18845E-2	0.00000E+0	0.00000E+0	2.06376E+1	1.25553E+1	2.06354E+1	1.25550E+1
409	12/06/2023	17:10:48.961	0.00000E+0	0.00000E+0	5.17767E+1	-1.06819E-1	0.00000E+0	0.00000E+0	2.03099E+1	1.28825E+1	2.03081E+1	1.28835E+1
410	12/06/2023	17:10:50.809	0.00000E+0	0.00000E+0	3.28707E+1	-1.49118E-1	0.00000E+0	0.00000E+0	2.00059E+1	1.31942E+1	2.00091E+1	1.31930E+1
411	12/06/2023	17:10:52.554	0.00000E+0	0.00000E+0	-2.46251E+1	4.29145E-1	0.00000E+0	0.00000E+0	1.92529E+1	1.39109E+1	1.92517E+1	1.39094E+1
412	12/06/2023	17:10:54.370	0.00000E+0	0.00000E+0	-8.01242E+1	-1.41958E+0	0.00000E+0	0.00000E+0	1.84100E+1	1.47272E+1	1.84125E+1	1.47278E+1
413	12/06/2023	17:10:56.302	0.00000E+0	0.00000E+0	-5.39370E+1	-8.83494E-2	0.00000E+0	0.00000E+0	1.87566E+1	1.43937E+1	1.87573E+1	1.43945E+1
414	12/06/2023	17:10:58.228	0.00000E+0	0.00000E+0	-7.21491E+1	-4.12474E-1	0.00000E+0	0.00000E+0	1.85160E+1	1.46172E+1	1.85180E+1	1.46168E+1
415	12/06/2023	17:11:00.171	0.00000E+0	0.00000E+0	-7.25160E+1	-1.63964E-1	0.00000E+0	0.00000E+0	1.85768E+1	1.46195E+1	1.85759E+1	1.46205E+1
416	12/06/2023	17:11:02.069	0.00000E+0	0.00000E+0	3.83083E+1	5.58464E-2	0.00000E+0	0.00000E+0	2.01160E+1	1.31028E+1	2.01161E+1	1.31026E+1
417	12/06/2023	17:11:04.009	0.00000E+0	0.00000E+0	7.62740E+1	-2.77851E+0	0.00000E+0	0.00000E+0	2.06370E+1	1.24994E+1	2.06356E+1	1.25005E+1
418	12/06/2023	17:11:05.982	0.00000E+0	0.00000E+0	5.16018E+1	2.47485E+0	0.00000E+0	0.00000E+0	2.02753E+1	1.29332E+1	2.02748E+1	1.29351E+1
419	12/06/2023	17:11:07.860	0.00000E+0	0.00000E+0	8.44760E+1	1.90927E-2	0.00000E+0	0.00000E+0	2.07548E+1	1.24644E+1	2.07547E+1	1.24630E+1
420	12/06/2023	17:11:09.702	0.00000E+0	0.00000E+0	8.18944E+1	8.41165E-1	0.00000E+0	0.00000E+0	2.07216E+1	1.24673E+1	2.07229E+1	1.24682E+1
421	12/06/2023	17:11:11.518	0.00000E+0	0.00000E+0	-4.40341E+1	-5.23829E-1	0.00000E+0	0.00000E+0	1.89964E+1	1.41677E+1	1.89966E+1	1.41669E+1
422	12/06/2023	17:11:13.287	0.00000E+0	0.00000E+0	-8.77406E+1	-7.14090E-1	0.00000E+0	0.00000E+0	1.83126E+1	1.48326E+1	1.83129E+1	1.48318E+1
423	12/06/2023	17:11:15.119	0.00000E+0	0.00000E+0	-6.45463E+1	-3.39909E-1	0.00000E+0	0.00000E+0	1.86113E+1	1.45424E+1	1.86117E+1	1.45437E+1
424	12/06/2023	17:11:16.966	0.00000E+0	0.00000E+0	-5.06805E+1	-1.31831E+0	0.00000E+0	0.00000E+0	1.88736E+1	1.43036E+1	1.88731E+1	1.43049E+1
425	12/06/2023	17:11:18.884	0.00000E+0	0.00000E+0	-5.31318E+1	-5.83666E-1	0.00000E+0	0.00000E+0	1.88586E+1	1.43068E+1	1.88580E+1	1.43070E+1
426	12/06/2023	17:11:20.789	0.00000E+0	0.00000E+0	-9.24084E+0	6.91541E-1	0.00000E+0	0.00000E+0	1.93392E+1	1.38639E+1	1.93414E+1	1.38618E+1
427	12/06/2023	17:11:22.669	0.00000E+0	0.00000E+0	-1.06051E+0	9.18862E-1	0.00000E+0	0.00000E+0	1.95398E+1	1.36432E+1	1.95381E+1	1.36427E+1
428	12/06/2023	17:11:24.534	0.00000E+0	0.00000E+0	7.55275E+1	1.81031E-1	0.00000E+0	0.00000E+0	2.06330E+1	1.25638E+1	2.06307E+1	1.25653E+1
429	12/06/2023	17:11:26.416	0.00000E+0	0.00000E+0	8.81830E+1	-1.33613E-1	0.00000E+0	0.00000E+0	2.08157E+1	1.23816E+1	2.08148E+1	1.23804E+1
430	12/06/2023	17:11:28.370	0.00000E+0	0.00000E+0	5.22670E+1	8.63634E-1	0.00000E+0	0.00000E+0	2.03457E+1	1.28716E+1	2.03471E+1	1.28721E+1
431	12/06/2023	17:11:30.269	0.00000E+0	0.00000E+0	-3.70564E+1	-7.14892E-2	0.00000E+0	0.00000E+0	1.91016E+1	1.40644E+1	1.91012E+1	1.40646E+1
432	12/06/2023	17:11:32.103	0.00000E+0	0.00000E+0	-9.65458E+1	-3.71319E-1	0.00000E+0	0.00000E+0	1.81627E+1	1.49880E+1	1.81644E+1	1.49874E+1
433	12/06/2023	17:11:34.082	0.00000E+0	0.00000E+0	-1.06354E+2	-1.71045E+0	0.00000E+0	0.00000E+0	1.80201E+1	1.51328E+1	1.80206E+1	1.51349E+1
434	12/06/2023	17:11:35.815	0.00000E+0	0.00000E+0	5.92844E+1	1.90763E+0	0.00000E+0	0.00000E+0	2.03778E+1	1.28320E+1	2.03793E+1	1.28323E+1
435	12/06/2023	17:11:37.722	0.00000E+0	0.00000E+0	5.99021E+1	1.12995E+0	0.00000E+0	0.00000E+0	2.03984E+1	1.27873E+1	2.03984E+1	1.27899E+1
436	12/06/2023	17:11:39.522	0.00000E+0	0.00000E+0	1.01385E+2	3.53444E+0	0.00000E+0	0.00000E+0	2.09448E+1	1.22203E+1	2.09474E+1	1.22219E+1
437	12/06/2023	17:11:41.295	0.00000E+0	0.00000E+0	1.88477E+1	-2.06954E+0	0.00000E+0	0.00000E+0	1.99836E+1	1.32507E+1	1.99836E+1	1.32525E+1
438	12/06/2023	17:11:43.200	0.00000E+0	0.00000E+0	-8.95760E+1	-2.65913E+0	0.00000E+0	0.00000E+0	1.82722E+1	1.48642E+1	1.82714E+1	1.48651E+1
439	12/06/2023	17:11:45.061	0.00000E+0	0.00000E+0	-7.45268E+1	-1.33328E+0	0.00000E+0	0.00000E+0	1.84938E+1	1.46583E+1	1.84945E+1	1.46593E+1
440	12/06/2023	17:11:46.951	0.00000E+0	0.00000E+0	-5.16717E+1	5.58122E-1	0.00000E+0	0.00000E+0	1.88091E+1	1.43188E+1	1.88076E+1	1.43204E+1
441	12/06/2023	17:11:48.845	0.00000E+0	0.00000E+0	-6.08205E+1	-6.99713E-1	0.00000E+0	0.00000E+0	1.86926E+1	1.44767E+1	1.86932E+1	1.44761E+1
442	12/06/2023	17:11:50.682	0.00000E+0	0.00000E+0	-7.47766E+1	-2.00556E-1	0.00000E+0	0.00000E+0	1.84755E+1	1.46864E+1	1.84741E+1	1.46873E+1
443	12/06/2023	17:11:52.519	0.00000E+0	0.00000E+0	8.46232E+0	-4.27396E-1	0.00000E+0	0.00000E+0	1.96046E+1	1.35081E+1	1.96077E+1	1.35088E+1
444	12/06/2023	17:11:54.284	0.00000E+0	0.00000E+0	5.68723E+1	-1.88959E+0	0.00000E+0	0.00000E+0	2.04089E+1	1.27991E+1	2.04097E+1	1.28006E+1
445	12/06/2023	17:11:56.165	0.00000E+0	0.00000E+0	4.70900E+1	-1.45419E+0	0.00000E+0	0.00000E+0	2.02930E+1	1.29277E+1	2.02963E+1	1.29262E+1
446	12/06/2023	17:11:58.031	0.00000E+0	0.00000E+0	6.92654E+1	9.34805E-1	0.00000E+0	0.00000E+0	2.05290E+1	1.26572E+1	2.05280E+1	1.26561E+1
447	12/06/2023	17:11:59.853	0.00000E+0	0.00000E+0	1.04792E+2	7.01005E-1	0.00000E+0	0.00000E+0	2.10576E+1	1.21409E+1	2.10585E+1	1.21419E+1
448	12/06/2023	17:12:01.522	0.00000E+0	0.00000E+0	3.43142E+1	5.90282E-1	0.00000E+0	0.00000E+0	2.01313E+1	1.30542E+1	2.01321E+1	1.30534E+1
449	12/06/2023	17:12:03.380	0.00000E+0	0.00000E+0	-1.14231E+2	-1.60006E+0	0.00000E+0	0.00000E+0	1.79667E+1	1.52155E+1	1.79662E+1	1.52154E+1
450	12/06/2023	17:12:05.275	0.00000E+0	0.00000E+0	-1.42958E+2	-6.33892E-1	0.00000E+0	0.00000E+0	1.74956E+1	1.56068E+1	1.74957E+1	1.56079E+1
451	12/06/2023	17:12:07.179	0.00000E+0	0.00000E+0	-6.78017E+1	-2.33316E-1	0.00000E+0	0.00000E+0	1.85239E+1	1.46164E+1	1.85251E+1	1.46136E+1
452	12/06/2023	17:12:09.022	0.00000E+0	0.00000E+0	1.08701E+2	2.32915E-1	0.00000E+0	0.00000E+0	2.10830E+1	1.21039E+1	2.10829E+1	1.21027E+1
453	12/06/2023	17:12:10.857	0.00000E+0	0.00000E+0	1.22021E+2	1.16760E+0	0.00000E+0	0.00000E+0	2.12936E+1	1.19063E+1	2.12942E+1	1.19055E+1
454	12/06/2023	17:12:12.792	0.00000E+0	0.00000E+0	1.01337E+2	1.70492E+0	0.00000E+0	0.00000E+0	2.10797E+1	1.21309E+1	2.10795E+1	1.21326E+1
455	12/06/2023	17:12:14.628	0.00000E+0	0.00000E+0	-1.02768E+2	-7.12060E-1	0.00000E+0	0.00000E+0	1.80967E+1	1.50460E+1	1.80980E+1	1.50472E+1
456	12/06/2023	17:12:16.393	0.00000E+0	0.00000E+0	-1.30242E+2	-8.18080E-1	0.00000E+0	0.00000E+0	1.76985E+1	1.54377E+1	1.76983E+1	1.54375E+1
457	12/06/2023	17:12:18.363	0.00000E+0	0.00000E+0	-9.18645E+1	-9.48984E-1	0.00000E+0	0.00000E+0	1.82542E+1	1.48990E+1	1.82536E+1	1.48972E+1
458	12/06/2023	17:12:20.071	0.00000E+0	0.00000E+0	8.31338E+1	-6.03538E-2	0.00000E+0	0.00000E+0	2.07127E+1	1.24859E+1	2.07122E+1	1.24849E+1
459	12/06/2023	17:12:21.924	0.00000E+0	0.00000E+0	1.47600E+2	2.95796E+0	0.00000E+0	0.00000E+0	2.16699E+1	1.15645E+1	2.16705E+1	1.15615E+1
460	12/06/2023	17:12:23.564	0.00000E+0	0.00000E+0	1.62979E+2	1.78340E+0	0.00000E+0	0.00000E+0	2.19112E+1	1.13228E+1	2.19101E+1	1.13207E+1
461	12/06/2023	17:12:25.417	0.00000E+0	0.00000E+0	-1.27384E+2	-1.48726E+0	0.00000E+0	0.00000E+0	1.77703E+1	1.53566E+1	1.77711E+1	1.53565E+1
462	12/06/2023	17:12:27.387	0.00000E+0	0.00000E+0	-1.69762E+2	-2.71596E+0	0.00000E+0	0.00000E+0	1.71150E+1	1.60120E+1	1.71158E+1	1.60133E+1
463	12/06/2023	17:12:29.249	0.00000E+0	0.00000E+0	-8.05307E+1	5.00990E-2	0.00000E+0	0.00000E+0	1.83779E+1	1.47784E+1	1.83781E+1	1.47789E+1
464	12/06/2023	17:12:31.119	0.00000E+0	0.00000E+0	1.59800E+2	6.31668E-1	0.00000E+0	0.00000E+0	2.18666E+1	1.13833E+1	2.18649E+1	1.13814E+1
465	12/06/2023	17:12:33.033	0.00000E+0	0.00000E+0	1.39454E+2	2.86360E+0	0.00000E+0	0.00000E+0	2.14835E+1	1.16922E+1	2.14835E+1	1.16945E+1
466	12/06/2023	17:12:34.823	0.00000E+0	0.00000E+0	3.22725E+1	2.71595E-1	0.00000E+0	0.00000E+0	2.02243E+1	1.29714E+1	2.02231E+1	1.29711E+1
467	12/06/2023	17:12:36.738	0.00000E+0	0.00000E+0	-1.15303E+2	-7.04348E-1	0.00000E+0	0.00000E+0	1.79058E+1	1.52478E+1	1.79071E+1	1.52510E+1
468	12/06/2023	17:12:38.615	0.00000E+0	0.00000E+0	-7.66334E+1	-7.21741E-1	0.00000E+0	0.00000E+0	1.84627E+1	1.46882E+1	1.84603E+1	1.46877E+1
469	12/06/2023	17:12:40.460	0.00000E+0	0.00000E+0	-4.90728E+1	5.56439E-1	0.00000E+0	0.00000E+0	1.88832E+1	1.42988E+1	1.88794E+1	1.42969E+1
470	12/06/2023	17:12:42.309	0.00000E+0	0.00000E+0	-7.17172E+1	-8.44936E-1	0.00000E+0	0.00000E+0	1.85267E+1	1.46501E+1	1.85264E+1	1.46490E+1
471	12/06/2023	17:12:44.141	0.00000E+0	0.00000E+0	7.70854E+1	-1.40921E+0	0.00000E+0	0.00000E+0	2.06177E+1	1.25373E+1	2.06183E+1	1.25382E+1
472	12/06/2023	17:12:46.059	0.00000E+0	0.00000E+0	5.13878E+1	-7.50812E-1	0.00000E+0	0.00000E+0	2.02396E+1	1.29014E+1	2.02411E+1	1.29006E+1
473	12/06/2023	17:12:47.953	0.00000E+0	0.00000E+0	7.70572E+1	4.05313E-1	0.00000E+0	0.00000E+0	2.06534E+1	1.25317E+1	2.06531E+1	1.25325E+1
474	12/06/2023	17:12:49.801	0.00000E+0	0.00000E+0	1.11254E+2	1.78885E+0	0.00000E+0	0.00000E+0	2.11301E+1	1.20615E+1	2.11305E+1	1.20637E+1
475	12/06/2023	17:12:51.737	0.00000E+0	0.00000E+0	-7.12343E+1	-1.72750E+0	0.00000E+0	0.00000E+0	1.85964E+1	1.45730E+1	1.85967E+1	1.45709E+1
476	12/06/2023	17:12:53.554	0.00000E+0	0.00000E+0	-1.70267E+2	-1.80660E+0	0.00000E+0	0.00000E+0	1.71308E+1	1.60206E+1	1.71323E+1	1.60201E+1
477	12/06/2023	17:12:55.352	0.00000E+0	0.00000E+0	-1.02101E+2	-1.30400E+0	0.00000E+0	0.00000E+0	1.80825E+1	1.50892E+1	1.80799E+1	1.50903E+1
478	12/06/2023	17:12:57.163	0.00000E+0	0.00000E+0	-3.46425E+1	4.77821E-1	0.00000E+0	0.00000E+0	1.90280E+1	1.40878E+1	1.90263E+1	1.40872E+1
479	12/06/2023	17:12:59.048	0.00000E+0	0.00000E+0	3.19802E+1	-1.82705E+0	0.00000E+0	0.00000E+0	1.99675E+1	1.31710E+1	1.99687E+1	1.31720E+1
480	12/06/2023	17:13:00.865	0.00000E+0	0.00000E+0	7.27658E+1	1.31700E+0	0.00000E+0	0.00000E+0	2.05679E+1	1.26192E+1	2.05665E+1	1.26213E+1
481	12/06/2023	17:13:02.726	0.00000E+0	0.00000E+0	6.50212E+1	9.56540E-1	0.00000E+0	0.00000E+0	2.04560E+1	1.27448E+1	2.04533E+1	1.27449E+1
482	12/06/2023	17:13:04.490	0.00000E+0	0.00000E+0	7.78088E+1	8.62543E-1	0.00000E+0	0.00000E+0	2.06525E+1	1.25448E+1	2.06531E+1	1.25455E+1
483	12/06/2023	17:13:06.321	0.00000E+0	0.00000E+0	1.00423E+2	2.03661E+0	0.00000E+0	0.00000E+0	2.09975E+1	1.21888E+1	2.09965E+1	1.21872E+1
484	12/06/2023	17:13:08.004	0.00000E+0	0.00000E+0	-3.47095E+1	-2.81757E-1	0.00000E+0	0.00000E+0	1.91262E+1	1.40470E+1	1.91269E+1	1.40458E+1
485	12/06/2023	17:13:09.874	0.00000E+0	0.00000E+0	-8.17966E+1	-1.44820E+0	0.00000E+0	0.00000E+0	1.83990E+1	1.47629E+1	1.83996E+1	1.47655E+1
486	12/06/2023	17:13:11.787	0.00000E+0	0.00000E+0	-6.80970E+1	-3.00810E-1	0.00000E+0	0.00000E+0	1.85663E+1	1.45977E+1	1.85674E+1	1.45958E+1
487	12/06/2023	17:13:13.649	0.00000E+0	0.00000E+0	-7.90226E+1	-7.87369E-1	0.00000E+0	0.00000E+0	1.84257E+1	1.47311E+1	1.84269E+1	1.47310E+1
488	12/06/2023	17:13:15.551	0.00000E+0	0.00000E+0	-4.32366E+1	-9.23300E-1	0.00000E+0	0.00000E+0	1.89282E+1	1.42347E+1	1.89254E+1	1.42356E+1
489	12/06/2023	17:13:17.515	0.00000E+0	0.00000E+0	-2.27034E+1	2.48367E-1	0.00000E+0	0.00000E+0	1.91620E+1	1.40149E+1	1.91606E+1	1.40154E+1
490	12/06/2023	17:13:19.295	0.00000E+0	0.00000E+0	1.74360E+1	-4.14659E-1	0.00000E+0	0.00000E+0	1.98051E+1	1.34094E+1	1.98061E+1	1.34076E+1
491	12/06/2023	17:13:21.245	0.00000E+0	0.00000E+0	6.57933E+1	-2.09111E-1	0.00000E+0	0.00000E+0	2.05085E+1	1.26883E+1	2.05082E+1	1.26890E+1
492	12/06/2023	17:13:23.082	0.00000E+0	0.00000E+0	3.59710E+1	3.22705E-1	0.00000E+0	0.00000E+0	2.00661E+1	1.31110E+1	2.00654E+1	1.31129E+1
493	12/06/2023	17:13:25.017	0.00000E+0	0.00000E+0	7.27246E+1	1.83247E+0	0.00000E+0	0.00000E+0	2.05615E+1	1.26183E+1	2.05606E+1	1.26200E+1
494	12/06/2023	17:13:26.799	0.00000E+0	0.00000E+0	7.61153E+1	2.23525E+0	0.00000E+0	0.00000E+0	2.06272E+1	1.25557E+1	2.06290E+1	1.25561E+1
495	12/06/2023	17:13:28.526	0.00000E+0	0.00000E+0	6.85179E+1	8.63674E-2	0.00000E+0	0.00000E+0	2.05347E+1	1.26756E+1	2.05366E+1	1.26758E+1
496	12/06/2023	17:13:30.304	0.00000E+0	0.00000E+0	-5.58516E+1	-4.88806E-2	0.00000E+0	0.00000E+0	1.87435E+1	1.44057E+1	1.87405E+1	1.44051E+1
497	12/06/2023	17:13:32.119	0.00000E+0	0.00000E+0	-6.09134E+1	3.17279E-1	0.00000E+0	0.00000E+0	1.87048E+1	1.44532E+1	1.87013E+1	1.44521E+1
498	12/06/2023	17:13:34.008	0.00000E+0	0.00000E+0	-9.35440E+1	-9.97739E-1	0.00000E+0	0.00000E+0	1.82224E+1	1.49331E+1	1.82216E+1	1.49319E+1
499	12/06/2023	17:13:35.899	0.00000E+0	0.00000E+0	-9.29774E+1	-1.31757E+0	0.00000E+0	0.00000E+0	1.82065E+1	1.49857E+1	1.82041E+1	1.49876E+1
500	12/06/2023	17:13:37.758	0.00000E+0	0.00000E+0	-7.74263E+1	-1.55915E+0	0.00000E+0	0.00000E+0	1.84426E+1	1.46941E+1	1.84437E+1	1.46927E+1
