#Iteration	Date	Time	Chirp	Phase	RamanAxis	RatioMean	RatioStdDev
1	12/06/2023	16:57:57.472	0.00000000E+0	-1.56922630E+3	5.00000000E+0	4.61743580E-1	0.00000000E+0
2	12/06/2023	16:57:59.151	0.00000000E+0	-1.56294311E+3	5.00000000E+0	4.73710130E-1	0.00000000E+0
3	12/06/2023	16:58:00.915	0.00000000E+0	-1.55665993E+3	5.00000000E+0	4.84847885E-1	0.00000000E+0
4	12/06/2023	16:58:02.766	0.00000000E+0	-1.55037674E+3	5.00000000E+0	6.26598773E-1	0.00000000E+0
5	12/06/2023	16:58:04.624	0.00000000E+0	-1.54409356E+3	5.00000000E+0	3.53613376E-1	0.00000000E+0
6	12/06/2023	16:58:06.494	0.00000000E+0	-1.53781037E+3	5.00000000E+0	4.87728841E-1	0.00000000E+0
7	12/06/2023	16:58:08.312	0.00000000E+0	-1.53152719E+3	5.00000000E+0	4.94015913E-1	0.00000000E+0
8	12/06/2023	16:58:10.156	0.00000000E+0	-1.52524400E+3	5.00000000E+0	4.20885920E-1	0.00000000E+0
9	12/06/2023	16:58:12.084	0.00000000E+0	-1.51896082E+3	5.00000000E+0	3.58967051E-1	0.00000000E+0
10	12/06/2023	16:58:14.018	0.00000000E+0	-1.51267763E+3	5.00000000E+0	3.95507909E-1	0.00000000E+0
11	12/06/2023	16:58:15.900	0.00000000E+0	-1.50639444E+3	5.00000000E+0	4.16051890E-1	0.00000000E+0
12	12/06/2023	16:58:17.664	0.00000000E+0	-1.50011126E+3	5.00000000E+0	2.95840579E-1	0.00000000E+0
13	12/06/2023	16:58:19.438	0.00000000E+0	-1.49382807E+3	5.00000000E+0	3.10027688E-1	0.00000000E+0
14	12/06/2023	16:58:21.221	0.00000000E+0	-1.48754489E+3	5.00000000E+0	4.66869748E-1	0.00000000E+0
15	12/06/2023	16:58:22.889	0.00000000E+0	-1.48126170E+3	5.00000000E+0	4.39330444E-1	0.00000000E+0
16	12/06/2023	16:58:24.668	0.00000000E+0	-1.47497852E+3	5.00000000E+0	5.61093286E-1	0.00000000E+0
17	12/06/2023	16:58:26.659	0.00000000E+0	-1.46869533E+3	5.00000000E+0	6.18816144E-1	0.00000000E+0
18	12/06/2023	16:58:28.507	0.00000000E+0	-1.46241215E+3	5.00000000E+0	3.21998627E-1	0.00000000E+0
19	12/06/2023	16:58:30.418	0.00000000E+0	-1.45612896E+3	5.00000000E+0	6.55603905E-1	0.00000000E+0
20	12/06/2023	16:58:32.284	0.00000000E+0	-1.44984578E+3	5.00000000E+0	5.93499112E-1	0.00000000E+0
21	12/06/2023	16:58:34.124	0.00000000E+0	-1.44356259E+3	5.00000000E+0	6.63073313E-1	0.00000000E+0
22	12/06/2023	16:58:36.055	0.00000000E+0	-1.43727941E+3	5.00000000E+0	5.97057112E-1	0.00000000E+0
23	12/06/2023	16:58:37.944	0.00000000E+0	-1.43099622E+3	5.00000000E+0	4.21571706E-1	0.00000000E+0
24	12/06/2023	16:58:39.723	0.00000000E+0	-1.42471304E+3	5.00000000E+0	4.85422465E-1	0.00000000E+0
25	12/06/2023	16:58:41.506	0.00000000E+0	-1.41842985E+3	5.00000000E+0	4.82483576E-1	0.00000000E+0
26	12/06/2023	16:58:43.269	0.00000000E+0	-1.41214666E+3	5.00000000E+0	4.92540962E-1	0.00000000E+0
27	12/06/2023	16:58:45.130	0.00000000E+0	-1.40586348E+3	5.00000000E+0	4.98325647E-1	0.00000000E+0
28	12/06/2023	16:58:46.923	0.00000000E+0	-1.39958029E+3	5.00000000E+0	4.66316229E-1	0.00000000E+0
29	12/06/2023	16:58:48.806	0.00000000E+0	-1.39329711E+3	5.00000000E+0	6.60175037E-1	0.00000000E+0
30	12/06/2023	16:58:50.719	0.00000000E+0	-1.38701392E+3	5.00000000E+0	3.00406966E-1	0.00000000E+0
31	12/06/2023	16:58:52.559	0.00000000E+0	-1.38073074E+3	5.00000000E+0	3.93896096E-1	0.00000000E+0
32	12/06/2023	16:58:54.483	0.00000000E+0	-1.37444755E+3	5.00000000E+0	4.65834799E-1	0.00000000E+0
33	12/06/2023	16:58:56.385	0.00000000E+0	-1.36816437E+3	5.00000000E+0	3.50217615E-1	0.00000000E+0
34	12/06/2023	16:58:58.205	0.00000000E+0	-1.36188118E+3	5.00000000E+0	6.47492126E-1	0.00000000E+0
35	12/06/2023	16:59:00.146	0.00000000E+0	-1.35559800E+3	5.00000000E+0	6.67748888E-1	0.00000000E+0
36	12/06/2023	16:59:01.968	0.00000000E+0	-1.34931481E+3	5.00000000E+0	3.74765245E-1	0.00000000E+0
37	12/06/2023	16:59:03.841	0.00000000E+0	-1.34303163E+3	5.00000000E+0	6.43229819E-1	0.00000000E+0
38	12/06/2023	16:59:05.644	0.00000000E+0	-1.33674844E+3	5.00000000E+0	4.90362467E-1	0.00000000E+0
39	12/06/2023	16:59:07.415	0.00000000E+0	-1.33046526E+3	5.00000000E+0	3.41460629E-1	0.00000000E+0
40	12/06/2023	16:59:09.422	0.00000000E+0	-1.32418207E+3	5.00000000E+0	2.93929564E-1	0.00000000E+0
41	12/06/2023	16:59:11.263	0.00000000E+0	-1.31789889E+3	5.00000000E+0	5.73867180E-1	0.00000000E+0
42	12/06/2023	16:59:13.127	0.00000000E+0	-1.31161570E+3	5.00000000E+0	6.22237133E-1	0.00000000E+0
43	12/06/2023	16:59:14.968	0.00000000E+0	-1.30533251E+3	5.00000000E+0	4.53257329E-1	0.00000000E+0
44	12/06/2023	16:59:16.857	0.00000000E+0	-1.29904933E+3	5.00000000E+0	5.19553213E-1	0.00000000E+0
45	12/06/2023	16:59:18.770	0.00000000E+0	-1.29276614E+3	5.00000000E+0	4.43316012E-1	0.00000000E+0
46	12/06/2023	16:59:20.637	0.00000000E+0	-1.28648296E+3	5.00000000E+0	4.27710410E-1	0.00000000E+0
47	12/06/2023	16:59:22.366	0.00000000E+0	-1.28019977E+3	5.00000000E+0	3.81966395E-1	0.00000000E+0
48	12/06/2023	16:59:24.161	0.00000000E+0	-1.27391659E+3	5.00000000E+0	5.60479902E-1	0.00000000E+0
49	12/06/2023	16:59:25.884	0.00000000E+0	-1.26763340E+3	5.00000000E+0	6.01403633E-1	0.00000000E+0
50	12/06/2023	16:59:27.614	0.00000000E+0	-1.26135022E+3	5.00000000E+0	5.67758765E-1	0.00000000E+0
51	12/06/2023	16:59:29.515	0.00000000E+0	-1.25506703E+3	5.00000000E+0	3.20272324E-1	0.00000000E+0
52	12/06/2023	16:59:31.416	0.00000000E+0	-1.24878385E+3	5.00000000E+0	5.40857853E-1	0.00000000E+0
53	12/06/2023	16:59:33.373	0.00000000E+0	-1.24250066E+3	5.00000000E+0	4.57132777E-1	0.00000000E+0
54	12/06/2023	16:59:35.263	0.00000000E+0	-1.23621748E+3	5.00000000E+0	5.27310680E-1	0.00000000E+0
55	12/06/2023	16:59:37.105	0.00000000E+0	-1.22993429E+3	5.00000000E+0	6.89692719E-1	0.00000000E+0
56	12/06/2023	16:59:39.105	0.00000000E+0	-1.22365111E+3	5.00000000E+0	5.82942469E-1	0.00000000E+0
57	12/06/2023	16:59:41.064	0.00000000E+0	-1.21736792E+3	5.00000000E+0	2.81562045E-1	0.00000000E+0
58	12/06/2023	16:59:43.032	0.00000000E+0	-1.21108473E+3	5.00000000E+0	2.85208569E-1	0.00000000E+0
59	12/06/2023	16:59:44.847	0.00000000E+0	-1.20480155E+3	5.00000000E+0	3.55221094E-1	0.00000000E+0
60	12/06/2023	16:59:46.645	0.00000000E+0	-1.19851836E+3	5.00000000E+0	5.58834115E-1	0.00000000E+0
61	12/06/2023	16:59:48.483	0.00000000E+0	-1.19223518E+3	5.00000000E+0	4.19133724E-1	0.00000000E+0
62	12/06/2023	16:59:50.256	0.00000000E+0	-1.18595199E+3	5.00000000E+0	3.81901522E-1	0.00000000E+0
63	12/06/2023	16:59:52.051	0.00000000E+0	-1.17966881E+3	5.00000000E+0	5.32476401E-1	0.00000000E+0
64	12/06/2023	16:59:54.092	0.00000000E+0	-1.17338562E+3	5.00000000E+0	6.54934411E-1	0.00000000E+0
65	12/06/2023	16:59:55.982	0.00000000E+0	-1.16710244E+3	5.00000000E+0	6.69373847E-1	0.00000000E+0
66	12/06/2023	16:59:57.996	0.00000000E+0	-1.16081925E+3	5.00000000E+0	6.53011069E-1	0.00000000E+0
67	12/06/2023	16:59:59.915	0.00000000E+0	-1.15453607E+3	5.00000000E+0	6.03394940E-1	0.00000000E+0
68	12/06/2023	17:00:01.826	0.00000000E+0	-1.14825288E+3	5.00000000E+0	6.18129497E-1	0.00000000E+0
69	12/06/2023	17:00:03.831	0.00000000E+0	-1.14196970E+3	5.00000000E+0	3.20206302E-1	0.00000000E+0
70	12/06/2023	17:00:05.751	0.00000000E+0	-1.13568651E+3	5.00000000E+0	3.00892070E-1	0.00000000E+0
71	12/06/2023	17:00:07.605	0.00000000E+0	-1.12940333E+3	5.00000000E+0	3.67634152E-1	0.00000000E+0
72	12/06/2023	17:00:09.606	0.00000000E+0	-1.12312014E+3	5.00000000E+0	5.65749786E-1	0.00000000E+0
73	12/06/2023	17:00:11.522	0.00000000E+0	-1.11683696E+3	5.00000000E+0	3.33132074E-1	0.00000000E+0
74	12/06/2023	17:00:13.354	0.00000000E+0	-1.11055377E+3	5.00000000E+0	3.96307281E-1	0.00000000E+0
75	12/06/2023	17:00:15.089	0.00000000E+0	-1.10427058E+3	5.00000000E+0	3.50768979E-1	0.00000000E+0
76	12/06/2023	17:00:16.964	0.00000000E+0	-1.09798740E+3	5.00000000E+0	4.65351513E-1	0.00000000E+0
77	12/06/2023	17:00:18.947	0.00000000E+0	-1.09170421E+3	5.00000000E+0	4.42766193E-1	0.00000000E+0
78	12/06/2023	17:00:20.862	0.00000000E+0	-1.08542103E+3	5.00000000E+0	3.48614196E-1	0.00000000E+0
79	12/06/2023	17:00:22.750	0.00000000E+0	-1.07913784E+3	5.00000000E+0	5.97906277E-1	0.00000000E+0
80	12/06/2023	17:00:24.736	0.00000000E+0	-1.07285466E+3	5.00000000E+0	2.92533009E-1	0.00000000E+0
81	12/06/2023	17:00:26.656	0.00000000E+0	-1.06657147E+3	5.00000000E+0	3.85529728E-1	0.00000000E+0
82	12/06/2023	17:00:28.658	0.00000000E+0	-1.06028829E+3	5.00000000E+0	3.75644590E-1	0.00000000E+0
83	12/06/2023	17:00:30.502	0.00000000E+0	-1.05400510E+3	5.00000000E+0	3.75945689E-1	0.00000000E+0
84	12/06/2023	17:00:32.271	0.00000000E+0	-1.04772192E+3	5.00000000E+0	5.18364522E-1	0.00000000E+0
85	12/06/2023	17:00:34.197	0.00000000E+0	-1.04143873E+3	5.00000000E+0	6.05101836E-1	0.00000000E+0
86	12/06/2023	17:00:35.928	0.00000000E+0	-1.03515555E+3	5.00000000E+0	3.97767528E-1	0.00000000E+0
87	12/06/2023	17:00:37.730	0.00000000E+0	-1.02887236E+3	5.00000000E+0	3.20279284E-1	0.00000000E+0
88	12/06/2023	17:00:39.633	0.00000000E+0	-1.02258918E+3	5.00000000E+0	5.57391195E-1	0.00000000E+0
89	12/06/2023	17:00:41.560	0.00000000E+0	-1.01630599E+3	5.00000000E+0	3.23134317E-1	0.00000000E+0
90	12/06/2023	17:00:43.515	0.00000000E+0	-1.01002281E+3	5.00000000E+0	5.60644600E-1	0.00000000E+0
91	12/06/2023	17:00:45.436	0.00000000E+0	-1.00373962E+3	5.00000000E+0	5.76043368E-1	0.00000000E+0
92	12/06/2023	17:00:47.370	0.00000000E+0	-9.97456435E+2	5.00000000E+0	5.18155194E-1	0.00000000E+0
93	12/06/2023	17:00:49.371	0.00000000E+0	-9.91173249E+2	5.00000000E+0	3.04476429E-1	0.00000000E+0
94	12/06/2023	17:00:51.244	0.00000000E+0	-9.84890064E+2	5.00000000E+0	3.27834252E-1	0.00000000E+0
95	12/06/2023	17:00:53.152	0.00000000E+0	-9.78606879E+2	5.00000000E+0	6.55315187E-1	0.00000000E+0
96	12/06/2023	17:00:54.919	0.00000000E+0	-9.72323693E+2	5.00000000E+0	6.45374519E-1	0.00000000E+0
97	12/06/2023	17:00:56.751	0.00000000E+0	-9.66040508E+2	5.00000000E+0	3.40622208E-1	0.00000000E+0
98	12/06/2023	17:00:58.555	0.00000000E+0	-9.59757323E+2	5.00000000E+0	2.95424462E-1	0.00000000E+0
99	12/06/2023	17:01:00.239	0.00000000E+0	-9.53474137E+2	5.00000000E+0	5.77803168E-1	0.00000000E+0
100	12/06/2023	17:01:02.223	0.00000000E+0	-9.47190952E+2	5.00000000E+0	3.39578716E-1	0.00000000E+0
101	12/06/2023	17:01:04.243	0.00000000E+0	-9.40907767E+2	5.00000000E+0	4.17810858E-1	0.00000000E+0
102	12/06/2023	17:01:06.165	0.00000000E+0	-9.34624581E+2	5.00000000E+0	6.41743137E-1	0.00000000E+0
103	12/06/2023	17:01:08.165	0.00000000E+0	-9.28341396E+2	5.00000000E+0	5.46464929E-1	0.00000000E+0
104	12/06/2023	17:01:10.071	0.00000000E+0	-9.22058211E+2	5.00000000E+0	6.00092074E-1	0.00000000E+0
105	12/06/2023	17:01:11.939	0.00000000E+0	-9.15775026E+2	5.00000000E+0	2.98503047E-1	0.00000000E+0
106	12/06/2023	17:01:13.938	0.00000000E+0	-9.09491840E+2	5.00000000E+0	2.85288608E-1	0.00000000E+0
107	12/06/2023	17:01:15.784	0.00000000E+0	-9.03208655E+2	5.00000000E+0	3.14851970E-1	0.00000000E+0
108	12/06/2023	17:01:17.686	0.00000000E+0	-8.96925470E+2	5.00000000E+0	6.26849262E-1	0.00000000E+0
109	12/06/2023	17:01:19.455	0.00000000E+0	-8.90642284E+2	5.00000000E+0	5.55397953E-1	0.00000000E+0
110	12/06/2023	17:01:21.197	0.00000000E+0	-8.84359099E+2	5.00000000E+0	4.34386573E-1	0.00000000E+0
111	12/06/2023	17:01:23.024	0.00000000E+0	-8.78075914E+2	5.00000000E+0	5.75700107E-1	0.00000000E+0
112	12/06/2023	17:01:24.982	0.00000000E+0	-8.71792728E+2	5.00000000E+0	5.60038569E-1	0.00000000E+0
113	12/06/2023	17:01:26.821	0.00000000E+0	-8.65509543E+2	5.00000000E+0	5.58569781E-1	0.00000000E+0
114	12/06/2023	17:01:28.739	0.00000000E+0	-8.59226358E+2	5.00000000E+0	6.14340773E-1	0.00000000E+0
115	12/06/2023	17:01:30.666	0.00000000E+0	-8.52943172E+2	5.00000000E+0	6.61849966E-1	0.00000000E+0
116	12/06/2023	17:01:32.645	0.00000000E+0	-8.46659987E+2	5.00000000E+0	4.81099066E-1	0.00000000E+0
117	12/06/2023	17:01:34.590	0.00000000E+0	-8.40376802E+2	5.00000000E+0	4.71915790E-1	0.00000000E+0
118	12/06/2023	17:01:36.510	0.00000000E+0	-8.34093617E+2	5.00000000E+0	5.91609432E-1	0.00000000E+0
119	12/06/2023	17:01:38.527	0.00000000E+0	-8.27810431E+2	5.00000000E+0	3.78617355E-1	0.00000000E+0
120	12/06/2023	17:01:40.299	0.00000000E+0	-8.21527246E+2	5.00000000E+0	5.21442708E-1	0.00000000E+0
121	12/06/2023	17:01:42.220	0.00000000E+0	-8.15244061E+2	5.00000000E+0	3.27068594E-1	0.00000000E+0
122	12/06/2023	17:01:43.948	0.00000000E+0	-8.08960875E+2	5.00000000E+0	4.30059300E-1	0.00000000E+0
123	12/06/2023	17:01:45.678	0.00000000E+0	-8.02677690E+2	5.00000000E+0	5.49769615E-1	0.00000000E+0
124	12/06/2023	17:01:47.699	0.00000000E+0	-7.96394505E+2	5.00000000E+0	4.38759101E-1	0.00000000E+0
125	12/06/2023	17:01:49.609	0.00000000E+0	-7.90111319E+2	5.00000000E+0	6.01973564E-1	0.00000000E+0
126	12/06/2023	17:01:51.527	0.00000000E+0	-7.83828134E+2	5.00000000E+0	3.59626759E-1	0.00000000E+0
127	12/06/2023	17:01:53.564	0.00000000E+0	-7.77544949E+2	5.00000000E+0	6.44534744E-1	0.00000000E+0
128	12/06/2023	17:01:55.443	0.00000000E+0	-7.71261763E+2	5.00000000E+0	3.15893333E-1	0.00000000E+0
129	12/06/2023	17:01:57.423	0.00000000E+0	-7.64978578E+2	5.00000000E+0	5.86520733E-1	0.00000000E+0
130	12/06/2023	17:01:59.322	0.00000000E+0	-7.58695393E+2	5.00000000E+0	4.06113062E-1	0.00000000E+0
131	12/06/2023	17:02:01.209	0.00000000E+0	-7.52412208E+2	5.00000000E+0	3.33250883E-1	0.00000000E+0
132	12/06/2023	17:02:03.177	0.00000000E+0	-7.46129022E+2	5.00000000E+0	5.46337296E-1	0.00000000E+0
133	12/06/2023	17:02:05.043	0.00000000E+0	-7.39845837E+2	5.00000000E+0	4.76134078E-1	0.00000000E+0
134	12/06/2023	17:02:06.852	0.00000000E+0	-7.33562652E+2	5.00000000E+0	4.36968086E-1	0.00000000E+0
135	12/06/2023	17:02:08.760	0.00000000E+0	-7.27279466E+2	5.00000000E+0	5.60189463E-1	0.00000000E+0
136	12/06/2023	17:02:10.604	0.00000000E+0	-7.20996281E+2	5.00000000E+0	5.07637752E-1	0.00000000E+0
137	12/06/2023	17:02:12.534	0.00000000E+0	-7.14713096E+2	5.00000000E+0	4.67882635E-1	0.00000000E+0
138	12/06/2023	17:02:14.463	0.00000000E+0	-7.08429910E+2	5.00000000E+0	5.24109220E-1	0.00000000E+0
139	12/06/2023	17:02:16.355	0.00000000E+0	-7.02146725E+2	5.00000000E+0	2.90535400E-1	0.00000000E+0
140	12/06/2023	17:02:18.382	0.00000000E+0	-6.95863540E+2	5.00000000E+0	5.80852763E-1	0.00000000E+0
141	12/06/2023	17:02:20.295	0.00000000E+0	-6.89580354E+2	5.00000000E+0	5.51359588E-1	0.00000000E+0
142	12/06/2023	17:02:22.276	0.00000000E+0	-6.83297169E+2	5.00000000E+0	4.03242788E-1	0.00000000E+0
143	12/06/2023	17:02:24.214	0.00000000E+0	-6.77013984E+2	5.00000000E+0	3.17962701E-1	0.00000000E+0
144	12/06/2023	17:02:26.032	0.00000000E+0	-6.70730799E+2	5.00000000E+0	4.34012507E-1	0.00000000E+0
145	12/06/2023	17:02:27.922	0.00000000E+0	-6.64447613E+2	5.00000000E+0	6.15354854E-1	0.00000000E+0
146	12/06/2023	17:02:29.665	0.00000000E+0	-6.58164428E+2	5.00000000E+0	3.97499469E-1	0.00000000E+0
147	12/06/2023	17:02:31.395	0.00000000E+0	-6.51881243E+2	5.00000000E+0	4.62092139E-1	0.00000000E+0
148	12/06/2023	17:02:33.329	0.00000000E+0	-6.45598057E+2	5.00000000E+0	6.10545323E-1	0.00000000E+0
149	12/06/2023	17:02:35.183	0.00000000E+0	-6.39314872E+2	5.00000000E+0	6.73309902E-1	0.00000000E+0
150	12/06/2023	17:02:37.169	0.00000000E+0	-6.33031687E+2	5.00000000E+0	3.45480459E-1	0.00000000E+0
151	12/06/2023	17:02:39.049	0.00000000E+0	-6.26748501E+2	5.00000000E+0	6.69378660E-1	0.00000000E+0
152	12/06/2023	17:02:40.932	0.00000000E+0	-6.20465316E+2	5.00000000E+0	5.78956546E-1	0.00000000E+0
153	12/06/2023	17:02:42.922	0.00000000E+0	-6.14182131E+2	5.00000000E+0	2.88062197E-1	0.00000000E+0
154	12/06/2023	17:02:44.853	0.00000000E+0	-6.07898945E+2	5.00000000E+0	5.71970032E-1	0.00000000E+0
155	12/06/2023	17:02:46.790	0.00000000E+0	-6.01615760E+2	5.00000000E+0	3.75638672E-1	0.00000000E+0
156	12/06/2023	17:02:48.557	0.00000000E+0	-5.95332575E+2	5.00000000E+0	5.72075861E-1	0.00000000E+0
157	12/06/2023	17:02:50.309	0.00000000E+0	-5.89049390E+2	5.00000000E+0	2.85938861E-1	0.00000000E+0
158	12/06/2023	17:02:52.305	0.00000000E+0	-5.82766204E+2	5.00000000E+0	6.42825037E-1	0.00000000E+0
159	12/06/2023	17:02:54.046	0.00000000E+0	-5.76483019E+2	5.00000000E+0	3.66680784E-1	0.00000000E+0
160	12/06/2023	17:02:55.887	0.00000000E+0	-5.70199834E+2	5.00000000E+0	5.77920099E-1	0.00000000E+0
161	12/06/2023	17:02:57.890	0.00000000E+0	-5.63916648E+2	5.00000000E+0	6.49093672E-1	0.00000000E+0
162	12/06/2023	17:02:59.804	0.00000000E+0	-5.57633463E+2	5.00000000E+0	3.08628592E-1	0.00000000E+0
163	12/06/2023	17:03:01.786	0.00000000E+0	-5.51350278E+2	5.00000000E+0	5.58291713E-1	0.00000000E+0
164	12/06/2023	17:03:03.652	0.00000000E+0	-5.45067092E+2	5.00000000E+0	6.34131729E-1	0.00000000E+0
165	12/06/2023	17:03:05.508	0.00000000E+0	-5.38783907E+2	5.00000000E+0	4.34035346E-1	0.00000000E+0
166	12/06/2023	17:03:07.516	0.00000000E+0	-5.32500722E+2	5.00000000E+0	6.83824676E-1	0.00000000E+0
167	12/06/2023	17:03:09.490	0.00000000E+0	-5.26217536E+2	5.00000000E+0	5.76148092E-1	0.00000000E+0
168	12/06/2023	17:03:11.269	0.00000000E+0	-5.19934351E+2	5.00000000E+0	5.47037070E-1	0.00000000E+0
169	12/06/2023	17:03:13.116	0.00000000E+0	-5.13651166E+2	5.00000000E+0	4.84501367E-1	0.00000000E+0
170	12/06/2023	17:03:14.959	0.00000000E+0	-5.07367981E+2	5.00000000E+0	6.62281480E-1	0.00000000E+0
171	12/06/2023	17:03:16.837	0.00000000E+0	-5.01084795E+2	5.00000000E+0	5.47509035E-1	0.00000000E+0
172	12/06/2023	17:03:18.770	0.00000000E+0	-4.94801610E+2	5.00000000E+0	4.00212479E-1	0.00000000E+0
173	12/06/2023	17:03:20.627	0.00000000E+0	-4.88518425E+2	5.00000000E+0	6.90650100E-1	0.00000000E+0
174	12/06/2023	17:03:22.616	0.00000000E+0	-4.82235239E+2	5.00000000E+0	4.50235068E-1	0.00000000E+0
175	12/06/2023	17:03:24.498	0.00000000E+0	-4.75952054E+2	5.00000000E+0	3.74982864E-1	0.00000000E+0
176	12/06/2023	17:03:26.462	0.00000000E+0	-4.69668869E+2	5.00000000E+0	3.03557205E-1	0.00000000E+0
177	12/06/2023	17:03:28.413	0.00000000E+0	-4.63385683E+2	5.00000000E+0	3.59912507E-1	0.00000000E+0
178	12/06/2023	17:03:30.293	0.00000000E+0	-4.57102498E+2	5.00000000E+0	5.55499238E-1	0.00000000E+0
179	12/06/2023	17:03:32.256	0.00000000E+0	-4.50819313E+2	5.00000000E+0	4.94316983E-1	0.00000000E+0
180	12/06/2023	17:03:34.146	0.00000000E+0	-4.44536127E+2	5.00000000E+0	3.56450805E-1	0.00000000E+0
181	12/06/2023	17:03:35.915	0.00000000E+0	-4.38252942E+2	5.00000000E+0	4.90700317E-1	0.00000000E+0
182	12/06/2023	17:03:37.732	0.00000000E+0	-4.31969757E+2	5.00000000E+0	5.78243533E-1	0.00000000E+0
183	12/06/2023	17:03:39.489	0.00000000E+0	-4.25686572E+2	5.00000000E+0	5.52470540E-1	0.00000000E+0
184	12/06/2023	17:03:41.450	0.00000000E+0	-4.19403386E+2	5.00000000E+0	6.29241089E-1	0.00000000E+0
185	12/06/2023	17:03:43.332	0.00000000E+0	-4.13120201E+2	5.00000000E+0	3.26885011E-1	0.00000000E+0
186	12/06/2023	17:03:45.256	0.00000000E+0	-4.06837016E+2	5.00000000E+0	4.26732227E-1	0.00000000E+0
187	12/06/2023	17:03:47.514	0.00000000E+0	-4.00553830E+2	5.00000000E+0	4.25128759E-1	0.00000000E+0
188	12/06/2023	17:03:49.435	0.00000000E+0	-3.94270645E+2	5.00000000E+0	6.53686707E-1	0.00000000E+0
189	12/06/2023	17:03:51.431	0.00000000E+0	-3.87987460E+2	5.00000000E+0	4.36416397E-1	0.00000000E+0
190	12/06/2023	17:03:53.440	0.00000000E+0	-3.81704274E+2	5.00000000E+0	2.93953966E-1	0.00000000E+0
191	12/06/2023	17:03:55.222	0.00000000E+0	-3.75421089E+2	5.00000000E+0	4.21671725E-1	0.00000000E+0
192	12/06/2023	17:03:57.173	0.00000000E+0	-3.69137904E+2	5.00000000E+0	4.69565710E-1	0.00000000E+0
193	12/06/2023	17:03:59.012	0.00000000E+0	-3.62854718E+2	5.00000000E+0	6.39199830E-1	0.00000000E+0
194	12/06/2023	17:04:00.887	0.00000000E+0	-3.56571533E+2	5.00000000E+0	6.27908602E-1	0.00000000E+0
195	12/06/2023	17:04:02.714	0.00000000E+0	-3.50288348E+2	5.00000000E+0	3.87749837E-1	0.00000000E+0
196	12/06/2023	17:04:04.637	0.00000000E+0	-3.44005163E+2	5.00000000E+0	2.99880638E-1	0.00000000E+0
197	12/06/2023	17:04:06.557	0.00000000E+0	-3.37721977E+2	5.00000000E+0	5.83100742E-1	0.00000000E+0
198	12/06/2023	17:04:08.462	0.00000000E+0	-3.31438792E+2	5.00000000E+0	3.68158742E-1	0.00000000E+0
199	12/06/2023	17:04:10.397	0.00000000E+0	-3.25155607E+2	5.00000000E+0	6.09929665E-1	0.00000000E+0
200	12/06/2023	17:04:12.401	0.00000000E+0	-3.18872421E+2	5.00000000E+0	4.56706531E-1	0.00000000E+0
201	12/06/2023	17:04:14.329	0.00000000E+0	-3.12589236E+2	5.00000000E+0	3.03157356E-1	0.00000000E+0
202	12/06/2023	17:04:16.240	0.00000000E+0	-3.06306051E+2	5.00000000E+0	5.28152134E-1	0.00000000E+0
203	12/06/2023	17:04:18.110	0.00000000E+0	-3.00022865E+2	5.00000000E+0	3.94908738E-1	0.00000000E+0
204	12/06/2023	17:04:19.861	0.00000000E+0	-2.93739680E+2	5.00000000E+0	3.79583427E-1	0.00000000E+0
205	12/06/2023	17:04:21.693	0.00000000E+0	-2.87456495E+2	5.00000000E+0	3.81429411E-1	0.00000000E+0
206	12/06/2023	17:04:23.524	0.00000000E+0	-2.81173309E+2	5.00000000E+0	6.17843056E-1	0.00000000E+0
207	12/06/2023	17:04:25.351	0.00000000E+0	-2.74890124E+2	5.00000000E+0	6.47370726E-1	0.00000000E+0
208	12/06/2023	17:04:27.355	0.00000000E+0	-2.68606939E+2	5.00000000E+0	6.11641719E-1	0.00000000E+0
209	12/06/2023	17:04:29.242	0.00000000E+0	-2.62323754E+2	5.00000000E+0	2.91691697E-1	0.00000000E+0
210	12/06/2023	17:04:31.201	0.00000000E+0	-2.56040568E+2	5.00000000E+0	4.12548263E-1	0.00000000E+0
211	12/06/2023	17:04:33.075	0.00000000E+0	-2.49757383E+2	5.00000000E+0	7.02745622E-1	0.00000000E+0
212	12/06/2023	17:04:34.989	0.00000000E+0	-2.43474198E+2	5.00000000E+0	6.39571378E-1	0.00000000E+0
213	12/06/2023	17:04:36.963	0.00000000E+0	-2.37191012E+2	5.00000000E+0	4.30191357E-1	0.00000000E+0
214	12/06/2023	17:04:38.885	0.00000000E+0	-2.30907827E+2	5.00000000E+0	3.75901235E-1	0.00000000E+0
215	12/06/2023	17:04:40.727	0.00000000E+0	-2.24624642E+2	5.00000000E+0	3.64928950E-1	0.00000000E+0
216	12/06/2023	17:04:42.725	0.00000000E+0	-2.18341456E+2	5.00000000E+0	4.74579701E-1	0.00000000E+0
217	12/06/2023	17:04:44.513	0.00000000E+0	-2.12058271E+2	5.00000000E+0	5.99109832E-1	0.00000000E+0
218	12/06/2023	17:04:46.630	0.00000000E+0	-2.05775086E+2	5.00000000E+0	5.92654319E-1	0.00000000E+0
219	12/06/2023	17:04:48.404	0.00000000E+0	-1.99491900E+2	5.00000000E+0	6.42994512E-1	0.00000000E+0
220	12/06/2023	17:04:50.303	0.00000000E+0	-1.93208715E+2	5.00000000E+0	5.32936808E-1	0.00000000E+0
221	12/06/2023	17:04:52.304	0.00000000E+0	-1.86925530E+2	5.00000000E+0	3.52579500E-1	0.00000000E+0
222	12/06/2023	17:04:54.268	0.00000000E+0	-1.80642345E+2	5.00000000E+0	3.12563460E-1	0.00000000E+0
223	12/06/2023	17:04:56.162	0.00000000E+0	-1.74359159E+2	5.00000000E+0	4.17086865E-1	0.00000000E+0
224	12/06/2023	17:04:58.097	0.00000000E+0	-1.68075974E+2	5.00000000E+0	2.98283623E-1	0.00000000E+0
225	12/06/2023	17:04:59.987	0.00000000E+0	-1.61792789E+2	5.00000000E+0	2.92563809E-1	0.00000000E+0
226	12/06/2023	17:05:01.970	0.00000000E+0	-1.55509603E+2	5.00000000E+0	3.01546059E-1	0.00000000E+0
227	12/06/2023	17:05:03.902	0.00000000E+0	-1.49226418E+2	5.00000000E+0	4.24951837E-1	0.00000000E+0
228	12/06/2023	17:05:05.868	0.00000000E+0	-1.42943233E+2	5.00000000E+0	4.51818569E-1	0.00000000E+0
229	12/06/2023	17:05:07.826	0.00000000E+0	-1.36660047E+2	5.00000000E+0	3.04604943E-1	0.00000000E+0
230	12/06/2023	17:05:09.721	0.00000000E+0	-1.30376862E+2	5.00000000E+0	4.08361019E-1	0.00000000E+0
231	12/06/2023	17:05:11.547	0.00000000E+0	-1.24093677E+2	5.00000000E+0	5.11079737E-1	0.00000000E+0
232	12/06/2023	17:05:13.419	0.00000000E+0	-1.17810492E+2	5.00000000E+0	4.38580671E-1	0.00000000E+0
233	12/06/2023	17:05:15.434	0.00000000E+0	-1.11527306E+2	5.00000000E+0	4.52440593E-1	0.00000000E+0
234	12/06/2023	17:05:17.412	0.00000000E+0	-1.05244121E+2	5.00000000E+0	4.21528887E-1	0.00000000E+0
235	12/06/2023	17:05:19.346	0.00000000E+0	-9.89609356E+1	5.00000000E+0	4.82707076E-1	0.00000000E+0
236	12/06/2023	17:05:21.274	0.00000000E+0	-9.26777503E+1	5.00000000E+0	4.40734588E-1	0.00000000E+0
237	12/06/2023	17:05:23.277	0.00000000E+0	-8.63945650E+1	5.00000000E+0	5.04744031E-1	0.00000000E+0
238	12/06/2023	17:05:25.195	0.00000000E+0	-8.01113797E+1	5.00000000E+0	5.37377018E-1	0.00000000E+0
239	12/06/2023	17:05:27.060	0.00000000E+0	-7.38281943E+1	5.00000000E+0	3.92482186E-1	0.00000000E+0
240	12/06/2023	17:05:28.822	0.00000000E+0	-6.75450090E+1	5.00000000E+0	4.99241127E-1	0.00000000E+0
241	12/06/2023	17:05:30.742	0.00000000E+0	-6.12618237E+1	5.00000000E+0	5.50572936E-1	0.00000000E+0
242	12/06/2023	17:05:32.639	0.00000000E+0	-5.49786384E+1	5.00000000E+0	5.44497973E-1	0.00000000E+0
243	12/06/2023	17:05:34.391	0.00000000E+0	-4.86954531E+1	5.00000000E+0	3.86899529E-1	0.00000000E+0
244	12/06/2023	17:05:36.726	0.00000000E+0	-4.24122678E+1	5.00000000E+0	4.81992742E-1	0.00000000E+0
245	12/06/2023	17:05:38.650	0.00000000E+0	-3.61290825E+1	5.00000000E+0	5.82088549E-1	0.00000000E+0
246	12/06/2023	17:05:40.565	0.00000000E+0	-2.98458972E+1	5.00000000E+0	5.28430220E-1	0.00000000E+0
247	12/06/2023	17:05:42.578	0.00000000E+0	-2.35627119E+1	5.00000000E+0	5.63048050E-1	0.00000000E+0
248	12/06/2023	17:05:44.474	0.00000000E+0	-1.72795266E+1	5.00000000E+0	6.43475249E-1	0.00000000E+0
249	12/06/2023	17:05:46.401	0.00000000E+0	-1.09963413E+1	5.00000000E+0	5.75349960E-1	0.00000000E+0
250	12/06/2023	17:05:48.409	0.00000000E+0	-4.71315597E+0	5.00000000E+0	6.73754002E-1	0.00000000E+0
251	12/06/2023	17:05:50.398	0.00000000E+0	1.57002934E+0	5.00000000E+0	6.18807894E-1	0.00000000E+0
252	12/06/2023	17:05:52.532	0.00000000E+0	7.85321464E+0	5.00000000E+0	5.79451308E-1	0.00000000E+0
253	12/06/2023	17:05:54.305	0.00000000E+0	1.41364000E+1	5.00000000E+0	6.56666459E-1	0.00000000E+0
254	12/06/2023	17:05:56.052	0.00000000E+0	2.04195853E+1	5.00000000E+0	6.63823683E-1	0.00000000E+0
255	12/06/2023	17:05:57.855	0.00000000E+0	2.67027706E+1	5.00000000E+0	6.17915561E-1	0.00000000E+0
256	12/06/2023	17:05:59.631	0.00000000E+0	3.29859559E+1	5.00000000E+0	4.06449067E-1	0.00000000E+0
257	12/06/2023	17:06:01.551	0.00000000E+0	3.92691412E+1	5.00000000E+0	3.16225764E-1	0.00000000E+0
258	12/06/2023	17:06:03.470	0.00000000E+0	4.55523265E+1	5.00000000E+0	3.31196768E-1	0.00000000E+0
259	12/06/2023	17:06:05.348	0.00000000E+0	5.18355118E+1	5.00000000E+0	3.78110965E-1	0.00000000E+0
260	12/06/2023	17:06:07.380	0.00000000E+0	5.81186971E+1	5.00000000E+0	3.80589543E-1	0.00000000E+0
261	12/06/2023	17:06:09.251	0.00000000E+0	6.44018824E+1	5.00000000E+0	4.72113854E-1	0.00000000E+0
262	12/06/2023	17:06:11.164	0.00000000E+0	7.06850677E+1	5.00000000E+0	3.35447411E-1	0.00000000E+0
263	12/06/2023	17:06:13.165	0.00000000E+0	7.69682530E+1	5.00000000E+0	3.05960900E-1	0.00000000E+0
264	12/06/2023	17:06:15.093	0.00000000E+0	8.32514383E+1	5.00000000E+0	5.21918161E-1	0.00000000E+0
265	12/06/2023	17:06:16.956	0.00000000E+0	8.95346236E+1	5.00000000E+0	4.43142010E-1	0.00000000E+0
266	12/06/2023	17:06:18.706	0.00000000E+0	9.58178089E+1	5.00000000E+0	3.91009670E-1	0.00000000E+0
267	12/06/2023	17:06:20.515	0.00000000E+0	1.02100994E+2	5.00000000E+0	3.98657879E-1	0.00000000E+0
268	12/06/2023	17:06:22.349	0.00000000E+0	1.08384180E+2	5.00000000E+0	3.28348934E-1	0.00000000E+0
269	12/06/2023	17:06:24.235	0.00000000E+0	1.14667365E+2	5.00000000E+0	5.34346741E-1	0.00000000E+0
270	12/06/2023	17:06:26.163	0.00000000E+0	1.20950550E+2	5.00000000E+0	5.91223586E-1	0.00000000E+0
271	12/06/2023	17:06:28.178	0.00000000E+0	1.27233735E+2	5.00000000E+0	3.15161233E-1	0.00000000E+0
272	12/06/2023	17:06:30.081	0.00000000E+0	1.33516921E+2	5.00000000E+0	5.05063017E-1	0.00000000E+0
273	12/06/2023	17:06:32.052	0.00000000E+0	1.39800106E+2	5.00000000E+0	3.61645655E-1	0.00000000E+0
274	12/06/2023	17:06:33.934	0.00000000E+0	1.46083291E+2	5.00000000E+0	3.56297480E-1	0.00000000E+0
275	12/06/2023	17:06:35.857	0.00000000E+0	1.52366477E+2	5.00000000E+0	4.08123662E-1	0.00000000E+0
276	12/06/2023	17:06:37.897	0.00000000E+0	1.58649662E+2	5.00000000E+0	3.00094527E-1	0.00000000E+0
277	12/06/2023	17:06:39.649	0.00000000E+0	1.64932847E+2	5.00000000E+0	3.99661154E-1	0.00000000E+0
278	12/06/2023	17:06:41.471	0.00000000E+0	1.71216033E+2	5.00000000E+0	6.61124279E-1	0.00000000E+0
279	12/06/2023	17:06:43.219	0.00000000E+0	1.77499218E+2	5.00000000E+0	4.68000770E-1	0.00000000E+0
280	12/06/2023	17:06:44.951	0.00000000E+0	1.83782403E+2	5.00000000E+0	4.70625995E-1	0.00000000E+0
281	12/06/2023	17:06:46.976	0.00000000E+0	1.90065589E+2	5.00000000E+0	6.27691246E-1	0.00000000E+0
282	12/06/2023	17:06:48.895	0.00000000E+0	1.96348774E+2	5.00000000E+0	3.20900901E-1	0.00000000E+0
283	12/06/2023	17:06:50.815	0.00000000E+0	2.02631959E+2	5.00000000E+0	3.80087647E-1	0.00000000E+0
284	12/06/2023	17:06:52.810	0.00000000E+0	2.08915144E+2	5.00000000E+0	6.57834061E-1	0.00000000E+0
285	12/06/2023	17:06:54.738	0.00000000E+0	2.15198330E+2	5.00000000E+0	5.13544391E-1	0.00000000E+0
286	12/06/2023	17:06:56.681	0.00000000E+0	2.21481515E+2	5.00000000E+0	3.42198832E-1	0.00000000E+0
287	12/06/2023	17:06:58.584	0.00000000E+0	2.27764700E+2	5.00000000E+0	3.28404460E-1	0.00000000E+0
288	12/06/2023	17:07:00.507	0.00000000E+0	2.34047886E+2	5.00000000E+0	6.88373072E-1	0.00000000E+0
289	12/06/2023	17:07:02.424	0.00000000E+0	2.40331071E+2	5.00000000E+0	2.98970539E-1	0.00000000E+0
290	12/06/2023	17:07:04.202	0.00000000E+0	2.46614256E+2	5.00000000E+0	4.13184164E-1	0.00000000E+0
291	12/06/2023	17:07:05.974	0.00000000E+0	2.52897442E+2	5.00000000E+0	5.90809878E-1	0.00000000E+0
292	12/06/2023	17:07:07.771	0.00000000E+0	2.59180627E+2	5.00000000E+0	2.89639761E-1	0.00000000E+0
293	12/06/2023	17:07:09.690	0.00000000E+0	2.65463812E+2	5.00000000E+0	4.34940373E-1	0.00000000E+0
294	12/06/2023	17:07:11.737	0.00000000E+0	2.71746998E+2	5.00000000E+0	4.46954727E-1	0.00000000E+0
295	12/06/2023	17:07:13.626	0.00000000E+0	2.78030183E+2	5.00000000E+0	5.89402020E-1	0.00000000E+0
296	12/06/2023	17:07:15.523	0.00000000E+0	2.84313368E+2	5.00000000E+0	5.40002095E-1	0.00000000E+0
297	12/06/2023	17:07:17.557	0.00000000E+0	2.90596553E+2	5.00000000E+0	6.42055866E-1	0.00000000E+0
298	12/06/2023	17:07:19.468	0.00000000E+0	2.96879739E+2	5.00000000E+0	6.67723878E-1	0.00000000E+0
299	12/06/2023	17:07:21.409	0.00000000E+0	3.03162924E+2	5.00000000E+0	3.05156302E-1	0.00000000E+0
300	12/06/2023	17:07:23.425	0.00000000E+0	3.09446109E+2	5.00000000E+0	4.14487875E-1	0.00000000E+0
301	12/06/2023	17:07:25.163	0.00000000E+0	3.15729295E+2	5.00000000E+0	3.40587320E-1	0.00000000E+0
302	12/06/2023	17:07:27.002	0.00000000E+0	3.22012480E+2	5.00000000E+0	5.09797717E-1	0.00000000E+0
303	12/06/2023	17:07:28.908	0.00000000E+0	3.28295665E+2	5.00000000E+0	3.80049470E-1	0.00000000E+0
304	12/06/2023	17:07:30.663	0.00000000E+0	3.34578851E+2	5.00000000E+0	6.18518871E-1	0.00000000E+0
305	12/06/2023	17:07:32.670	0.00000000E+0	3.40862036E+2	5.00000000E+0	4.93010401E-1	0.00000000E+0
306	12/06/2023	17:07:34.539	0.00000000E+0	3.47145221E+2	5.00000000E+0	6.57845866E-1	0.00000000E+0
307	12/06/2023	17:07:36.448	0.00000000E+0	3.53428407E+2	5.00000000E+0	6.01256313E-1	0.00000000E+0
308	12/06/2023	17:07:38.368	0.00000000E+0	3.59711592E+2	5.00000000E+0	3.13596982E-1	0.00000000E+0
309	12/06/2023	17:07:40.229	0.00000000E+0	3.65994777E+2	5.00000000E+0	4.64405209E-1	0.00000000E+0
310	12/06/2023	17:07:42.248	0.00000000E+0	3.72277962E+2	5.00000000E+0	3.54927185E-1	0.00000000E+0
311	12/06/2023	17:07:44.168	0.00000000E+0	3.78561148E+2	5.00000000E+0	2.96085625E-1	0.00000000E+0
312	12/06/2023	17:07:46.082	0.00000000E+0	3.84844333E+2	5.00000000E+0	3.32049197E-1	0.00000000E+0
313	12/06/2023	17:07:47.919	0.00000000E+0	3.91127518E+2	5.00000000E+0	4.53253473E-1	0.00000000E+0
314	12/06/2023	17:07:49.800	0.00000000E+0	3.97410704E+2	5.00000000E+0	6.52795825E-1	0.00000000E+0
315	12/06/2023	17:07:51.649	0.00000000E+0	4.03693889E+2	5.00000000E+0	4.97193649E-1	0.00000000E+0
316	12/06/2023	17:07:53.357	0.00000000E+0	4.09977074E+2	5.00000000E+0	3.91808896E-1	0.00000000E+0
317	12/06/2023	17:07:55.271	0.00000000E+0	4.16260260E+2	5.00000000E+0	3.72974199E-1	0.00000000E+0
318	12/06/2023	17:07:57.259	0.00000000E+0	4.22543445E+2	5.00000000E+0	4.90906747E-1	0.00000000E+0
319	12/06/2023	17:07:59.156	0.00000000E+0	4.28826630E+2	5.00000000E+0	3.47027824E-1	0.00000000E+0
320	12/06/2023	17:08:01.107	0.00000000E+0	4.35109816E+2	5.00000000E+0	3.32376023E-1	0.00000000E+0
321	12/06/2023	17:08:03.028	0.00000000E+0	4.41393001E+2	5.00000000E+0	3.14231967E-1	0.00000000E+0
322	12/06/2023	17:08:04.884	0.00000000E+0	4.47676186E+2	5.00000000E+0	3.42190900E-1	0.00000000E+0
323	12/06/2023	17:08:06.905	0.00000000E+0	4.53959371E+2	5.00000000E+0	6.05173137E-1	0.00000000E+0
324	12/06/2023	17:08:08.820	0.00000000E+0	4.60242557E+2	5.00000000E+0	5.29539081E-1	0.00000000E+0
325	12/06/2023	17:08:10.569	0.00000000E+0	4.66525742E+2	5.00000000E+0	4.39079952E-1	0.00000000E+0
326	12/06/2023	17:08:12.557	0.00000000E+0	4.72808927E+2	5.00000000E+0	4.20486425E-1	0.00000000E+0
327	12/06/2023	17:08:14.305	0.00000000E+0	4.79092113E+2	5.00000000E+0	4.74702406E-1	0.00000000E+0
328	12/06/2023	17:08:16.166	0.00000000E+0	4.85375298E+2	5.00000000E+0	5.19856654E-1	0.00000000E+0
329	12/06/2023	17:08:17.987	0.00000000E+0	4.91658483E+2	5.00000000E+0	4.31091856E-1	0.00000000E+0
330	12/06/2023	17:08:19.942	0.00000000E+0	4.97941669E+2	5.00000000E+0	4.86406575E-1	0.00000000E+0
331	12/06/2023	17:08:21.923	0.00000000E+0	5.04224854E+2	5.00000000E+0	4.00208005E-1	0.00000000E+0
332	12/06/2023	17:08:23.846	0.00000000E+0	5.10508039E+2	5.00000000E+0	6.37149595E-1	0.00000000E+0
333	12/06/2023	17:08:25.764	0.00000000E+0	5.16791225E+2	5.00000000E+0	4.82592959E-1	0.00000000E+0
334	12/06/2023	17:08:27.675	0.00000000E+0	5.23074410E+2	5.00000000E+0	4.82734649E-1	0.00000000E+0
335	12/06/2023	17:08:29.560	0.00000000E+0	5.29357595E+2	5.00000000E+0	5.66527973E-1	0.00000000E+0
336	12/06/2023	17:08:31.560	0.00000000E+0	5.35640780E+2	5.00000000E+0	6.32451379E-1	0.00000000E+0
337	12/06/2023	17:08:33.299	0.00000000E+0	5.41923966E+2	5.00000000E+0	3.27324831E-1	0.00000000E+0
338	12/06/2023	17:08:35.058	0.00000000E+0	5.48207151E+2	5.00000000E+0	5.90670914E-1	0.00000000E+0
339	12/06/2023	17:08:36.917	0.00000000E+0	5.54490336E+2	5.00000000E+0	6.28454951E-1	0.00000000E+0
340	12/06/2023	17:08:38.716	0.00000000E+0	5.60773522E+2	5.00000000E+0	3.38712221E-1	0.00000000E+0
341	12/06/2023	17:08:40.676	0.00000000E+0	5.67056707E+2	5.00000000E+0	5.23760951E-1	0.00000000E+0
342	12/06/2023	17:08:42.478	0.00000000E+0	5.73339892E+2	5.00000000E+0	6.38490590E-1	0.00000000E+0
343	12/06/2023	17:08:44.404	0.00000000E+0	5.79623078E+2	5.00000000E+0	5.24853798E-1	0.00000000E+0
344	12/06/2023	17:08:46.429	0.00000000E+0	5.85906263E+2	5.00000000E+0	5.46575004E-1	0.00000000E+0
345	12/06/2023	17:08:48.296	0.00000000E+0	5.92189448E+2	5.00000000E+0	3.30780680E-1	0.00000000E+0
346	12/06/2023	17:08:50.230	0.00000000E+0	5.98472634E+2	5.00000000E+0	4.92287733E-1	0.00000000E+0
347	12/06/2023	17:08:52.181	0.00000000E+0	6.04755819E+2	5.00000000E+0	2.91709278E-1	0.00000000E+0
348	12/06/2023	17:08:54.075	0.00000000E+0	6.11039004E+2	5.00000000E+0	3.71471836E-1	0.00000000E+0
349	12/06/2023	17:08:55.940	0.00000000E+0	6.17322189E+2	5.00000000E+0	4.88426825E-1	0.00000000E+0
350	12/06/2023	17:08:57.757	0.00000000E+0	6.23605375E+2	5.00000000E+0	4.54378866E-1	0.00000000E+0
351	12/06/2023	17:08:59.537	0.00000000E+0	6.29888560E+2	5.00000000E+0	3.15218436E-1	0.00000000E+0
352	12/06/2023	17:09:01.405	0.00000000E+0	6.36171745E+2	5.00000000E+0	3.18649424E-1	0.00000000E+0
353	12/06/2023	17:09:03.254	0.00000000E+0	6.42454931E+2	5.00000000E+0	5.33838369E-1	0.00000000E+0
354	12/06/2023	17:09:05.185	0.00000000E+0	6.48738116E+2	5.00000000E+0	5.33304846E-1	0.00000000E+0
355	12/06/2023	17:09:07.103	0.00000000E+0	6.55021301E+2	5.00000000E+0	6.04183495E-1	0.00000000E+0
356	12/06/2023	17:09:08.956	0.00000000E+0	6.61304487E+2	5.00000000E+0	4.08333402E-1	0.00000000E+0
357	12/06/2023	17:09:10.944	0.00000000E+0	6.67587672E+2	5.00000000E+0	3.33540868E-1	0.00000000E+0
358	12/06/2023	17:09:12.794	0.00000000E+0	6.73870857E+2	5.00000000E+0	3.13110752E-1	0.00000000E+0
359	12/06/2023	17:09:14.696	0.00000000E+0	6.80154043E+2	5.00000000E+0	6.05595400E-1	0.00000000E+0
360	12/06/2023	17:09:16.815	0.00000000E+0	6.86437228E+2	5.00000000E+0	6.27834415E-1	0.00000000E+0
361	12/06/2023	17:09:18.552	0.00000000E+0	6.92720413E+2	5.00000000E+0	6.56738987E-1	0.00000000E+0
362	12/06/2023	17:09:20.324	0.00000000E+0	6.99003598E+2	5.00000000E+0	3.18871336E-1	0.00000000E+0
363	12/06/2023	17:09:22.212	0.00000000E+0	7.05286784E+2	5.00000000E+0	5.29770359E-1	0.00000000E+0
364	12/06/2023	17:09:23.889	0.00000000E+0	7.11569969E+2	5.00000000E+0	2.92796990E-1	0.00000000E+0
365	12/06/2023	17:09:25.824	0.00000000E+0	7.17853154E+2	5.00000000E+0	3.75619285E-1	0.00000000E+0
366	12/06/2023	17:09:27.658	0.00000000E+0	7.24136340E+2	5.00000000E+0	2.91579466E-1	0.00000000E+0
367	12/06/2023	17:09:29.541	0.00000000E+0	7.30419525E+2	5.00000000E+0	3.09043337E-1	0.00000000E+0
368	12/06/2023	17:09:31.387	0.00000000E+0	7.36702710E+2	5.00000000E+0	3.36622681E-1	0.00000000E+0
369	12/06/2023	17:09:33.221	0.00000000E+0	7.42985896E+2	5.00000000E+0	6.05279013E-1	0.00000000E+0
370	12/06/2023	17:09:35.100	0.00000000E+0	7.49269081E+2	5.00000000E+0	3.18402105E-1	0.00000000E+0
371	12/06/2023	17:09:36.973	0.00000000E+0	7.55552266E+2	5.00000000E+0	4.07209545E-1	0.00000000E+0
372	12/06/2023	17:09:38.842	0.00000000E+0	7.61835452E+2	5.00000000E+0	5.29908582E-1	0.00000000E+0
373	12/06/2023	17:09:40.730	0.00000000E+0	7.68118637E+2	5.00000000E+0	6.02338309E-1	0.00000000E+0
374	12/06/2023	17:09:42.600	0.00000000E+0	7.74401822E+2	5.00000000E+0	6.21718346E-1	0.00000000E+0
375	12/06/2023	17:09:44.344	0.00000000E+0	7.80685007E+2	5.00000000E+0	4.31526984E-1	0.00000000E+0
376	12/06/2023	17:09:46.086	0.00000000E+0	7.86968193E+2	5.00000000E+0	3.71548583E-1	0.00000000E+0
377	12/06/2023	17:09:48.002	0.00000000E+0	7.93251378E+2	5.00000000E+0	5.52180272E-1	0.00000000E+0
378	12/06/2023	17:09:50.023	0.00000000E+0	7.99534563E+2	5.00000000E+0	3.75652830E-1	0.00000000E+0
379	12/06/2023	17:09:51.956	0.00000000E+0	8.05817749E+2	5.00000000E+0	6.31395016E-1	0.00000000E+0
380	12/06/2023	17:09:53.867	0.00000000E+0	8.12100934E+2	5.00000000E+0	2.93902431E-1	0.00000000E+0
381	12/06/2023	17:09:55.856	0.00000000E+0	8.18384119E+2	5.00000000E+0	6.01913318E-1	0.00000000E+0
382	12/06/2023	17:09:57.760	0.00000000E+0	8.24667305E+2	5.00000000E+0	3.72716009E-1	0.00000000E+0
383	12/06/2023	17:09:59.768	0.00000000E+0	8.30950490E+2	5.00000000E+0	4.64372584E-1	0.00000000E+0
384	12/06/2023	17:10:01.671	0.00000000E+0	8.37233675E+2	5.00000000E+0	3.65811561E-1	0.00000000E+0
385	12/06/2023	17:10:03.486	0.00000000E+0	8.43516860E+2	5.00000000E+0	4.15920028E-1	0.00000000E+0
386	12/06/2023	17:10:05.398	0.00000000E+0	8.49800046E+2	5.00000000E+0	4.67844972E-1	0.00000000E+0
387	12/06/2023	17:10:07.226	0.00000000E+0	8.56083231E+2	5.00000000E+0	5.61652959E-1	0.00000000E+0
388	12/06/2023	17:10:08.983	0.00000000E+0	8.62366416E+2	5.00000000E+0	3.96482245E-1	0.00000000E+0
389	12/06/2023	17:10:10.865	0.00000000E+0	8.68649602E+2	5.00000000E+0	6.53079241E-1	0.00000000E+0
390	12/06/2023	17:10:12.680	0.00000000E+0	8.74932787E+2	5.00000000E+0	6.01427142E-1	0.00000000E+0
391	12/06/2023	17:10:14.637	0.00000000E+0	8.81215972E+2	5.00000000E+0	3.61609109E-1	0.00000000E+0
392	12/06/2023	17:10:16.631	0.00000000E+0	8.87499158E+2	5.00000000E+0	3.02913975E-1	0.00000000E+0
393	12/06/2023	17:10:18.526	0.00000000E+0	8.93782343E+2	5.00000000E+0	3.87600380E-1	0.00000000E+0
394	12/06/2023	17:10:20.493	0.00000000E+0	9.00065528E+2	5.00000000E+0	6.65134183E-1	0.00000000E+0
395	12/06/2023	17:10:22.377	0.00000000E+0	9.06348714E+2	5.00000000E+0	3.19410369E-1	0.00000000E+0
396	12/06/2023	17:10:24.308	0.00000000E+0	9.12631899E+2	5.00000000E+0	5.50684676E-1	0.00000000E+0
397	12/06/2023	17:10:26.189	0.00000000E+0	9.18915084E+2	5.00000000E+0	6.52223770E-1	0.00000000E+0
398	12/06/2023	17:10:28.042	0.00000000E+0	9.25198269E+2	5.00000000E+0	6.25309407E-1	0.00000000E+0
399	12/06/2023	17:10:29.898	0.00000000E+0	9.31481455E+2	5.00000000E+0	3.06146345E-1	0.00000000E+0
400	12/06/2023	17:10:31.646	0.00000000E+0	9.37764640E+2	5.00000000E+0	5.70730414E-1	0.00000000E+0
401	12/06/2023	17:10:33.558	0.00000000E+0	9.44047825E+2	5.00000000E+0	6.60783252E-1	0.00000000E+0
402	12/06/2023	17:10:35.631	0.00000000E+0	9.50331011E+2	5.00000000E+0	5.13031123E-1	0.00000000E+0
403	12/06/2023	17:10:37.562	0.00000000E+0	9.56614196E+2	5.00000000E+0	4.36401856E-1	0.00000000E+0
404	12/06/2023	17:10:39.592	0.00000000E+0	9.62897381E+2	5.00000000E+0	3.08126130E-1	0.00000000E+0
405	12/06/2023	17:10:41.510	0.00000000E+0	9.69180567E+2	5.00000000E+0	4.83800259E-1	0.00000000E+0
406	12/06/2023	17:10:43.283	0.00000000E+0	9.75463752E+2	5.00000000E+0	6.63069867E-1	0.00000000E+0
407	12/06/2023	17:10:45.264	0.00000000E+0	9.81746937E+2	5.00000000E+0	6.33103379E-1	0.00000000E+0
408	12/06/2023	17:10:47.062	0.00000000E+0	9.88030123E+2	5.00000000E+0	3.47300756E-1	0.00000000E+0
409	12/06/2023	17:10:48.961	0.00000000E+0	9.94313308E+2	5.00000000E+0	4.98741661E-1	0.00000000E+0
410	12/06/2023	17:10:50.809	0.00000000E+0	1.00059649E+3	5.00000000E+0	6.33013958E-1	0.00000000E+0
411	12/06/2023	17:10:52.554	0.00000000E+0	1.00687968E+3	5.00000000E+0	2.99864317E-1	0.00000000E+0
412	12/06/2023	17:10:54.370	0.00000000E+0	1.01316286E+3	5.00000000E+0	6.50634751E-1	0.00000000E+0
413	12/06/2023	17:10:56.302	0.00000000E+0	1.01944605E+3	5.00000000E+0	3.30948686E-1	0.00000000E+0
414	12/06/2023	17:10:58.228	0.00000000E+0	1.02572923E+3	5.00000000E+0	3.03055688E-1	0.00000000E+0
415	12/06/2023	17:11:00.171	0.00000000E+0	1.03201242E+3	5.00000000E+0	3.41094119E-1	0.00000000E+0
416	12/06/2023	17:11:02.069	0.00000000E+0	1.03829561E+3	5.00000000E+0	4.29235502E-1	0.00000000E+0
417	12/06/2023	17:11:04.009	0.00000000E+0	1.04457879E+3	5.00000000E+0	4.41607634E-1	0.00000000E+0
418	12/06/2023	17:11:05.982	0.00000000E+0	1.05086198E+3	5.00000000E+0	6.00193733E-1	0.00000000E+0
419	12/06/2023	17:11:07.860	0.00000000E+0	1.05714516E+3	5.00000000E+0	2.93308058E-1	0.00000000E+0
420	12/06/2023	17:11:09.702	0.00000000E+0	1.06342835E+3	5.00000000E+0	4.48538471E-1	0.00000000E+0
421	12/06/2023	17:11:11.518	0.00000000E+0	1.06971153E+3	5.00000000E+0	4.14751016E-1	0.00000000E+0
422	12/06/2023	17:11:13.287	0.00000000E+0	1.07599472E+3	5.00000000E+0	6.51539575E-1	0.00000000E+0
423	12/06/2023	17:11:15.119	0.00000000E+0	1.08227790E+3	5.00000000E+0	4.45186317E-1	0.00000000E+0
424	12/06/2023	17:11:16.966	0.00000000E+0	1.08856109E+3	5.00000000E+0	2.96538663E-1	0.00000000E+0
425	12/06/2023	17:11:18.884	0.00000000E+0	1.09484427E+3	5.00000000E+0	3.72762611E-1	0.00000000E+0
426	12/06/2023	17:11:20.789	0.00000000E+0	1.10112746E+3	5.00000000E+0	3.81766557E-1	0.00000000E+0
427	12/06/2023	17:11:22.669	0.00000000E+0	1.10741064E+3	5.00000000E+0	4.29232642E-1	0.00000000E+0
428	12/06/2023	17:11:24.534	0.00000000E+0	1.11369383E+3	5.00000000E+0	5.97065734E-1	0.00000000E+0
429	12/06/2023	17:11:26.416	0.00000000E+0	1.11997701E+3	5.00000000E+0	3.03056475E-1	0.00000000E+0
430	12/06/2023	17:11:28.370	0.00000000E+0	1.12626020E+3	5.00000000E+0	3.81716344E-1	0.00000000E+0
431	12/06/2023	17:11:30.269	0.00000000E+0	1.13254338E+3	5.00000000E+0	3.17786271E-1	0.00000000E+0
432	12/06/2023	17:11:32.103	0.00000000E+0	1.13882657E+3	5.00000000E+0	6.31370109E-1	0.00000000E+0
433	12/06/2023	17:11:34.082	0.00000000E+0	1.14510976E+3	5.00000000E+0	5.29917995E-1	0.00000000E+0
434	12/06/2023	17:11:35.815	0.00000000E+0	1.15139294E+3	5.00000000E+0	5.59062980E-1	0.00000000E+0
435	12/06/2023	17:11:37.722	0.00000000E+0	1.15767613E+3	5.00000000E+0	5.14565023E-1	0.00000000E+0
436	12/06/2023	17:11:39.522	0.00000000E+0	1.16395931E+3	5.00000000E+0	3.97647144E-1	0.00000000E+0
437	12/06/2023	17:11:41.295	0.00000000E+0	1.17024250E+3	5.00000000E+0	4.02951893E-1	0.00000000E+0
438	12/06/2023	17:11:43.200	0.00000000E+0	1.17652568E+3	5.00000000E+0	6.49538246E-1	0.00000000E+0
439	12/06/2023	17:11:45.061	0.00000000E+0	1.18280887E+3	5.00000000E+0	5.32621113E-1	0.00000000E+0
440	12/06/2023	17:11:46.951	0.00000000E+0	1.18909205E+3	5.00000000E+0	3.18400648E-1	0.00000000E+0
441	12/06/2023	17:11:48.845	0.00000000E+0	1.19537524E+3	5.00000000E+0	3.37638580E-1	0.00000000E+0
442	12/06/2023	17:11:50.682	0.00000000E+0	1.20165842E+3	5.00000000E+0	5.80431998E-1	0.00000000E+0
443	12/06/2023	17:11:52.519	0.00000000E+0	1.20794161E+3	5.00000000E+0	5.48764665E-1	0.00000000E+0
444	12/06/2023	17:11:54.284	0.00000000E+0	1.21422479E+3	5.00000000E+0	5.29901904E-1	0.00000000E+0
445	12/06/2023	17:11:56.165	0.00000000E+0	1.22050798E+3	5.00000000E+0	4.90905410E-1	0.00000000E+0
446	12/06/2023	17:11:58.031	0.00000000E+0	1.22679116E+3	5.00000000E+0	4.75952140E-1	0.00000000E+0
447	12/06/2023	17:11:59.853	0.00000000E+0	1.23307435E+3	5.00000000E+0	6.15518134E-1	0.00000000E+0
448	12/06/2023	17:12:01.522	0.00000000E+0	1.23935753E+3	5.00000000E+0	4.43119071E-1	0.00000000E+0
449	12/06/2023	17:12:03.380	0.00000000E+0	1.24564072E+3	5.00000000E+0	4.24388053E-1	0.00000000E+0
450	12/06/2023	17:12:05.275	0.00000000E+0	1.25192391E+3	5.00000000E+0	3.34488852E-1	0.00000000E+0
451	12/06/2023	17:12:07.179	0.00000000E+0	1.25820709E+3	5.00000000E+0	5.93879318E-1	0.00000000E+0
452	12/06/2023	17:12:09.022	0.00000000E+0	1.26449028E+3	5.00000000E+0	5.30588656E-1	0.00000000E+0
453	12/06/2023	17:12:10.857	0.00000000E+0	1.27077346E+3	5.00000000E+0	4.32736610E-1	0.00000000E+0
454	12/06/2023	17:12:12.792	0.00000000E+0	1.27705665E+3	5.00000000E+0	5.27839095E-1	0.00000000E+0
455	12/06/2023	17:12:14.628	0.00000000E+0	1.28333983E+3	5.00000000E+0	4.18368988E-1	0.00000000E+0
456	12/06/2023	17:12:16.393	0.00000000E+0	1.28962302E+3	5.00000000E+0	6.53795104E-1	0.00000000E+0
457	12/06/2023	17:12:18.363	0.00000000E+0	1.29590620E+3	5.00000000E+0	3.72195855E-1	0.00000000E+0
458	12/06/2023	17:12:20.071	0.00000000E+0	1.30218939E+3	5.00000000E+0	4.44985675E-1	0.00000000E+0
459	12/06/2023	17:12:21.924	0.00000000E+0	1.30847257E+3	5.00000000E+0	5.66999845E-1	0.00000000E+0
460	12/06/2023	17:12:23.564	0.00000000E+0	1.31475576E+3	5.00000000E+0	5.09122316E-1	0.00000000E+0
461	12/06/2023	17:12:25.417	0.00000000E+0	1.32103894E+3	5.00000000E+0	3.33317273E-1	0.00000000E+0
462	12/06/2023	17:12:27.387	0.00000000E+0	1.32732213E+3	5.00000000E+0	3.08518509E-1	0.00000000E+0
463	12/06/2023	17:12:29.249	0.00000000E+0	1.33360531E+3	5.00000000E+0	5.85004972E-1	0.00000000E+0
464	12/06/2023	17:12:31.119	0.00000000E+0	1.33988850E+3	5.00000000E+0	3.83794011E-1	0.00000000E+0
465	12/06/2023	17:12:33.033	0.00000000E+0	1.34617169E+3	5.00000000E+0	6.42005661E-1	0.00000000E+0
466	12/06/2023	17:12:34.823	0.00000000E+0	1.35245487E+3	5.00000000E+0	3.02719777E-1	0.00000000E+0
467	12/06/2023	17:12:36.738	0.00000000E+0	1.35873806E+3	5.00000000E+0	5.60599790E-1	0.00000000E+0
468	12/06/2023	17:12:38.615	0.00000000E+0	1.36502124E+3	5.00000000E+0	3.93723115E-1	0.00000000E+0
469	12/06/2023	17:12:40.460	0.00000000E+0	1.37130443E+3	5.00000000E+0	3.94953872E-1	0.00000000E+0
470	12/06/2023	17:12:42.309	0.00000000E+0	1.37758761E+3	5.00000000E+0	4.63791540E-1	0.00000000E+0
471	12/06/2023	17:12:44.141	0.00000000E+0	1.38387080E+3	5.00000000E+0	6.24690882E-1	0.00000000E+0
472	12/06/2023	17:12:46.059	0.00000000E+0	1.39015398E+3	5.00000000E+0	6.16282771E-1	0.00000000E+0
473	12/06/2023	17:12:47.953	0.00000000E+0	1.39643717E+3	5.00000000E+0	4.26334664E-1	0.00000000E+0
474	12/06/2023	17:12:49.801	0.00000000E+0	1.40272035E+3	5.00000000E+0	6.71060834E-1	0.00000000E+0
475	12/06/2023	17:12:51.737	0.00000000E+0	1.40900354E+3	5.00000000E+0	6.82000055E-1	0.00000000E+0
476	12/06/2023	17:12:53.554	0.00000000E+0	1.41528672E+3	5.00000000E+0	4.99984812E-1	0.00000000E+0
477	12/06/2023	17:12:55.352	0.00000000E+0	1.42156991E+3	5.00000000E+0	3.28971483E-1	0.00000000E+0
478	12/06/2023	17:12:57.163	0.00000000E+0	1.42785309E+3	5.00000000E+0	6.07523943E-1	0.00000000E+0
479	12/06/2023	17:12:59.048	0.00000000E+0	1.43413628E+3	5.00000000E+0	5.86984047E-1	0.00000000E+0
480	12/06/2023	17:13:00.865	0.00000000E+0	1.44041946E+3	5.00000000E+0	6.37217274E-1	0.00000000E+0
481	12/06/2023	17:13:02.726	0.00000000E+0	1.44670265E+3	5.00000000E+0	6.58298120E-1	0.00000000E+0
482	12/06/2023	17:13:04.490	0.00000000E+0	1.45298584E+3	5.00000000E+0	4.01332136E-1	0.00000000E+0
483	12/06/2023	17:13:06.321	0.00000000E+0	1.45926902E+3	5.00000000E+0	6.74136789E-1	0.00000000E+0
484	12/06/2023	17:13:08.004	0.00000000E+0	1.46555221E+3	5.00000000E+0	3.07945557E-1	0.00000000E+0
485	12/06/2023	17:13:09.874	0.00000000E+0	1.47183539E+3	5.00000000E+0	6.85408333E-1	0.00000000E+0
486	12/06/2023	17:13:11.787	0.00000000E+0	1.47811858E+3	5.00000000E+0	4.57558794E-1	0.00000000E+0
487	12/06/2023	17:13:13.649	0.00000000E+0	1.48440176E+3	5.00000000E+0	3.04744696E-1	0.00000000E+0
488	12/06/2023	17:13:15.551	0.00000000E+0	1.49068495E+3	5.00000000E+0	5.09972877E-1	0.00000000E+0
489	12/06/2023	17:13:17.515	0.00000000E+0	1.49696813E+3	5.00000000E+0	5.56988295E-1	0.00000000E+0
490	12/06/2023	17:13:19.295	0.00000000E+0	1.50325132E+3	5.00000000E+0	4.77946577E-1	0.00000000E+0
491	12/06/2023	17:13:21.245	0.00000000E+0	1.50953450E+3	5.00000000E+0	6.52269832E-1	0.00000000E+0
492	12/06/2023	17:13:23.082	0.00000000E+0	1.51581769E+3	5.00000000E+0	6.05008540E-1	0.00000000E+0
493	12/06/2023	17:13:25.017	0.00000000E+0	1.52210087E+3	5.00000000E+0	4.76706355E-1	0.00000000E+0
494	12/06/2023	17:13:26.799	0.00000000E+0	1.52838406E+3	5.00000000E+0	3.41978486E-1	0.00000000E+0
495	12/06/2023	17:13:28.526	0.00000000E+0	1.53466724E+3	5.00000000E+0	3.85805026E-1	0.00000000E+0
496	12/06/2023	17:13:30.304	0.00000000E+0	1.54095043E+3	5.00000000E+0	6.14960580E-1	0.00000000E+0
497	12/06/2023	17:13:32.119	0.00000000E+0	1.54723361E+3	5.00000000E+0	5.23857042E-1	0.00000000E+0
498	12/06/2023	17:13:34.008	0.00000000E+0	1.55351680E+3	5.00000000E+0	5.40974428E-1	0.00000000E+0
499	12/06/2023	17:13:35.899	0.00000000E+0	1.55979999E+3	5.00000000E+0	2.86400754E-1	0.00000000E+0
500	12/06/2023	17:13:37.758	0.00000000E+0	1.56608317E+3	5.00000000E+0	4.97053005E-1	0.00000000E+0
