#Iteration	Date	Time	RTPhase	NFringe	AccelAxis	AccelMean	AccelTemp
1	02/09/2022	14:31:26.596	4.67595694E+0	-2.51900000E+3	2.00000000E+0	-9.80595875E+0	7.16116400E+6
2	02/09/2022	14:31:28.152	3.73294225E+0	-2.51900000E+3	2.00000000E+0	-9.80595875E+0	7.16116400E+6
3	02/09/2022	14:31:29.561	3.44838881E+0	-2.51900000E+3	2.00000000E+0	-9.80595875E+0	7.16116400E+6
4	02/09/2022	14:31:31.043	3.31493248E+0	-2.51400000E+3	2.00000000E+0	-9.80595875E+0	7.16116400E+6
5	02/09/2022	14:31:32.457	6.07072897E-1	-2.51400000E+3	2.00000000E+0	-9.80595875E+0	7.16116400E+6
6	02/09/2022	14:31:33.872	5.74552504E+0	-2.51500000E+3	2.00000000E+0	-9.80595875E+0	7.16116400E+6
7	02/09/2022	14:31:35.413	4.25296173E-1	-2.51600000E+3	2.00000000E+0	-9.80595875E+0	7.16116400E+6
8	02/09/2022	14:31:36.810	5.01381621E+0	-2.51900000E+3	2.00000000E+0	-9.80595875E+0	7.16116400E+6
9	02/09/2022	14:31:38.202	1.63445653E+0	-2.51400000E+3	2.00000000E+0	-9.80595875E+0	7.16116400E+6
10	02/09/2022	14:31:39.546	4.08575783E+0	-2.51800000E+3	2.00000000E+0	-9.80595875E+0	7.16116400E+6
11	02/09/2022	14:31:40.941	1.55545652E+0	-2.51400000E+3	2.00000000E+0	-9.80595875E+0	7.16116400E+6
12	02/09/2022	14:31:42.456	1.44194194E+0	-2.51500000E+3	2.00000000E+0	-9.80595875E+0	7.16116400E+6
13	02/09/2022	14:31:43.851	3.80695682E+0	-2.51700000E+3	2.00000000E+0	-9.80595875E+0	7.16116400E+6
14	02/09/2022	14:31:45.274	4.40827729E+0	-2.51500000E+3	2.00000000E+0	-9.80595875E+0	7.16116400E+6
15	02/09/2022	14:31:46.788	5.98981148E+0	-2.51500000E+3	2.00000000E+0	-9.80595875E+0	7.16116400E+6
16	02/09/2022	14:31:48.172	4.79253948E+0	-2.51900000E+3	2.00000000E+0	-9.80595875E+0	7.16116400E+6
17	02/09/2022	14:31:49.655	2.58974307E+0	-2.51400000E+3	2.00000000E+0	-9.80595875E+0	7.16116400E+6
18	02/09/2022	14:31:51.049	3.71645195E+0	-2.51900000E+3	2.00000000E+0	-9.80595875E+0	7.16116400E+6
19	02/09/2022	14:31:52.456	2.62042268E+0	-2.51800000E+3	2.00000000E+0	-9.80595875E+0	7.16116400E+6
20	02/09/2022	14:31:53.943	4.61037926E+0	-2.51500000E+3	2.00000000E+0	-9.80595875E+0	7.16116400E+6
21	02/09/2022	14:31:55.435	4.55822391E+0	-2.51800000E+3	2.00000000E+0	-9.80595875E+0	7.16116400E+6
22	02/09/2022	14:31:56.868	2.27796147E+0	-2.51500000E+3	2.00000000E+0	-9.80595875E+0	7.16116400E+6
23	02/09/2022	14:31:58.366	2.68139842E+0	-2.51500000E+3	2.00000000E+0	-9.80595875E+0	7.16116400E+6
24	02/09/2022	14:31:59.735	6.24713676E-1	-2.51500000E+3	2.00000000E+0	-9.80595875E+0	7.16116400E+6
25	02/09/2022	14:32:01.298	1.36716038E+0	-2.51500000E+3	2.00000000E+0	-9.80595875E+0	7.16116400E+6
26	02/09/2022	14:32:02.696	2.50422364E+0	-2.51600000E+3	2.00000000E+0	-9.80595875E+0	7.16116400E+6
27	02/09/2022	14:32:04.076	4.10800055E+0	-2.51400000E+3	2.00000000E+0	-9.80595875E+0	7.16116400E+6
28	02/09/2022	14:32:05.551	6.23639889E+0	-2.51900000E+3	2.00000000E+0	-9.80595875E+0	7.16116400E+6
29	02/09/2022	14:32:06.940	2.30135468E+0	-2.51500000E+3	2.00000000E+0	-9.80595875E+0	7.16116400E+6
30	02/09/2022	14:32:08.539	2.53605374E+0	-2.51500000E+3	2.00000000E+0	-9.80595875E+0	7.16116400E+6
31	02/09/2022	14:32:09.968	5.45943762E+0	-2.51600000E+3	2.00000000E+0	-9.80595875E+0	7.16116400E+6
32	02/09/2022	14:32:11.409	3.68155389E-1	-2.51600000E+3	2.00000000E+0	-9.80595875E+0	7.16116400E+6
33	02/09/2022	14:32:12.897	2.30979157E+0	-2.51800000E+3	2.00000000E+0	-9.80595875E+0	7.16116400E+6
34	02/09/2022	14:32:14.325	1.80664587E+0	-2.51700000E+3	2.00000000E+0	-9.80595875E+0	7.16116400E+6
35	02/09/2022	14:32:15.737	5.03951038E+0	-2.51800000E+3	2.00000000E+0	-9.80595875E+0	7.16116400E+6
36	02/09/2022	14:32:17.276	4.79368996E-2	-2.51800000E+3	2.00000000E+0	-9.80595875E+0	7.16116400E+6
37	02/09/2022	14:32:18.675	4.34768505E+0	-2.51500000E+3	2.00000000E+0	-9.80595875E+0	7.16116400E+6
38	02/09/2022	14:32:20.208	4.19888891E+0	-2.51800000E+3	2.00000000E+0	-9.80595875E+0	7.16116400E+6
39	02/09/2022	14:32:21.581	7.01029220E-1	-2.51600000E+3	2.00000000E+0	-9.80595875E+0	7.16116400E+6
40	02/09/2022	14:32:22.993	4.81708317E+0	-2.51800000E+3	2.00000000E+0	-9.80595875E+0	7.16116400E+6
41	02/09/2022	14:32:24.566	6.26631152E-1	-2.51500000E+3	2.00000000E+0	-9.80595875E+0	7.16116400E+6
42	02/09/2022	14:32:25.951	5.05868514E+0	-2.51900000E+3	2.00000000E+0	-9.80595875E+0	7.16116400E+6
43	02/09/2022	14:32:27.372	9.56053526E-1	-2.51800000E+3	2.00000000E+0	-9.80595875E+0	7.16116400E+6
44	02/09/2022	14:32:28.936	5.99211245E+0	-2.51500000E+3	2.00000000E+0	-9.80595875E+0	7.16116400E+6
45	02/09/2022	14:32:30.333	3.37360725E+0	-2.51900000E+3	2.00000000E+0	-9.80595875E+0	7.16116400E+6
46	02/09/2022	14:32:32.035	5.51197647E+0	-2.51600000E+3	2.00000000E+0	-9.80595875E+0	7.16116400E+6
47	02/09/2022	14:32:33.463	3.73102477E+0	-2.51500000E+3	2.00000000E+0	-9.80595875E+0	7.16116400E+6
48	02/09/2022	14:32:34.990	8.43689433E-1	-2.51800000E+3	2.00000000E+0	-9.80595875E+0	7.16116400E+6
49	02/09/2022	14:32:36.549	2.96633535E+0	-2.51600000E+3	2.00000000E+0	-9.80595875E+0	7.16116400E+6
50	02/09/2022	14:32:37.966	6.10179208E+0	-2.51600000E+3	2.00000000E+0	-9.80595875E+0	7.16116400E+6
51	02/09/2022	14:32:39.534	4.27443747E+0	-2.51700000E+3	2.00000000E+0	-9.80595875E+0	7.16116400E+6
52	02/09/2022	14:32:40.927	4.24337435E+0	-2.51600000E+3	2.00000000E+0	-9.80595875E+0	7.16116400E+6
53	02/09/2022	14:32:42.306	5.47516093E+0	-2.51500000E+3	2.00000000E+0	-9.80595875E+0	7.16116400E+6
54	02/09/2022	14:32:43.855	3.78701507E+0	-2.51400000E+3	2.00000000E+0	-9.80595875E+0	7.16116400E+6
55	02/09/2022	14:32:45.258	5.99824838E+0	-2.51800000E+3	2.00000000E+0	-9.80595875E+0	7.16116400E+6
56	02/09/2022	14:32:46.714	1.31270406E+0	-2.51800000E+3	2.00000000E+0	-9.80595875E+0	7.16116400E+6
57	02/09/2022	14:32:48.220	1.84767986E+0	-2.51800000E+3	2.00000000E+0	-9.80595875E+0	7.16116400E+6
58	02/09/2022	14:32:49.601	1.41969922E+0	-2.51500000E+3	2.00000000E+0	-9.80595875E+0	7.16116400E+6
59	02/09/2022	14:32:51.146	6.12365131E+0	-2.51700000E+3	2.00000000E+0	-9.80595875E+0	7.16116400E+6
60	02/09/2022	14:32:52.520	4.55017051E+0	-2.51600000E+3	2.00000000E+0	-9.80595875E+0	7.16116400E+6
61	02/09/2022	14:32:53.892	4.37184525E-2	-2.51400000E+3	2.00000000E+0	-9.80595875E+0	7.16116400E+6
62	02/09/2022	14:32:55.552	2.15447602E+0	-2.51700000E+3	2.00000000E+0	-9.80595875E+0	7.16116400E+6
63	02/09/2022	14:32:56.935	1.09219432E+0	-2.51800000E+3	2.00000000E+0	-9.80595875E+0	7.16116400E+6
64	02/09/2022	14:32:58.319	6.07533091E+0	-2.51400000E+3	2.00000000E+0	-9.80595875E+0	7.16116400E+6
65	02/09/2022	14:32:59.702	3.30381112E+0	-2.51700000E+3	2.00000000E+0	-9.80595875E+0	7.16116400E+6
66	02/09/2022	14:33:01.084	4.23877241E+0	-2.51900000E+3	2.00000000E+0	-9.80595875E+0	7.16116400E+6
67	02/09/2022	14:33:02.633	4.06696656E+0	-2.51900000E+3	2.00000000E+0	-9.80595875E+0	7.16116400E+6
68	02/09/2022	14:33:04.013	6.23448142E+0	-2.51700000E+3	2.00000000E+0	-9.80595875E+0	7.16116400E+6
69	02/09/2022	14:33:05.468	2.58130617E+0	-2.51800000E+3	2.00000000E+0	-9.80595875E+0	7.16116400E+6
70	02/09/2022	14:33:06.953	5.15417545E+0	-2.51600000E+3	2.00000000E+0	-9.80595875E+0	7.16116400E+6
71	02/09/2022	14:33:08.355	5.65003474E+0	-2.51500000E+3	2.00000000E+0	-9.80595875E+0	7.16116400E+6
72	02/09/2022	14:33:09.928	4.60769479E+0	-2.51900000E+3	2.00000000E+0	-9.80595875E+0	7.16116400E+6
73	02/09/2022	14:33:11.303	5.31792790E+0	-2.51900000E+3	2.00000000E+0	-9.80595875E+0	7.16116400E+6
74	02/09/2022	14:33:12.683	2.26377215E+0	-2.51600000E+3	2.00000000E+0	-9.80595875E+0	7.16116400E+6
75	02/09/2022	14:33:14.213	2.29636924E+0	-2.51700000E+3	2.00000000E+0	-9.80595875E+0	7.16116400E+6
76	02/09/2022	14:33:15.610	6.97194268E-1	-2.51400000E+3	2.00000000E+0	-9.80595875E+0	7.16116400E+6
77	02/09/2022	14:33:17.053	5.77543767E-1	-2.51800000E+3	2.00000000E+0	-9.80595875E+0	7.16116400E+6
78	02/09/2022	14:33:18.580	2.96825282E-1	-2.51400000E+3	2.00000000E+0	-9.80595875E+0	7.16116400E+6
79	02/09/2022	14:33:19.972	5.25196672E+0	-2.51900000E+3	2.00000000E+0	-9.80595875E+0	7.16116400E+6
80	02/09/2022	14:33:21.436	5.56029686E+0	-2.51900000E+3	2.00000000E+0	-9.80595875E+0	7.16116400E+6
81	02/09/2022	14:33:22.833	5.89355419E+0	-2.51700000E+3	2.00000000E+0	-9.80595875E+0	7.16116400E+6
82	02/09/2022	14:33:24.230	4.65102975E+0	-2.51500000E+3	2.00000000E+0	-9.80595875E+0	7.16116400E+6
83	02/09/2022	14:33:25.763	9.26907891E-1	-2.51800000E+3	2.00000000E+0	-9.80595875E+0	7.16116400E+6
84	02/09/2022	14:33:27.148	5.59481143E+0	-2.51600000E+3	2.00000000E+0	-9.80595875E+0	7.16116400E+6
85	02/09/2022	14:33:28.594	1.65593226E+0	-2.51800000E+3	2.00000000E+0	-9.80595875E+0	7.16116400E+6
86	02/09/2022	14:33:30.029	5.98175808E+0	-2.51500000E+3	2.00000000E+0	-9.80595875E+0	7.16116400E+6
87	02/09/2022	14:33:31.415	4.79484045E+0	-2.51800000E+3	2.00000000E+0	-9.80595875E+0	7.16116400E+6
88	02/09/2022	14:33:32.906	2.52761684E+0	-2.51400000E+3	2.00000000E+0	-9.80595875E+0	7.16116400E+6
89	02/09/2022	14:33:34.295	1.26476716E+0	-2.51900000E+3	2.00000000E+0	-9.80595875E+0	7.16116400E+6
90	02/09/2022	14:33:35.804	4.81286472E+0	-2.51900000E+3	2.00000000E+0	-9.80595875E+0	7.16116400E+6
91	02/09/2022	14:33:37.371	3.34868006E+0	-2.51500000E+3	2.00000000E+0	-9.80595875E+0	7.16116400E+6
92	02/09/2022	14:33:38.751	2.18132068E+0	-2.51500000E+3	2.00000000E+0	-9.80595875E+0	7.16116400E+6
93	02/09/2022	14:33:40.214	1.90443715E+0	-2.51600000E+3	2.00000000E+0	-9.80595875E+0	7.16116400E+6
94	02/09/2022	14:33:41.605	2.58245666E+0	-2.51700000E+3	2.00000000E+0	-9.80595875E+0	7.16116400E+6
95	02/09/2022	14:33:42.990	1.37904873E+0	-2.51400000E+3	2.00000000E+0	-9.80595875E+0	7.16116400E+6
96	02/09/2022	14:33:44.539	4.10723356E-1	-2.51400000E+3	2.00000000E+0	-9.80595875E+0	7.16116400E+6
97	02/09/2022	14:33:45.969	4.38718505E-1	-2.51800000E+3	2.00000000E+0	-9.80595875E+0	7.16116400E+6
98	02/09/2022	14:33:47.392	9.77145762E-1	-2.51800000E+3	2.00000000E+0	-9.80595875E+0	7.16116400E+6
99	02/09/2022	14:33:48.875	3.02577710E-1	-2.51400000E+3	2.00000000E+0	-9.80595875E+0	7.16116400E+6
100	02/09/2022	14:33:50.270	1.10293219E+0	-2.51800000E+3	2.00000000E+0	-9.80595875E+0	7.16116400E+6
101	02/09/2022	14:33:51.789	1.17579627E+0	-2.51400000E+3	2.00000000E+0	-9.80595875E+0	7.16116400E+6
102	02/09/2022	14:33:53.184	5.68876775E+0	-2.51900000E+3	2.00000000E+0	-9.80595875E+0	7.16116400E+6
103	02/09/2022	14:33:54.554	3.42844706E-1	-2.51900000E+3	2.00000000E+0	-9.80595875E+0	7.16116400E+6
104	02/09/2022	14:33:56.093	4.71890840E+0	-2.51700000E+3	2.00000000E+0	-9.80595875E+0	7.16116400E+6
105	02/09/2022	14:33:57.479	2.17441777E+0	-2.51800000E+3	2.00000000E+0	-9.80595875E+0	7.16116400E+6
106	02/09/2022	14:33:58.919	1.37636426E+0	-2.51500000E+3	2.00000000E+0	-9.80595875E+0	7.16116400E+6
107	02/09/2022	14:34:00.305	3.63515097E+0	-2.51900000E+3	2.00000000E+0	-9.80595875E+0	7.16116400E+6
108	02/09/2022	14:34:01.694	4.38986952E+0	-2.51500000E+3	2.00000000E+0	-9.80595875E+0	7.16116400E+6
109	02/09/2022	14:34:03.171	8.41388462E-1	-2.51800000E+3	2.00000000E+0	-9.80595875E+0	7.16116400E+6
110	02/09/2022	14:34:04.551	3.57455873E+0	-2.51800000E+3	2.00000000E+0	-9.80595875E+0	7.16116400E+6
111	02/09/2022	14:34:05.945	3.90129664E+0	-2.51600000E+3	2.00000000E+0	-9.80595875E+0	7.16116400E+6
112	02/09/2022	14:34:07.466	5.17718516E+0	-2.51900000E+3	2.00000000E+0	-9.80595875E+0	7.16116400E+6
113	02/09/2022	14:34:08.841	2.88388388E-1	-2.51700000E+3	2.00000000E+0	-9.80595875E+0	7.16116400E+6
114	02/09/2022	14:34:10.254	2.42560712E+0	-2.51800000E+3	2.00000000E+0	-9.80595875E+0	7.16116400E+6
115	02/09/2022	14:34:11.635	7.79262240E-1	-2.51500000E+3	2.00000000E+0	-9.80595875E+0	7.16116400E+6
116	02/09/2022	14:34:13.043	4.50798604E+0	-2.51700000E+3	2.00000000E+0	-9.80595875E+0	7.16116400E+6
117	02/09/2022	14:34:14.604	3.20985480E+0	-2.51400000E+3	2.00000000E+0	-9.80595875E+0	7.16116400E+6
118	02/09/2022	14:34:15.997	3.21100528E+0	-2.51900000E+3	2.00000000E+0	-9.80595875E+0	7.16116400E+6
119	02/09/2022	14:34:17.442	3.32260239E+0	-2.51600000E+3	2.00000000E+0	-9.80595875E+0	7.16116400E+6
120	02/09/2022	14:34:18.786	2.54679160E+0	-2.51800000E+3	2.00000000E+0	-9.80595875E+0	7.16116400E+6
121	02/09/2022	14:34:20.150	7.38995245E-1	-2.51800000E+3	2.00000000E+0	-9.80595875E+0	7.16116400E+6
122	02/09/2022	14:34:21.692	4.30204912E+0	-2.51800000E+3	2.00000000E+0	-9.80595875E+0	7.16116400E+6
123	02/09/2022	14:34:23.082	3.29690821E+0	-2.51600000E+3	2.00000000E+0	-9.80595875E+0	7.16116400E+6
124	02/09/2022	14:34:24.526	3.52317037E+0	-2.51900000E+3	2.00000000E+0	-9.80595875E+0	7.16116400E+6
125	02/09/2022	14:34:26.022	6.12173383E+0	-2.51700000E+3	2.00000000E+0	-9.80595875E+0	7.16116400E+6
126	02/09/2022	14:34:27.408	2.27412652E+0	-2.51800000E+3	2.00000000E+0	-9.80595875E+0	7.16116400E+6
127	02/09/2022	14:34:28.924	4.19658794E+0	-2.51600000E+3	2.00000000E+0	-9.80595875E+0	7.16116400E+6
128	02/09/2022	14:34:30.282	3.87483547E+0	-2.51900000E+3	2.00000000E+0	-9.80595875E+0	7.16116400E+6
129	02/09/2022	14:34:31.685	4.25718018E+0	-2.51800000E+3	2.00000000E+0	-9.80595875E+0	7.16116400E+6
130	02/09/2022	14:34:33.210	4.72772879E+0	-2.51700000E+3	2.00000000E+0	-9.80595875E+0	7.16116400E+6
131	02/09/2022	14:34:34.623	4.46081613E+0	-2.51700000E+3	2.00000000E+0	-9.80595875E+0	7.16116400E+6
132	02/09/2022	14:34:36.081	5.46020461E+0	-2.51700000E+3	2.00000000E+0	-9.80595875E+0	7.16116400E+6
133	02/09/2022	14:34:37.582	5.35359295E-1	-2.51800000E+3	2.00000000E+0	-9.80595875E+0	7.16116400E+6
134	02/09/2022	14:34:38.969	2.86854407E-1	-2.51400000E+3	2.00000000E+0	-9.80595875E+0	7.16116400E+6
135	02/09/2022	14:34:40.489	2.10577213E+0	-2.51800000E+3	2.00000000E+0	-9.80595875E+0	7.16116400E+6
136	02/09/2022	14:34:41.863	5.09818515E+0	-2.51900000E+3	2.00000000E+0	-9.80595875E+0	7.16116400E+6
137	02/09/2022	14:34:43.233	6.16736976E+0	-2.51900000E+3	2.00000000E+0	-9.80595875E+0	7.16116400E+6
138	02/09/2022	14:34:44.739	1.28049046E+0	-2.51800000E+3	2.00000000E+0	-9.80595875E+0	7.16116400E+6
139	02/09/2022	14:34:46.140	4.77796666E+0	-2.51600000E+3	2.00000000E+0	-9.80595875E+0	7.16116400E+6
140	02/09/2022	14:34:47.673	8.99679732E-1	-2.51600000E+3	2.00000000E+0	-9.80595875E+0	7.16116400E+6
141	02/09/2022	14:34:49.053	1.45037883E+0	-2.51400000E+3	2.00000000E+0	-9.80595875E+0	7.16116400E+6
142	02/09/2022	14:34:50.445	3.39968492E+0	-2.51900000E+3	2.00000000E+0	-9.80595875E+0	7.16116400E+6
143	02/09/2022	14:34:51.985	2.60009744E-1	-2.51700000E+3	2.00000000E+0	-9.80595875E+0	7.16116400E+6
144	02/09/2022	14:34:53.387	6.02854450E-1	-2.51400000E+3	2.00000000E+0	-9.80595875E+0	7.16116400E+6
145	02/09/2022	14:34:54.770	4.77681617E+0	-2.51800000E+3	2.00000000E+0	-9.80595875E+0	7.16116400E+6
146	02/09/2022	14:34:56.260	1.35335455E+0	-2.51400000E+3	2.00000000E+0	-9.80595875E+0	7.16116400E+6
147	02/09/2022	14:34:57.648	5.97792313E+0	-2.51900000E+3	2.00000000E+0	-9.80595875E+0	7.16116400E+6
148	02/09/2022	14:34:59.244	8.31417587E-1	-2.51800000E+3	2.00000000E+0	-9.80595875E+0	7.16116400E+6
149	02/09/2022	14:35:00.621	1.31730600E+0	-2.51800000E+3	2.00000000E+0	-9.80595875E+0	7.16116400E+6
150	02/09/2022	14:35:02.016	5.18102011E+0	-2.51600000E+3	2.00000000E+0	-9.80595875E+0	7.16116400E+6
151	02/09/2022	14:35:03.487	1.53743224E+0	-2.51800000E+3	2.00000000E+0	-9.80595875E+0	7.16116400E+6
152	02/09/2022	14:35:04.866	2.67027706E+0	-2.51800000E+3	2.00000000E+0	-9.80595875E+0	7.16116400E+6
153	02/09/2022	14:35:06.315	2.78149066E+0	-2.51800000E+3	2.00000000E+0	-9.80595875E+0	7.16116400E+6
154	02/09/2022	14:35:07.794	1.82236918E+0	-2.51600000E+3	2.00000000E+0	-9.80595875E+0	7.16116400E+6
155	02/09/2022	14:35:09.184	1.31155357E+0	-2.51700000E+3	2.00000000E+0	-9.80595875E+0	7.16116400E+6
156	02/09/2022	14:35:10.729	1.45421379E+0	-2.51400000E+3	2.00000000E+0	-9.80595875E+0	7.16116400E+6
157	02/09/2022	14:35:12.086	4.68746179E+0	-2.51500000E+3	2.00000000E+0	-9.80595875E+0	7.16116400E+6
158	02/09/2022	14:35:13.539	1.16083996E+0	-2.51700000E+3	2.00000000E+0	-9.80595875E+0	7.16116400E+6
159	02/09/2022	14:35:15.079	1.50138370E+0	-2.51900000E+3	2.00000000E+0	-9.80595875E+0	7.16116400E+6
160	02/09/2022	14:35:16.457	5.74092310E+0	-2.51800000E+3	2.00000000E+0	-9.80595875E+0	7.16116400E+6
161	02/09/2022	14:35:17.916	5.19137448E+0	-2.51800000E+3	2.00000000E+0	-9.80595875E+0	7.16116400E+6
162	02/09/2022	14:35:19.319	2.91379651E+0	-2.51900000E+3	2.00000000E+0	-9.80595875E+0	7.16116400E+6
163	02/09/2022	14:35:20.712	7.88082630E-1	-2.51400000E+3	2.00000000E+0	-9.80595875E+0	7.16116400E+6
164	02/09/2022	14:35:22.241	5.13078224E+0	-2.51900000E+3	2.00000000E+0	-9.80595875E+0	7.16116400E+6
165	02/09/2022	14:35:23.611	4.19582095E+0	-2.51900000E+3	2.00000000E+0	-9.80595875E+0	7.16116400E+6
166	02/09/2022	14:35:24.986	2.02792260E+0	-2.51800000E+3	2.00000000E+0	-9.80595875E+0	7.16116400E+6
167	02/09/2022	14:35:26.482	5.62050561E+0	-2.51900000E+3	2.00000000E+0	-9.80595875E+0	7.16116400E+6
168	02/09/2022	14:35:27.885	7.55485538E-2	-2.51500000E+3	2.00000000E+0	-9.80595875E+0	7.16116400E+6
169	02/09/2022	14:35:29.366	1.03927198E+0	-2.51800000E+3	2.00000000E+0	-9.80595875E+0	7.16116400E+6
170	02/09/2022	14:35:30.767	6.24675326E+0	-2.51800000E+3	2.00000000E+0	-9.80595875E+0	7.16116400E+6
171	02/09/2022	14:35:32.151	7.59703985E-1	-2.51700000E+3	2.00000000E+0	-9.80595875E+0	7.16116400E+6
172	02/09/2022	14:35:33.711	5.60478230E+0	-2.51600000E+3	2.00000000E+0	-9.80595875E+0	7.16116400E+6
173	02/09/2022	14:35:35.097	1.31500503E+0	-2.51600000E+3	2.00000000E+0	-9.80595875E+0	7.16116400E+6
174	02/09/2022	14:35:36.546	2.86125766E+0	-2.51400000E+3	2.00000000E+0	-9.80595875E+0	7.16116400E+6
175	02/09/2022	14:35:37.948	4.62226761E+0	-2.51700000E+3	2.00000000E+0	-9.80595875E+0	7.16116400E+6
176	02/09/2022	14:35:39.311	4.75994238E+0	-2.51900000E+3	2.00000000E+0	-9.80595875E+0	7.16116400E+6
177	02/09/2022	14:35:40.794	6.20533578E+0	-2.51500000E+3	2.00000000E+0	-9.80595875E+0	7.16116400E+6
178	02/09/2022	14:35:42.176	4.84661230E+0	-2.51800000E+3	2.00000000E+0	-9.80595875E+0	7.16116400E+6
179	02/09/2022	14:35:43.582	5.81302020E+0	-2.51700000E+3	2.00000000E+0	-9.80595875E+0	7.16116400E+6
180	02/09/2022	14:35:45.110	1.44539340E+0	-2.51700000E+3	2.00000000E+0	-9.80595875E+0	7.16116400E+6
181	02/09/2022	14:35:46.483	1.64097595E+0	-2.51600000E+3	2.00000000E+0	-9.80595875E+0	7.16116400E+6
182	02/09/2022	14:35:47.983	4.07386948E+0	-2.51800000E+3	2.00000000E+0	-9.80595875E+0	7.16116400E+6
183	02/09/2022	14:35:49.380	3.38051016E+0	-2.51700000E+3	2.00000000E+0	-9.80595875E+0	7.16116400E+6
184	02/09/2022	14:35:50.753	5.21515118E+0	-2.51900000E+3	2.00000000E+0	-9.80595875E+0	7.16116400E+6
185	02/09/2022	14:35:52.216	6.07609790E+0	-2.51900000E+3	2.00000000E+0	-9.80595875E+0	7.16116400E+6
186	02/09/2022	14:35:53.607	2.26300516E+0	-2.51400000E+3	2.00000000E+0	-9.80595875E+0	7.16116400E+6
187	02/09/2022	14:35:55.031	5.67227746E+0	-2.51600000E+3	2.00000000E+0	-9.80595875E+0	7.16116400E+6
188	02/09/2022	14:35:56.521	3.70264613E+0	-2.51600000E+3	2.00000000E+0	-9.80595875E+0	7.16116400E+6
189	02/09/2022	14:35:57.917	5.89892312E+0	-2.51900000E+3	2.00000000E+0	-9.80595875E+0	7.16116400E+6
190	02/09/2022	14:35:59.442	5.46825801E+0	-2.51600000E+3	2.00000000E+0	-9.80595875E+0	7.16116400E+6
191	02/09/2022	14:36:00.821	2.81907319E+0	-2.51500000E+3	2.00000000E+0	-9.80595875E+0	7.16116400E+6
192	02/09/2022	14:36:02.218	2.09656824E+0	-2.51700000E+3	2.00000000E+0	-9.80595875E+0	7.16116400E+6
193	02/09/2022	14:36:03.671	5.94187458E+0	-2.51900000E+3	2.00000000E+0	-9.80595875E+0	7.16116400E+6
194	02/09/2022	14:36:05.038	2.08621387E+0	-2.51900000E+3	2.00000000E+0	-9.80595875E+0	7.16116400E+6
195	02/09/2022	14:36:06.571	2.44669936E-1	-2.51400000E+3	2.00000000E+0	-9.80595875E+0	7.16116400E+6
196	02/09/2022	14:36:07.998	4.13676269E+0	-2.51800000E+3	2.00000000E+0	-9.80595875E+0	7.16116400E+6
197	02/09/2022	14:36:09.366	4.12487434E+0	-2.51800000E+3	2.00000000E+0	-9.80595875E+0	7.16116400E+6
198	02/09/2022	14:36:11.146	2.21736923E+0	-2.51800000E+3	2.00000000E+0	-9.80595875E+0	7.16116400E+6
199	02/09/2022	14:36:12.538	7.50883596E-1	-2.51500000E+3	2.00000000E+0	-9.80595875E+0	7.16116400E+6
200	02/09/2022	14:36:13.942	5.03337446E+0	-2.51800000E+3	2.00000000E+0	-9.80595875E+0	7.16116400E+6
201	02/09/2022	14:36:15.443	3.05338876E+0	-2.51900000E+3	2.00000000E+0	-9.80595875E+0	7.16116400E+6
202	02/09/2022	14:36:16.823	5.16337933E+0	-2.51600000E+3	2.00000000E+0	-9.80595875E+0	7.16116400E+6
203	02/09/2022	14:36:18.262	5.21975313E+0	-2.51900000E+3	2.00000000E+0	-9.80595875E+0	7.16116400E+6
204	02/09/2022	14:36:19.646	4.70970451E+0	-2.51800000E+3	2.00000000E+0	-9.80595875E+0	7.16116400E+6
205	02/09/2022	14:36:21.035	1.78056820E+0	-2.51500000E+3	2.00000000E+0	-9.80595875E+0	7.16116400E+6
206	02/09/2022	14:36:22.542	4.48114138E+0	-2.51500000E+3	2.00000000E+0	-9.80595875E+0	7.16116400E+6
207	02/09/2022	14:36:23.951	5.00231135E+0	-2.51500000E+3	2.00000000E+0	-9.80595875E+0	7.16116400E+6
208	02/09/2022	14:36:25.323	1.70003421E+0	-2.51500000E+3	2.00000000E+0	-9.80595875E+0	7.16116400E+6
209	02/09/2022	14:36:26.703	3.16882081E+0	-2.51800000E+3	2.00000000E+0	-9.80595875E+0	7.16116400E+6
210	02/09/2022	14:36:28.083	5.86517554E+0	-2.51900000E+3	2.00000000E+0	-9.80595875E+0	7.16116400E+6
211	02/09/2022	14:36:29.622	1.42315068E+0	-2.51700000E+3	2.00000000E+0	-9.80595875E+0	7.16116400E+6
212	02/09/2022	14:36:31.015	1.52554389E+0	-2.51500000E+3	2.00000000E+0	-9.80595875E+0	7.16116400E+6
213	02/09/2022	14:36:32.388	4.02171413E+0	-2.51400000E+3	2.00000000E+0	-9.80595875E+0	7.16116400E+6
214	02/09/2022	14:36:33.929	5.07287447E+0	-2.51700000E+3	2.00000000E+0	-9.80595875E+0	7.16116400E+6
215	02/09/2022	14:36:35.328	3.34676258E+0	-2.51800000E+3	2.00000000E+0	-9.80595875E+0	7.16116400E+6
216	02/09/2022	14:36:36.785	6.08185033E+0	-2.51800000E+3	2.00000000E+0	-9.80595875E+0	7.16116400E+6
217	02/09/2022	14:36:38.187	4.98006863E+0	-2.51500000E+3	2.00000000E+0	-9.80595875E+0	7.16116400E+6
218	02/09/2022	14:36:39.555	2.74084017E+0	-2.51400000E+3	2.00000000E+0	-9.80595875E+0	7.16116400E+6
219	02/09/2022	14:36:41.083	8.55194289E-1	-2.51800000E+3	2.00000000E+0	-9.80595875E+0	7.16116400E+6
220	02/09/2022	14:36:42.461	1.66130119E+0	-2.51700000E+3	2.00000000E+0	-9.80595875E+0	7.16116400E+6
221	02/09/2022	14:36:43.879	1.61681575E+0	-2.51600000E+3	2.00000000E+0	-9.80595875E+0	7.16116400E+6
222	02/09/2022	14:36:45.373	4.00867529E+0	-2.51900000E+3	2.00000000E+0	-9.80595875E+0	7.16116400E+6
223	02/09/2022	14:36:46.764	5.86172409E+0	-2.51500000E+3	2.00000000E+0	-9.80595875E+0	7.16116400E+6
224	02/09/2022	14:36:48.183	4.05776268E+0	-2.51500000E+3	2.00000000E+0	-9.80595875E+0	7.16116400E+6
225	02/09/2022	14:36:49.569	4.42016564E+0	-2.51900000E+3	2.00000000E+0	-9.80595875E+0	7.16116400E+6
226	02/09/2022	14:36:50.968	3.47830144E-1	-2.51500000E+3	2.00000000E+0	-9.80595875E+0	7.16116400E+6
227	02/09/2022	14:36:52.421	1.62295167E+0	-2.51400000E+3	2.00000000E+0	-9.80595875E+0	7.16116400E+6
228	02/09/2022	14:36:53.787	2.73355376E+0	-2.51500000E+3	2.00000000E+0	-9.80595875E+0	7.16116400E+6
229	02/09/2022	14:36:55.236	3.06757808E+0	-2.51700000E+3	2.00000000E+0	-9.80595875E+0	7.16116400E+6
230	02/09/2022	14:36:56.655	3.96572383E+0	-2.51600000E+3	2.00000000E+0	-9.80595875E+0	7.16116400E+6
231	02/09/2022	14:36:58.027	4.15095201E+0	-2.51500000E+3	2.00000000E+0	-9.80595875E+0	7.16116400E+6
232	02/09/2022	14:36:59.504	2.50997606E+0	-2.51700000E+3	2.00000000E+0	-9.80595875E+0	7.16116400E+6
233	02/09/2022	14:37:00.903	1.66436915E-1	-2.51400000E+3	2.00000000E+0	-9.80595875E+0	7.16116400E+6
234	02/09/2022	14:37:02.291	2.00951483E+0	-2.51800000E+3	2.00000000E+0	-9.80595875E+0	7.16116400E+6
235	02/09/2022	14:37:03.804	5.34553955E+0	-2.51900000E+3	2.00000000E+0	-9.80595875E+0	7.16116400E+6
236	02/09/2022	14:37:05.182	5.41150072E+0	-2.51700000E+3	2.00000000E+0	-9.80595875E+0	7.16116400E+6
237	02/09/2022	14:37:06.662	5.86479205E+0	-2.51600000E+3	2.00000000E+0	-9.80595875E+0	7.16116400E+6
238	02/09/2022	14:37:08.043	5.12541331E+0	-2.51900000E+3	2.00000000E+0	-9.80595875E+0	7.16116400E+6
239	02/09/2022	14:37:09.421	2.60546637E+0	-2.51800000E+3	2.00000000E+0	-9.80595875E+0	7.16116400E+6
240	02/09/2022	14:37:10.962	4.59082100E+0	-2.51900000E+3	2.00000000E+0	-9.80595875E+0	7.16116400E+6
241	02/09/2022	14:37:12.334	5.63124347E+0	-2.51900000E+3	2.00000000E+0	-9.80595875E+0	7.16116400E+6
242	02/09/2022	14:37:13.737	5.51235996E+0	-2.51700000E+3	2.00000000E+0	-9.80595875E+0	7.16116400E+6
243	02/09/2022	14:37:15.223	4.22113163E+0	-2.51600000E+3	2.00000000E+0	-9.80595875E+0	7.16116400E+6
244	02/09/2022	14:37:16.598	5.38580655E+0	-2.51500000E+3	2.00000000E+0	-9.80595875E+0	7.16116400E+6
245	02/09/2022	14:37:18.092	1.43465553E+0	-2.51700000E+3	2.00000000E+0	-9.80595875E+0	7.16116400E+6
246	02/09/2022	14:37:19.492	5.88588428E+0	-2.51900000E+3	2.00000000E+0	-9.80595875E+0	7.16116400E+6
247	02/09/2022	14:37:20.880	2.76116542E-1	-2.51500000E+3	2.00000000E+0	-9.80595875E+0	7.16116400E+6
248	02/09/2022	14:37:22.360	3.26047616E+0	-2.51600000E+3	2.00000000E+0	-9.80595875E+0	7.16116400E+6
249	02/09/2022	14:37:23.747	1.00207295E+0	-2.51800000E+3	2.00000000E+0	-9.80595875E+0	7.16116400E+6
250	02/09/2022	14:37:25.232	3.14504411E+0	-2.51500000E+3	2.00000000E+0	-9.80595875E+0	7.16116400E+6
251	02/09/2022	14:37:26.683	3.37092278E-1	-2.51400000E+3	2.00000000E+0	-9.80595875E+0	7.16116400E+6
252	02/09/2022	14:37:28.057	5.53000074E-1	-2.51400000E+3	2.00000000E+0	-9.80595875E+0	7.16116400E+6
253	02/09/2022	14:37:29.529	2.38150517E-1	-2.51800000E+3	2.00000000E+0	-9.80595875E+0	7.16116400E+6
254	02/09/2022	14:37:30.931	2.79299552E+0	-2.51500000E+3	2.00000000E+0	-9.80595875E+0	7.16116400E+6
255	02/09/2022	14:37:32.361	3.88135489E+0	-2.51900000E+3	2.00000000E+0	-9.80595875E+0	7.16116400E+6
256	02/09/2022	14:37:33.844	1.57769924E+0	-2.51400000E+3	2.00000000E+0	-9.80595875E+0	7.16116400E+6
257	02/09/2022	14:37:35.231	5.01841815E+0	-2.51800000E+3	2.00000000E+0	-9.80595875E+0	7.16116400E+6
258	02/09/2022	14:37:36.680	4.69858315E+0	-2.51500000E+3	2.00000000E+0	-9.80595875E+0	7.16116400E+6
259	02/09/2022	14:37:38.047	1.60646138E+0	-2.51400000E+3	2.00000000E+0	-9.80595875E+0	7.16116400E+6
260	02/09/2022	14:37:39.436	4.44394234E+0	-2.51900000E+3	2.00000000E+0	-9.80595875E+0	7.16116400E+6
261	02/09/2022	14:37:40.943	1.08529141E-1	-2.51800000E+3	2.00000000E+0	-9.80595875E+0	7.16116400E+6
262	02/09/2022	14:37:42.337	5.22243759E+0	-2.51500000E+3	2.00000000E+0	-9.80595875E+0	7.16116400E+6
263	02/09/2022	14:37:43.781	6.25480666E-1	-2.51600000E+3	2.00000000E+0	-9.80595875E+0	7.16116400E+6
264	02/09/2022	14:37:45.111	2.29790322E+0	-2.51500000E+3	2.00000000E+0	-9.80595875E+0	7.16116400E+6
265	02/09/2022	14:37:46.506	5.20402982E-1	-2.51800000E+3	2.00000000E+0	-9.80595875E+0	7.16116400E+6
266	02/09/2022	14:37:48.012	1.25671376E+0	-2.51800000E+3	2.00000000E+0	-9.80595875E+0	7.16116400E+6
267	02/09/2022	14:37:49.414	1.00360693E+0	-2.51600000E+3	2.00000000E+0	-9.80595875E+0	7.16116400E+6
268	02/09/2022	14:37:50.826	1.76292742E+0	-2.51500000E+3	2.00000000E+0	-9.80595875E+0	7.16116400E+6
269	02/09/2022	14:37:52.331	5.16951526E+0	-2.51600000E+3	2.00000000E+0	-9.80595875E+0	7.16116400E+6
270	02/09/2022	14:37:53.726	2.10999057E+0	-2.51700000E+3	2.00000000E+0	-9.80595875E+0	7.16116400E+6
271	02/09/2022	14:37:55.230	4.85926764E+0	-2.51800000E+3	2.00000000E+0	-9.80595875E+0	7.16116400E+6
272	02/09/2022	14:37:56.628	3.76668982E+0	-2.51900000E+3	2.00000000E+0	-9.80595875E+0	7.16116400E+6
273	02/09/2022	14:37:58.020	4.17434522E+0	-2.51600000E+3	2.00000000E+0	-9.80595875E+0	7.16116400E+6
274	02/09/2022	14:37:59.512	2.18477214E+0	-2.51900000E+3	2.00000000E+0	-9.80595875E+0	7.16116400E+6
275	02/09/2022	14:38:00.883	5.65770464E+0	-2.51900000E+3	2.00000000E+0	-9.80595875E+0	7.16116400E+6
276	02/09/2022	14:38:02.340	2.67487900E+0	-2.51900000E+3	2.00000000E+0	-9.80595875E+0	7.16116400E+6
277	02/09/2022	14:38:03.830	3.79468497E+0	-2.51600000E+3	2.00000000E+0	-9.80595875E+0	7.16116400E+6
278	02/09/2022	14:38:05.242	7.41296216E-1	-2.51500000E+3	2.00000000E+0	-9.80595875E+0	7.16116400E+6
279	02/09/2022	14:38:06.662	3.15616547E-1	-2.51600000E+3	2.00000000E+0	-9.80595875E+0	7.16116400E+6
280	02/09/2022	14:38:08.057	2.68638385E+0	-2.51600000E+3	2.00000000E+0	-9.80595875E+0	7.16116400E+6
281	02/09/2022	14:38:09.429	5.56374832E+0	-2.51500000E+3	2.00000000E+0	-9.80595875E+0	7.16116400E+6
282	02/09/2022	14:38:10.918	2.43519450E+0	-2.51900000E+3	2.00000000E+0	-9.80595875E+0	7.16116400E+6
283	02/09/2022	14:38:12.302	3.64703932E+0	-2.51500000E+3	2.00000000E+0	-9.80595875E+0	7.16116400E+6
284	02/09/2022	14:38:13.686	8.23364188E-1	-2.51600000E+3	2.00000000E+0	-9.80595875E+0	7.16116400E+6
285	02/09/2022	14:38:15.093	1.36831086E+0	-2.51400000E+3	2.00000000E+0	-9.80595875E+0	7.16116400E+6
286	02/09/2022	14:38:16.484	2.55024306E+0	-2.51900000E+3	2.00000000E+0	-9.80595875E+0	7.16116400E+6
287	02/09/2022	14:38:17.956	4.74076762E+0	-2.51600000E+3	2.00000000E+0	-9.80595875E+0	7.16116400E+6
288	02/09/2022	14:38:19.339	3.42691308E+0	-2.51500000E+3	2.00000000E+0	-9.80595875E+0	7.16116400E+6
289	02/09/2022	14:38:20.738	2.73432075E-1	-2.51600000E+3	2.00000000E+0	-9.80595875E+0	7.16116400E+6
290	02/09/2022	14:38:22.245	3.07218002E+0	-2.51600000E+3	2.00000000E+0	-9.80595875E+0	7.16116400E+6
291	02/09/2022	14:38:23.642	6.38902998E-1	-2.51800000E+3	2.00000000E+0	-9.80595875E+0	7.16116400E+6
292	02/09/2022	14:38:25.066	4.49648118E+0	-2.51800000E+3	2.00000000E+0	-9.80595875E+0	7.16116400E+6
293	02/09/2022	14:38:26.495	2.09426727E+0	-2.51400000E+3	2.00000000E+0	-9.80595875E+0	7.16116400E+6
294	02/09/2022	14:38:27.866	2.12533038E+0	-2.51400000E+3	2.00000000E+0	-9.80595875E+0	7.16116400E+6
295	02/09/2022	14:38:29.392	5.41265121E+0	-2.51900000E+3	2.00000000E+0	-9.80595875E+0	7.16116400E+6
296	02/09/2022	14:38:30.781	5.94225808E+0	-2.51500000E+3	2.00000000E+0	-9.80595875E+0	7.16116400E+6
297	02/09/2022	14:38:32.213	2.49118480E+0	-2.51700000E+3	2.00000000E+0	-9.80595875E+0	7.16116400E+6
298	02/09/2022	14:38:33.679	4.94402008E+0	-2.51900000E+3	2.00000000E+0	-9.80595875E+0	7.16116400E+6
299	02/09/2022	14:38:35.083	6.59611739E-2	-2.51500000E+3	2.00000000E+0	-9.80595875E+0	7.16116400E+6
300	02/09/2022	14:38:36.616	4.15517046E+0	-2.51600000E+3	2.00000000E+0	-9.80595875E+0	7.16116400E+6
301	02/09/2022	14:38:38.004	2.26492263E+0	-2.51600000E+3	2.00000000E+0	-9.80595875E+0	7.16116400E+6
