#Iteration	Date	Time	STSX	STSY	RotationRateX	RotationRateY	FrCntX	FrCntY	TiptiltCmd1	TiptiltCmd2	TiptiltMonitor1	TiptiltMonitor2
1	02/09/2022	14:31:26.596	0.00000E+0	0.00000E+0	2.00000E+1	0.00000E+0	0.00000E+0	0.00000E+0	2.00000E+1	1.40000E+1	1.99995E+1	1.39994E+1
2	02/09/2022	14:31:28.152	0.00000E+0	0.00000E+0	2.00000E+1	0.00000E+0	0.00000E+0	0.00000E+0	2.00000E+1	1.40000E+1	2.00009E+1	1.40011E+1
3	02/09/2022	14:31:29.561	0.00000E+0	0.00000E+0	2.00000E+1	0.00000E+0	0.00000E+0	0.00000E+0	2.00000E+1	1.40000E+1	1.99976E+1	1.40010E+1
4	02/09/2022	14:31:31.043	0.00000E+0	0.00000E+0	2.00000E+1	0.00000E+0	0.00000E+0	0.00000E+0	2.00000E+1	1.40000E+1	1.99989E+1	1.39979E+1
5	02/09/2022	14:31:32.457	0.00000E+0	0.00000E+0	2.00000E+1	0.00000E+0	0.00000E+0	0.00000E+0	2.00000E+1	1.40000E+1	2.00002E+1	1.40020E+1
6	02/09/2022	14:31:33.872	0.00000E+0	0.00000E+0	2.00000E+1	0.00000E+0	0.00000E+0	0.00000E+0	2.00000E+1	1.40000E+1	2.00013E+1	1.39989E+1
7	02/09/2022	14:31:35.413	0.00000E+0	0.00000E+0	2.00000E+1	0.00000E+0	0.00000E+0	0.00000E+0	2.00000E+1	1.40000E+1	1.99980E+1	1.40000E+1
8	02/09/2022	14:31:36.810	0.00000E+0	0.00000E+0	2.00000E+1	0.00000E+0	0.00000E+0	0.00000E+0	2.00000E+1	1.40000E+1	2.00026E+1	1.40004E+1
9	02/09/2022	14:31:38.202	0.00000E+0	0.00000E+0	2.00000E+1	0.00000E+0	0.00000E+0	0.00000E+0	2.00000E+1	1.40000E+1	1.99996E+1	1.39991E+1
10	02/09/2022	14:31:39.546	0.00000E+0	0.00000E+0	2.00000E+1	0.00000E+0	0.00000E+0	0.00000E+0	2.00000E+1	1.40000E+1	2.00020E+1	1.40004E+1
11	02/09/2022	14:31:40.941	0.00000E+0	0.00000E+0	2.00000E+1	0.00000E+0	0.00000E+0	0.00000E+0	2.00000E+1	1.40000E+1	2.00000E+1	1.40005E+1
12	02/09/2022	14:31:42.456	0.00000E+0	0.00000E+0	2.00000E+1	0.00000E+0	0.00000E+0	0.00000E+0	2.00000E+1	1.40000E+1	2.00020E+1	1.40020E+1
13	02/09/2022	14:31:43.851	0.00000E+0	0.00000E+0	2.00000E+1	0.00000E+0	0.00000E+0	0.00000E+0	2.00000E+1	1.40000E+1	1.99984E+1	1.40011E+1
14	02/09/2022	14:31:45.274	0.00000E+0	0.00000E+0	2.00000E+1	0.00000E+0	0.00000E+0	0.00000E+0	2.00000E+1	1.40000E+1	2.00002E+1	1.40008E+1
15	02/09/2022	14:31:46.788	0.00000E+0	0.00000E+0	2.00000E+1	0.00000E+0	0.00000E+0	0.00000E+0	2.00000E+1	1.40000E+1	1.99980E+1	1.39985E+1
16	02/09/2022	14:31:48.172	0.00000E+0	0.00000E+0	2.00000E+1	0.00000E+0	0.00000E+0	0.00000E+0	2.00000E+1	1.40000E+1	2.00014E+1	1.40019E+1
17	02/09/2022	14:31:49.655	0.00000E+0	0.00000E+0	2.00000E+1	0.00000E+0	0.00000E+0	0.00000E+0	2.00000E+1	1.40000E+1	2.00005E+1	1.39989E+1
18	02/09/2022	14:31:51.049	0.00000E+0	0.00000E+0	2.00000E+1	0.00000E+0	0.00000E+0	0.00000E+0	2.00000E+1	1.40000E+1	1.99976E+1	1.39997E+1
19	02/09/2022	14:31:52.456	0.00000E+0	0.00000E+0	2.00000E+1	0.00000E+0	0.00000E+0	0.00000E+0	2.00000E+1	1.40000E+1	2.00012E+1	1.39998E+1
20	02/09/2022	14:31:53.943	0.00000E+0	0.00000E+0	2.00000E+1	0.00000E+0	0.00000E+0	0.00000E+0	2.00000E+1	1.40000E+1	1.99992E+1	1.40000E+1
21	02/09/2022	14:31:55.435	0.00000E+0	0.00000E+0	2.00000E+1	0.00000E+0	0.00000E+0	0.00000E+0	2.00000E+1	1.40000E+1	2.00016E+1	1.40004E+1
22	02/09/2022	14:31:56.868	0.00000E+0	0.00000E+0	2.00000E+1	0.00000E+0	0.00000E+0	0.00000E+0	2.00000E+1	1.40000E+1	2.00007E+1	1.40006E+1
23	02/09/2022	14:31:58.366	0.00000E+0	0.00000E+0	2.00000E+1	0.00000E+0	0.00000E+0	0.00000E+0	2.00000E+1	1.40000E+1	1.99988E+1	1.39988E+1
24	02/09/2022	14:31:59.735	0.00000E+0	0.00000E+0	2.00000E+1	0.00000E+0	0.00000E+0	0.00000E+0	2.00000E+1	1.40000E+1	1.99979E+1	1.40007E+1
25	02/09/2022	14:32:01.298	0.00000E+0	0.00000E+0	2.00000E+1	0.00000E+0	0.00000E+0	0.00000E+0	2.00000E+1	1.40000E+1	1.99982E+1	1.40031E+1
26	02/09/2022	14:32:02.696	0.00000E+0	0.00000E+0	2.00000E+1	0.00000E+0	0.00000E+0	0.00000E+0	2.00000E+1	1.40000E+1	1.99987E+1	1.40005E+1
27	02/09/2022	14:32:04.076	0.00000E+0	0.00000E+0	2.00000E+1	0.00000E+0	0.00000E+0	0.00000E+0	2.00000E+1	1.40000E+1	1.99999E+1	1.40006E+1
28	02/09/2022	14:32:05.551	0.00000E+0	0.00000E+0	2.00000E+1	0.00000E+0	0.00000E+0	0.00000E+0	2.00000E+1	1.40000E+1	1.99994E+1	1.39995E+1
29	02/09/2022	14:32:06.940	0.00000E+0	0.00000E+0	2.00000E+1	0.00000E+0	0.00000E+0	0.00000E+0	2.00000E+1	1.40000E+1	2.00022E+1	1.40018E+1
30	02/09/2022	14:32:08.539	0.00000E+0	0.00000E+0	2.00000E+1	0.00000E+0	0.00000E+0	0.00000E+0	2.00000E+1	1.40000E+1	1.99986E+1	1.39998E+1
31	02/09/2022	14:32:09.968	0.00000E+0	0.00000E+0	2.00000E+1	0.00000E+0	0.00000E+0	0.00000E+0	2.00000E+1	1.40000E+1	2.00016E+1	1.39989E+1
32	02/09/2022	14:32:11.409	0.00000E+0	0.00000E+0	2.00000E+1	0.00000E+0	0.00000E+0	0.00000E+0	2.00000E+1	1.40000E+1	2.00012E+1	1.40013E+1
33	02/09/2022	14:32:12.897	0.00000E+0	0.00000E+0	2.00000E+1	0.00000E+0	0.00000E+0	0.00000E+0	2.00000E+1	1.40000E+1	1.99996E+1	1.40002E+1
34	02/09/2022	14:32:14.325	0.00000E+0	0.00000E+0	2.00000E+1	0.00000E+0	0.00000E+0	0.00000E+0	2.00000E+1	1.40000E+1	2.00013E+1	1.39986E+1
35	02/09/2022	14:32:15.737	0.00000E+0	0.00000E+0	2.00000E+1	0.00000E+0	0.00000E+0	0.00000E+0	2.00000E+1	1.40000E+1	2.00010E+1	1.39994E+1
36	02/09/2022	14:32:17.276	0.00000E+0	0.00000E+0	2.00000E+1	0.00000E+0	0.00000E+0	0.00000E+0	2.00000E+1	1.40000E+1	1.99987E+1	1.40010E+1
37	02/09/2022	14:32:18.675	0.00000E+0	0.00000E+0	2.00000E+1	0.00000E+0	0.00000E+0	0.00000E+0	2.00000E+1	1.40000E+1	1.99987E+1	1.40000E+1
38	02/09/2022	14:32:20.208	0.00000E+0	0.00000E+0	2.00000E+1	0.00000E+0	0.00000E+0	0.00000E+0	2.00000E+1	1.40000E+1	1.99974E+1	1.39978E+1
39	02/09/2022	14:32:21.581	0.00000E+0	0.00000E+0	2.00000E+1	0.00000E+0	0.00000E+0	0.00000E+0	2.00000E+1	1.40000E+1	1.99985E+1	1.39984E+1
40	02/09/2022	14:32:22.993	0.00000E+0	0.00000E+0	2.00000E+1	0.00000E+0	0.00000E+0	0.00000E+0	2.00000E+1	1.40000E+1	2.00002E+1	1.39999E+1
41	02/09/2022	14:32:24.566	0.00000E+0	0.00000E+0	2.00000E+1	0.00000E+0	0.00000E+0	0.00000E+0	2.00000E+1	1.40000E+1	1.99983E+1	1.39991E+1
42	02/09/2022	14:32:25.951	0.00000E+0	0.00000E+0	2.00000E+1	0.00000E+0	0.00000E+0	0.00000E+0	2.00000E+1	1.40000E+1	1.99987E+1	1.40011E+1
43	02/09/2022	14:32:27.372	0.00000E+0	0.00000E+0	2.00000E+1	0.00000E+0	0.00000E+0	0.00000E+0	2.00000E+1	1.40000E+1	1.99984E+1	1.40002E+1
44	02/09/2022	14:32:28.936	0.00000E+0	0.00000E+0	2.00000E+1	0.00000E+0	0.00000E+0	0.00000E+0	2.00000E+1	1.40000E+1	1.99998E+1	1.39990E+1
45	02/09/2022	14:32:30.333	0.00000E+0	0.00000E+0	2.00000E+1	0.00000E+0	0.00000E+0	0.00000E+0	2.00000E+1	1.40000E+1	2.00004E+1	1.39991E+1
46	02/09/2022	14:32:32.035	0.00000E+0	0.00000E+0	2.00000E+1	0.00000E+0	0.00000E+0	0.00000E+0	2.00000E+1	1.40000E+1	2.00019E+1	1.39986E+1
47	02/09/2022	14:32:33.463	0.00000E+0	0.00000E+0	2.00000E+1	0.00000E+0	0.00000E+0	0.00000E+0	2.00000E+1	1.40000E+1	1.99993E+1	1.39996E+1
48	02/09/2022	14:32:34.990	0.00000E+0	0.00000E+0	2.00000E+1	0.00000E+0	0.00000E+0	0.00000E+0	2.00000E+1	1.40000E+1	1.99997E+1	1.40031E+1
49	02/09/2022	14:32:36.549	0.00000E+0	0.00000E+0	2.00000E+1	0.00000E+0	0.00000E+0	0.00000E+0	2.00000E+1	1.40000E+1	2.00007E+1	1.40011E+1
50	02/09/2022	14:32:37.966	0.00000E+0	0.00000E+0	2.00000E+1	0.00000E+0	0.00000E+0	0.00000E+0	2.00000E+1	1.40000E+1	1.99974E+1	1.39982E+1
51	02/09/2022	14:32:39.534	0.00000E+0	0.00000E+0	2.00000E+1	0.00000E+0	0.00000E+0	0.00000E+0	2.00000E+1	1.40000E+1	1.99988E+1	1.40014E+1
52	02/09/2022	14:32:40.927	0.00000E+0	0.00000E+0	2.00000E+1	0.00000E+0	0.00000E+0	0.00000E+0	2.00000E+1	1.40000E+1	1.99990E+1	1.40016E+1
53	02/09/2022	14:32:42.306	0.00000E+0	0.00000E+0	2.00000E+1	0.00000E+0	0.00000E+0	0.00000E+0	2.00000E+1	1.40000E+1	1.99992E+1	1.40000E+1
54	02/09/2022	14:32:43.855	0.00000E+0	0.00000E+0	2.00000E+1	0.00000E+0	0.00000E+0	0.00000E+0	2.00000E+1	1.40000E+1	1.99998E+1	1.39982E+1
55	02/09/2022	14:32:45.258	0.00000E+0	0.00000E+0	2.00000E+1	0.00000E+0	0.00000E+0	0.00000E+0	2.00000E+1	1.40000E+1	1.99996E+1	1.39970E+1
56	02/09/2022	14:32:46.714	0.00000E+0	0.00000E+0	2.00000E+1	0.00000E+0	0.00000E+0	0.00000E+0	2.00000E+1	1.40000E+1	2.00001E+1	1.40004E+1
57	02/09/2022	14:32:48.220	0.00000E+0	0.00000E+0	2.00000E+1	0.00000E+0	0.00000E+0	0.00000E+0	2.00000E+1	1.40000E+1	2.00001E+1	1.40006E+1
58	02/09/2022	14:32:49.601	0.00000E+0	0.00000E+0	2.00000E+1	0.00000E+0	0.00000E+0	0.00000E+0	2.00000E+1	1.40000E+1	1.99993E+1	1.39978E+1
59	02/09/2022	14:32:51.146	0.00000E+0	0.00000E+0	2.00000E+1	0.00000E+0	0.00000E+0	0.00000E+0	2.00000E+1	1.40000E+1	1.99989E+1	1.40002E+1
60	02/09/2022	14:32:52.520	0.00000E+0	0.00000E+0	2.00000E+1	0.00000E+0	0.00000E+0	0.00000E+0	2.00000E+1	1.40000E+1	1.99982E+1	1.39996E+1
61	02/09/2022	14:32:53.892	0.00000E+0	0.00000E+0	2.00000E+1	0.00000E+0	0.00000E+0	0.00000E+0	2.00000E+1	1.40000E+1	1.99999E+1	1.39965E+1
62	02/09/2022	14:32:55.552	0.00000E+0	0.00000E+0	2.00000E+1	0.00000E+0	0.00000E+0	0.00000E+0	2.00000E+1	1.40000E+1	2.00021E+1	1.39999E+1
63	02/09/2022	14:32:56.935	0.00000E+0	0.00000E+0	2.00000E+1	0.00000E+0	0.00000E+0	0.00000E+0	2.00000E+1	1.40000E+1	1.99973E+1	1.40004E+1
64	02/09/2022	14:32:58.319	0.00000E+0	0.00000E+0	2.00000E+1	0.00000E+0	0.00000E+0	0.00000E+0	2.00000E+1	1.40000E+1	1.99984E+1	1.39986E+1
65	02/09/2022	14:32:59.702	0.00000E+0	0.00000E+0	2.00000E+1	0.00000E+0	0.00000E+0	0.00000E+0	2.00000E+1	1.40000E+1	1.99994E+1	1.40009E+1
66	02/09/2022	14:33:01.084	0.00000E+0	0.00000E+0	2.00000E+1	0.00000E+0	0.00000E+0	0.00000E+0	2.00000E+1	1.40000E+1	1.99983E+1	1.39995E+1
67	02/09/2022	14:33:02.633	0.00000E+0	0.00000E+0	2.00000E+1	0.00000E+0	0.00000E+0	0.00000E+0	2.00000E+1	1.40000E+1	1.99989E+1	1.39987E+1
68	02/09/2022	14:33:04.013	0.00000E+0	0.00000E+0	2.00000E+1	0.00000E+0	0.00000E+0	0.00000E+0	2.00000E+1	1.40000E+1	1.99989E+1	1.39985E+1
69	02/09/2022	14:33:05.468	0.00000E+0	0.00000E+0	2.00000E+1	0.00000E+0	0.00000E+0	0.00000E+0	2.00000E+1	1.40000E+1	2.00003E+1	1.40009E+1
70	02/09/2022	14:33:06.953	0.00000E+0	0.00000E+0	2.00000E+1	0.00000E+0	0.00000E+0	0.00000E+0	2.00000E+1	1.40000E+1	2.00018E+1	1.39993E+1
71	02/09/2022	14:33:08.355	0.00000E+0	0.00000E+0	2.00000E+1	0.00000E+0	0.00000E+0	0.00000E+0	2.00000E+1	1.40000E+1	2.00016E+1	1.39996E+1
72	02/09/2022	14:33:09.928	0.00000E+0	0.00000E+0	2.00000E+1	0.00000E+0	0.00000E+0	0.00000E+0	2.00000E+1	1.40000E+1	2.00003E+1	1.40000E+1
73	02/09/2022	14:33:11.303	0.00000E+0	0.00000E+0	2.00000E+1	0.00000E+0	0.00000E+0	0.00000E+0	2.00000E+1	1.40000E+1	2.00005E+1	1.40036E+1
74	02/09/2022	14:33:12.683	0.00000E+0	0.00000E+0	2.00000E+1	0.00000E+0	0.00000E+0	0.00000E+0	2.00000E+1	1.40000E+1	1.99994E+1	1.39999E+1
75	02/09/2022	14:33:14.213	0.00000E+0	0.00000E+0	2.00000E+1	0.00000E+0	0.00000E+0	0.00000E+0	2.00000E+1	1.40000E+1	2.00001E+1	1.39989E+1
76	02/09/2022	14:33:15.610	0.00000E+0	0.00000E+0	2.00000E+1	0.00000E+0	0.00000E+0	0.00000E+0	2.00000E+1	1.40000E+1	2.00003E+1	1.40022E+1
77	02/09/2022	14:33:17.053	0.00000E+0	0.00000E+0	2.00000E+1	0.00000E+0	0.00000E+0	0.00000E+0	2.00000E+1	1.40000E+1	1.99998E+1	1.39993E+1
78	02/09/2022	14:33:18.580	0.00000E+0	0.00000E+0	2.00000E+1	0.00000E+0	0.00000E+0	0.00000E+0	2.00000E+1	1.40000E+1	2.00010E+1	1.39979E+1
79	02/09/2022	14:33:19.972	0.00000E+0	0.00000E+0	2.00000E+1	0.00000E+0	0.00000E+0	0.00000E+0	2.00000E+1	1.40000E+1	1.99992E+1	1.40029E+1
80	02/09/2022	14:33:21.436	0.00000E+0	0.00000E+0	2.00000E+1	0.00000E+0	0.00000E+0	0.00000E+0	2.00000E+1	1.40000E+1	2.00007E+1	1.40014E+1
81	02/09/2022	14:33:22.833	0.00000E+0	0.00000E+0	2.00000E+1	0.00000E+0	0.00000E+0	0.00000E+0	2.00000E+1	1.40000E+1	2.00024E+1	1.40001E+1
82	02/09/2022	14:33:24.230	0.00000E+0	0.00000E+0	2.00000E+1	0.00000E+0	0.00000E+0	0.00000E+0	2.00000E+1	1.40000E+1	2.00005E+1	1.40008E+1
83	02/09/2022	14:33:25.763	0.00000E+0	0.00000E+0	2.00000E+1	0.00000E+0	0.00000E+0	0.00000E+0	2.00000E+1	1.40000E+1	1.99987E+1	1.40018E+1
84	02/09/2022	14:33:27.148	0.00000E+0	0.00000E+0	2.00000E+1	0.00000E+0	0.00000E+0	0.00000E+0	2.00000E+1	1.40000E+1	1.99990E+1	1.40007E+1
85	02/09/2022	14:33:28.594	0.00000E+0	0.00000E+0	2.00000E+1	0.00000E+0	0.00000E+0	0.00000E+0	2.00000E+1	1.40000E+1	1.99998E+1	1.39990E+1
86	02/09/2022	14:33:30.029	0.00000E+0	0.00000E+0	2.00000E+1	0.00000E+0	0.00000E+0	0.00000E+0	2.00000E+1	1.40000E+1	1.99999E+1	1.40015E+1
87	02/09/2022	14:33:31.415	0.00000E+0	0.00000E+0	2.00000E+1	0.00000E+0	0.00000E+0	0.00000E+0	2.00000E+1	1.40000E+1	2.00008E+1	1.39993E+1
88	02/09/2022	14:33:32.906	0.00000E+0	0.00000E+0	2.00000E+1	0.00000E+0	0.00000E+0	0.00000E+0	2.00000E+1	1.40000E+1	1.99989E+1	1.39985E+1
89	02/09/2022	14:33:34.295	0.00000E+0	0.00000E+0	2.00000E+1	0.00000E+0	0.00000E+0	0.00000E+0	2.00000E+1	1.40000E+1	1.99994E+1	1.39987E+1
90	02/09/2022	14:33:35.804	0.00000E+0	0.00000E+0	2.00000E+1	0.00000E+0	0.00000E+0	0.00000E+0	2.00000E+1	1.40000E+1	2.00011E+1	1.40011E+1
91	02/09/2022	14:33:37.371	0.00000E+0	0.00000E+0	2.00000E+1	0.00000E+0	0.00000E+0	0.00000E+0	2.00000E+1	1.40000E+1	2.00004E+1	1.39992E+1
92	02/09/2022	14:33:38.751	0.00000E+0	0.00000E+0	2.00000E+1	0.00000E+0	0.00000E+0	0.00000E+0	2.00000E+1	1.40000E+1	1.99993E+1	1.40001E+1
93	02/09/2022	14:33:40.214	0.00000E+0	0.00000E+0	2.00000E+1	0.00000E+0	0.00000E+0	0.00000E+0	2.00000E+1	1.40000E+1	1.99994E+1	1.40021E+1
94	02/09/2022	14:33:41.605	0.00000E+0	0.00000E+0	2.00000E+1	0.00000E+0	0.00000E+0	0.00000E+0	2.00000E+1	1.40000E+1	2.00001E+1	1.40006E+1
95	02/09/2022	14:33:42.990	0.00000E+0	0.00000E+0	2.00000E+1	0.00000E+0	0.00000E+0	0.00000E+0	2.00000E+1	1.40000E+1	2.00011E+1	1.40015E+1
96	02/09/2022	14:33:44.539	0.00000E+0	0.00000E+0	2.00000E+1	0.00000E+0	0.00000E+0	0.00000E+0	2.00000E+1	1.40000E+1	2.00028E+1	1.40003E+1
97	02/09/2022	14:33:45.969	0.00000E+0	0.00000E+0	2.00000E+1	0.00000E+0	0.00000E+0	0.00000E+0	2.00000E+1	1.40000E+1	2.00020E+1	1.39976E+1
98	02/09/2022	14:33:47.392	0.00000E+0	0.00000E+0	2.00000E+1	0.00000E+0	0.00000E+0	0.00000E+0	2.00000E+1	1.40000E+1	2.00010E+1	1.40006E+1
99	02/09/2022	14:33:48.875	0.00000E+0	0.00000E+0	2.00000E+1	0.00000E+0	0.00000E+0	0.00000E+0	2.00000E+1	1.40000E+1	1.99990E+1	1.39992E+1
100	02/09/2022	14:33:50.270	0.00000E+0	0.00000E+0	2.00000E+1	0.00000E+0	0.00000E+0	0.00000E+0	2.00000E+1	1.40000E+1	1.99988E+1	1.40011E+1
101	02/09/2022	14:33:51.789	0.00000E+0	0.00000E+0	2.00000E+1	0.00000E+0	0.00000E+0	0.00000E+0	2.00000E+1	1.40000E+1	2.00026E+1	1.40009E+1
102	02/09/2022	14:33:53.184	0.00000E+0	0.00000E+0	2.00000E+1	0.00000E+0	0.00000E+0	0.00000E+0	2.00000E+1	1.40000E+1	2.00002E+1	1.40005E+1
103	02/09/2022	14:33:54.554	0.00000E+0	0.00000E+0	2.00000E+1	0.00000E+0	0.00000E+0	0.00000E+0	2.00000E+1	1.40000E+1	1.99994E+1	1.39992E+1
104	02/09/2022	14:33:56.093	0.00000E+0	0.00000E+0	2.00000E+1	0.00000E+0	0.00000E+0	0.00000E+0	2.00000E+1	1.40000E+1	2.00003E+1	1.39993E+1
105	02/09/2022	14:33:57.479	0.00000E+0	0.00000E+0	2.00000E+1	0.00000E+0	0.00000E+0	0.00000E+0	2.00000E+1	1.40000E+1	1.99999E+1	1.39996E+1
106	02/09/2022	14:33:58.919	0.00000E+0	0.00000E+0	2.00000E+1	0.00000E+0	0.00000E+0	0.00000E+0	2.00000E+1	1.40000E+1	2.00005E+1	1.39985E+1
107	02/09/2022	14:34:00.305	0.00000E+0	0.00000E+0	2.00000E+1	0.00000E+0	0.00000E+0	0.00000E+0	2.00000E+1	1.40000E+1	2.00005E+1	1.40015E+1
108	02/09/2022	14:34:01.694	0.00000E+0	0.00000E+0	2.00000E+1	0.00000E+0	0.00000E+0	0.00000E+0	2.00000E+1	1.40000E+1	2.00014E+1	1.40016E+1
109	02/09/2022	14:34:03.171	0.00000E+0	0.00000E+0	2.00000E+1	0.00000E+0	0.00000E+0	0.00000E+0	2.00000E+1	1.40000E+1	2.00031E+1	1.40006E+1
110	02/09/2022	14:34:04.551	0.00000E+0	0.00000E+0	2.00000E+1	0.00000E+0	0.00000E+0	0.00000E+0	2.00000E+1	1.40000E+1	2.00000E+1	1.39987E+1
111	02/09/2022	14:34:05.945	0.00000E+0	0.00000E+0	2.00000E+1	0.00000E+0	0.00000E+0	0.00000E+0	2.00000E+1	1.40000E+1	2.00005E+1	1.39995E+1
112	02/09/2022	14:34:07.466	0.00000E+0	0.00000E+0	2.00000E+1	0.00000E+0	0.00000E+0	0.00000E+0	2.00000E+1	1.40000E+1	2.00010E+1	1.40004E+1
113	02/09/2022	14:34:08.841	0.00000E+0	0.00000E+0	2.00000E+1	0.00000E+0	0.00000E+0	0.00000E+0	2.00000E+1	1.40000E+1	2.00000E+1	1.40011E+1
114	02/09/2022	14:34:10.254	0.00000E+0	0.00000E+0	2.00000E+1	0.00000E+0	0.00000E+0	0.00000E+0	2.00000E+1	1.40000E+1	1.99995E+1	1.39994E+1
115	02/09/2022	14:34:11.635	0.00000E+0	0.00000E+0	2.00000E+1	0.00000E+0	0.00000E+0	0.00000E+0	2.00000E+1	1.40000E+1	1.99976E+1	1.40020E+1
116	02/09/2022	14:34:13.043	0.00000E+0	0.00000E+0	2.00000E+1	0.00000E+0	0.00000E+0	0.00000E+0	2.00000E+1	1.40000E+1	2.00000E+1	1.40021E+1
117	02/09/2022	14:34:14.604	0.00000E+0	0.00000E+0	2.00000E+1	0.00000E+0	0.00000E+0	0.00000E+0	2.00000E+1	1.40000E+1	2.00003E+1	1.40019E+1
118	02/09/2022	14:34:15.997	0.00000E+0	0.00000E+0	2.00000E+1	0.00000E+0	0.00000E+0	0.00000E+0	2.00000E+1	1.40000E+1	2.00017E+1	1.40004E+1
119	02/09/2022	14:34:17.442	0.00000E+0	0.00000E+0	2.00000E+1	0.00000E+0	0.00000E+0	0.00000E+0	2.00000E+1	1.40000E+1	1.99994E+1	1.40022E+1
120	02/09/2022	14:34:18.786	0.00000E+0	0.00000E+0	2.00000E+1	0.00000E+0	0.00000E+0	0.00000E+0	2.00000E+1	1.40000E+1	2.00003E+1	1.40019E+1
121	02/09/2022	14:34:20.150	0.00000E+0	0.00000E+0	2.00000E+1	0.00000E+0	0.00000E+0	0.00000E+0	2.00000E+1	1.40000E+1	2.00003E+1	1.39986E+1
122	02/09/2022	14:34:21.692	0.00000E+0	0.00000E+0	2.00000E+1	0.00000E+0	0.00000E+0	0.00000E+0	2.00000E+1	1.40000E+1	2.00023E+1	1.39994E+1
123	02/09/2022	14:34:23.082	0.00000E+0	0.00000E+0	2.00000E+1	0.00000E+0	0.00000E+0	0.00000E+0	2.00000E+1	1.40000E+1	1.99996E+1	1.40014E+1
124	02/09/2022	14:34:24.526	0.00000E+0	0.00000E+0	2.00000E+1	0.00000E+0	0.00000E+0	0.00000E+0	2.00000E+1	1.40000E+1	1.99996E+1	1.40006E+1
125	02/09/2022	14:34:26.022	0.00000E+0	0.00000E+0	2.00000E+1	0.00000E+0	0.00000E+0	0.00000E+0	2.00000E+1	1.40000E+1	1.99985E+1	1.40025E+1
126	02/09/2022	14:34:27.408	0.00000E+0	0.00000E+0	2.00000E+1	0.00000E+0	0.00000E+0	0.00000E+0	2.00000E+1	1.40000E+1	1.99977E+1	1.40008E+1
127	02/09/2022	14:34:28.924	0.00000E+0	0.00000E+0	2.00000E+1	0.00000E+0	0.00000E+0	0.00000E+0	2.00000E+1	1.40000E+1	2.00012E+1	1.39997E+1
128	02/09/2022	14:34:30.282	0.00000E+0	0.00000E+0	2.00000E+1	0.00000E+0	0.00000E+0	0.00000E+0	2.00000E+1	1.40000E+1	2.00022E+1	1.39995E+1
129	02/09/2022	14:34:31.685	0.00000E+0	0.00000E+0	2.00000E+1	0.00000E+0	0.00000E+0	0.00000E+0	2.00000E+1	1.40000E+1	2.00001E+1	1.39997E+1
130	02/09/2022	14:34:33.210	0.00000E+0	0.00000E+0	2.00000E+1	0.00000E+0	0.00000E+0	0.00000E+0	2.00000E+1	1.40000E+1	2.00032E+1	1.40001E+1
131	02/09/2022	14:34:34.623	0.00000E+0	0.00000E+0	2.00000E+1	0.00000E+0	0.00000E+0	0.00000E+0	2.00000E+1	1.40000E+1	1.99998E+1	1.39999E+1
132	02/09/2022	14:34:36.081	0.00000E+0	0.00000E+0	2.00000E+1	0.00000E+0	0.00000E+0	0.00000E+0	2.00000E+1	1.40000E+1	1.99981E+1	1.39990E+1
133	02/09/2022	14:34:37.582	0.00000E+0	0.00000E+0	2.00000E+1	0.00000E+0	0.00000E+0	0.00000E+0	2.00000E+1	1.40000E+1	2.00008E+1	1.40007E+1
134	02/09/2022	14:34:38.969	0.00000E+0	0.00000E+0	2.00000E+1	0.00000E+0	0.00000E+0	0.00000E+0	2.00000E+1	1.40000E+1	1.99983E+1	1.39970E+1
135	02/09/2022	14:34:40.489	0.00000E+0	0.00000E+0	2.00000E+1	0.00000E+0	0.00000E+0	0.00000E+0	2.00000E+1	1.40000E+1	2.00013E+1	1.39998E+1
136	02/09/2022	14:34:41.863	0.00000E+0	0.00000E+0	2.00000E+1	0.00000E+0	0.00000E+0	0.00000E+0	2.00000E+1	1.40000E+1	1.99987E+1	1.39991E+1
137	02/09/2022	14:34:43.233	0.00000E+0	0.00000E+0	2.00000E+1	0.00000E+0	0.00000E+0	0.00000E+0	2.00000E+1	1.40000E+1	2.00006E+1	1.39993E+1
138	02/09/2022	14:34:44.739	0.00000E+0	0.00000E+0	2.00000E+1	0.00000E+0	0.00000E+0	0.00000E+0	2.00000E+1	1.40000E+1	2.00016E+1	1.39991E+1
139	02/09/2022	14:34:46.140	0.00000E+0	0.00000E+0	2.00000E+1	0.00000E+0	0.00000E+0	0.00000E+0	2.00000E+1	1.40000E+1	2.00021E+1	1.40002E+1
140	02/09/2022	14:34:47.673	0.00000E+0	0.00000E+0	2.00000E+1	0.00000E+0	0.00000E+0	0.00000E+0	2.00000E+1	1.40000E+1	1.99991E+1	1.39994E+1
141	02/09/2022	14:34:49.053	0.00000E+0	0.00000E+0	2.00000E+1	0.00000E+0	0.00000E+0	0.00000E+0	2.00000E+1	1.40000E+1	1.99993E+1	1.40013E+1
142	02/09/2022	14:34:50.445	0.00000E+0	0.00000E+0	2.00000E+1	0.00000E+0	0.00000E+0	0.00000E+0	2.00000E+1	1.40000E+1	2.00004E+1	1.40005E+1
143	02/09/2022	14:34:51.985	0.00000E+0	0.00000E+0	2.00000E+1	0.00000E+0	0.00000E+0	0.00000E+0	2.00000E+1	1.40000E+1	1.99980E+1	1.39980E+1
144	02/09/2022	14:34:53.387	0.00000E+0	0.00000E+0	2.00000E+1	0.00000E+0	0.00000E+0	0.00000E+0	2.00000E+1	1.40000E+1	2.00014E+1	1.40026E+1
145	02/09/2022	14:34:54.770	0.00000E+0	0.00000E+0	2.00000E+1	0.00000E+0	0.00000E+0	0.00000E+0	2.00000E+1	1.40000E+1	1.99981E+1	1.39994E+1
146	02/09/2022	14:34:56.260	0.00000E+0	0.00000E+0	2.00000E+1	0.00000E+0	0.00000E+0	0.00000E+0	2.00000E+1	1.40000E+1	2.00008E+1	1.39991E+1
147	02/09/2022	14:34:57.648	0.00000E+0	0.00000E+0	2.00000E+1	0.00000E+0	0.00000E+0	0.00000E+0	2.00000E+1	1.40000E+1	1.99978E+1	1.40005E+1
148	02/09/2022	14:34:59.244	0.00000E+0	0.00000E+0	2.00000E+1	0.00000E+0	0.00000E+0	0.00000E+0	2.00000E+1	1.40000E+1	2.00008E+1	1.40002E+1
149	02/09/2022	14:35:00.621	0.00000E+0	0.00000E+0	2.00000E+1	0.00000E+0	0.00000E+0	0.00000E+0	2.00000E+1	1.40000E+1	1.99999E+1	1.39990E+1
150	02/09/2022	14:35:02.016	0.00000E+0	0.00000E+0	2.00000E+1	0.00000E+0	0.00000E+0	0.00000E+0	2.00000E+1	1.40000E+1	2.00015E+1	1.39994E+1
151	02/09/2022	14:35:03.487	0.00000E+0	0.00000E+0	2.00000E+1	0.00000E+0	0.00000E+0	0.00000E+0	2.00000E+1	1.40000E+1	2.00018E+1	1.40028E+1
152	02/09/2022	14:35:04.866	0.00000E+0	0.00000E+0	2.00000E+1	0.00000E+0	0.00000E+0	0.00000E+0	2.00000E+1	1.40000E+1	1.99996E+1	1.40036E+1
153	02/09/2022	14:35:06.315	0.00000E+0	0.00000E+0	2.00000E+1	0.00000E+0	0.00000E+0	0.00000E+0	2.00000E+1	1.40000E+1	1.99992E+1	1.40000E+1
154	02/09/2022	14:35:07.794	0.00000E+0	0.00000E+0	2.00000E+1	0.00000E+0	0.00000E+0	0.00000E+0	2.00000E+1	1.40000E+1	2.00000E+1	1.39980E+1
155	02/09/2022	14:35:09.184	0.00000E+0	0.00000E+0	2.00000E+1	0.00000E+0	0.00000E+0	0.00000E+0	2.00000E+1	1.40000E+1	2.00027E+1	1.40000E+1
156	02/09/2022	14:35:10.729	0.00000E+0	0.00000E+0	2.00000E+1	0.00000E+0	0.00000E+0	0.00000E+0	2.00000E+1	1.40000E+1	1.99991E+1	1.39988E+1
157	02/09/2022	14:35:12.086	0.00000E+0	0.00000E+0	2.00000E+1	0.00000E+0	0.00000E+0	0.00000E+0	2.00000E+1	1.40000E+1	1.99983E+1	1.39996E+1
158	02/09/2022	14:35:13.539	0.00000E+0	0.00000E+0	2.00000E+1	0.00000E+0	0.00000E+0	0.00000E+0	2.00000E+1	1.40000E+1	1.99999E+1	1.39996E+1
159	02/09/2022	14:35:15.079	0.00000E+0	0.00000E+0	2.00000E+1	0.00000E+0	0.00000E+0	0.00000E+0	2.00000E+1	1.40000E+1	1.99994E+1	1.40005E+1
160	02/09/2022	14:35:16.457	0.00000E+0	0.00000E+0	2.00000E+1	0.00000E+0	0.00000E+0	0.00000E+0	2.00000E+1	1.40000E+1	2.00005E+1	1.40033E+1
161	02/09/2022	14:35:17.916	0.00000E+0	0.00000E+0	2.00000E+1	0.00000E+0	0.00000E+0	0.00000E+0	2.00000E+1	1.40000E+1	1.99994E+1	1.39988E+1
162	02/09/2022	14:35:19.319	0.00000E+0	0.00000E+0	2.00000E+1	0.00000E+0	0.00000E+0	0.00000E+0	2.00000E+1	1.40000E+1	2.00004E+1	1.40020E+1
163	02/09/2022	14:35:20.712	0.00000E+0	0.00000E+0	2.00000E+1	0.00000E+0	0.00000E+0	0.00000E+0	2.00000E+1	1.40000E+1	2.00007E+1	1.40006E+1
164	02/09/2022	14:35:22.241	0.00000E+0	0.00000E+0	2.00000E+1	0.00000E+0	0.00000E+0	0.00000E+0	2.00000E+1	1.40000E+1	2.00017E+1	1.39981E+1
165	02/09/2022	14:35:23.611	0.00000E+0	0.00000E+0	2.00000E+1	0.00000E+0	0.00000E+0	0.00000E+0	2.00000E+1	1.40000E+1	2.00023E+1	1.39993E+1
166	02/09/2022	14:35:24.986	0.00000E+0	0.00000E+0	2.00000E+1	0.00000E+0	0.00000E+0	0.00000E+0	2.00000E+1	1.40000E+1	1.99987E+1	1.40009E+1
167	02/09/2022	14:35:26.482	0.00000E+0	0.00000E+0	2.00000E+1	0.00000E+0	0.00000E+0	0.00000E+0	2.00000E+1	1.40000E+1	1.99985E+1	1.40026E+1
168	02/09/2022	14:35:27.885	0.00000E+0	0.00000E+0	2.00000E+1	0.00000E+0	0.00000E+0	0.00000E+0	2.00000E+1	1.40000E+1	2.00003E+1	1.39994E+1
169	02/09/2022	14:35:29.366	0.00000E+0	0.00000E+0	2.00000E+1	0.00000E+0	0.00000E+0	0.00000E+0	2.00000E+1	1.40000E+1	1.99986E+1	1.40023E+1
170	02/09/2022	14:35:30.767	0.00000E+0	0.00000E+0	2.00000E+1	0.00000E+0	0.00000E+0	0.00000E+0	2.00000E+1	1.40000E+1	2.00000E+1	1.39991E+1
171	02/09/2022	14:35:32.151	0.00000E+0	0.00000E+0	2.00000E+1	0.00000E+0	0.00000E+0	0.00000E+0	2.00000E+1	1.40000E+1	2.00014E+1	1.40018E+1
172	02/09/2022	14:35:33.711	0.00000E+0	0.00000E+0	2.00000E+1	0.00000E+0	0.00000E+0	0.00000E+0	2.00000E+1	1.40000E+1	2.00004E+1	1.39991E+1
173	02/09/2022	14:35:35.097	0.00000E+0	0.00000E+0	2.00000E+1	0.00000E+0	0.00000E+0	0.00000E+0	2.00000E+1	1.40000E+1	2.00009E+1	1.39992E+1
174	02/09/2022	14:35:36.546	0.00000E+0	0.00000E+0	2.00000E+1	0.00000E+0	0.00000E+0	0.00000E+0	2.00000E+1	1.40000E+1	2.00026E+1	1.40000E+1
175	02/09/2022	14:35:37.948	0.00000E+0	0.00000E+0	2.00000E+1	0.00000E+0	0.00000E+0	0.00000E+0	2.00000E+1	1.40000E+1	2.00004E+1	1.39973E+1
176	02/09/2022	14:35:39.311	0.00000E+0	0.00000E+0	2.00000E+1	0.00000E+0	0.00000E+0	0.00000E+0	2.00000E+1	1.40000E+1	1.99990E+1	1.40017E+1
177	02/09/2022	14:35:40.794	0.00000E+0	0.00000E+0	2.00000E+1	0.00000E+0	0.00000E+0	0.00000E+0	2.00000E+1	1.40000E+1	2.00003E+1	1.39998E+1
178	02/09/2022	14:35:42.176	0.00000E+0	0.00000E+0	2.00000E+1	0.00000E+0	0.00000E+0	0.00000E+0	2.00000E+1	1.40000E+1	2.00021E+1	1.40002E+1
179	02/09/2022	14:35:43.582	0.00000E+0	0.00000E+0	2.00000E+1	0.00000E+0	0.00000E+0	0.00000E+0	2.00000E+1	1.40000E+1	2.00020E+1	1.39990E+1
180	02/09/2022	14:35:45.110	0.00000E+0	0.00000E+0	2.00000E+1	0.00000E+0	0.00000E+0	0.00000E+0	2.00000E+1	1.40000E+1	2.00006E+1	1.40004E+1
181	02/09/2022	14:35:46.483	0.00000E+0	0.00000E+0	2.00000E+1	0.00000E+0	0.00000E+0	0.00000E+0	2.00000E+1	1.40000E+1	1.99975E+1	1.40009E+1
182	02/09/2022	14:35:47.983	0.00000E+0	0.00000E+0	2.00000E+1	0.00000E+0	0.00000E+0	0.00000E+0	2.00000E+1	1.40000E+1	1.99996E+1	1.39997E+1
183	02/09/2022	14:35:49.380	0.00000E+0	0.00000E+0	2.00000E+1	0.00000E+0	0.00000E+0	0.00000E+0	2.00000E+1	1.40000E+1	1.99971E+1	1.40000E+1
184	02/09/2022	14:35:50.753	0.00000E+0	0.00000E+0	2.00000E+1	0.00000E+0	0.00000E+0	0.00000E+0	2.00000E+1	1.40000E+1	2.00012E+1	1.39998E+1
185	02/09/2022	14:35:52.216	0.00000E+0	0.00000E+0	2.00000E+1	0.00000E+0	0.00000E+0	0.00000E+0	2.00000E+1	1.40000E+1	1.99992E+1	1.40006E+1
186	02/09/2022	14:35:53.607	0.00000E+0	0.00000E+0	2.00000E+1	0.00000E+0	0.00000E+0	0.00000E+0	2.00000E+1	1.40000E+1	1.99997E+1	1.39998E+1
187	02/09/2022	14:35:55.031	0.00000E+0	0.00000E+0	2.00000E+1	0.00000E+0	0.00000E+0	0.00000E+0	2.00000E+1	1.40000E+1	2.00005E+1	1.39982E+1
188	02/09/2022	14:35:56.521	0.00000E+0	0.00000E+0	2.00000E+1	0.00000E+0	0.00000E+0	0.00000E+0	2.00000E+1	1.40000E+1	1.99998E+1	1.40001E+1
189	02/09/2022	14:35:57.917	0.00000E+0	0.00000E+0	2.00000E+1	0.00000E+0	0.00000E+0	0.00000E+0	2.00000E+1	1.40000E+1	1.99984E+1	1.40004E+1
190	02/09/2022	14:35:59.442	0.00000E+0	0.00000E+0	2.00000E+1	0.00000E+0	0.00000E+0	0.00000E+0	2.00000E+1	1.40000E+1	1.99979E+1	1.39991E+1
191	02/09/2022	14:36:00.821	0.00000E+0	0.00000E+0	2.00000E+1	0.00000E+0	0.00000E+0	0.00000E+0	2.00000E+1	1.40000E+1	1.99986E+1	1.40018E+1
192	02/09/2022	14:36:02.218	0.00000E+0	0.00000E+0	2.00000E+1	0.00000E+0	0.00000E+0	0.00000E+0	2.00000E+1	1.40000E+1	2.00024E+1	1.39997E+1
193	02/09/2022	14:36:03.671	0.00000E+0	0.00000E+0	2.00000E+1	0.00000E+0	0.00000E+0	0.00000E+0	2.00000E+1	1.40000E+1	1.99990E+1	1.40002E+1
194	02/09/2022	14:36:05.038	0.00000E+0	0.00000E+0	2.00000E+1	0.00000E+0	0.00000E+0	0.00000E+0	2.00000E+1	1.40000E+1	1.99991E+1	1.39994E+1
195	02/09/2022	14:36:06.571	0.00000E+0	0.00000E+0	2.00000E+1	0.00000E+0	0.00000E+0	0.00000E+0	2.00000E+1	1.40000E+1	1.99990E+1	1.39990E+1
196	02/09/2022	14:36:07.998	0.00000E+0	0.00000E+0	2.00000E+1	0.00000E+0	0.00000E+0	0.00000E+0	2.00000E+1	1.40000E+1	1.99985E+1	1.39980E+1
197	02/09/2022	14:36:09.366	0.00000E+0	0.00000E+0	2.00000E+1	0.00000E+0	0.00000E+0	0.00000E+0	2.00000E+1	1.40000E+1	1.99984E+1	1.39995E+1
198	02/09/2022	14:36:11.146	0.00000E+0	0.00000E+0	2.00000E+1	0.00000E+0	0.00000E+0	0.00000E+0	2.00000E+1	1.40000E+1	1.99980E+1	1.40010E+1
199	02/09/2022	14:36:12.538	0.00000E+0	0.00000E+0	2.00000E+1	0.00000E+0	0.00000E+0	0.00000E+0	2.00000E+1	1.40000E+1	1.99999E+1	1.40007E+1
200	02/09/2022	14:36:13.942	0.00000E+0	0.00000E+0	2.00000E+1	0.00000E+0	0.00000E+0	0.00000E+0	2.00000E+1	1.40000E+1	2.00009E+1	1.40003E+1
201	02/09/2022	14:36:15.443	0.00000E+0	0.00000E+0	2.00000E+1	0.00000E+0	0.00000E+0	0.00000E+0	2.00000E+1	1.40000E+1	1.99992E+1	1.40003E+1
202	02/09/2022	14:36:16.823	0.00000E+0	0.00000E+0	2.00000E+1	0.00000E+0	0.00000E+0	0.00000E+0	2.00000E+1	1.40000E+1	2.00019E+1	1.39992E+1
203	02/09/2022	14:36:18.262	0.00000E+0	0.00000E+0	2.00000E+1	0.00000E+0	0.00000E+0	0.00000E+0	2.00000E+1	1.40000E+1	2.00006E+1	1.39999E+1
204	02/09/2022	14:36:19.646	0.00000E+0	0.00000E+0	2.00000E+1	0.00000E+0	0.00000E+0	0.00000E+0	2.00000E+1	1.40000E+1	1.99995E+1	1.39984E+1
205	02/09/2022	14:36:21.035	0.00000E+0	0.00000E+0	2.00000E+1	0.00000E+0	0.00000E+0	0.00000E+0	2.00000E+1	1.40000E+1	2.00009E+1	1.40013E+1
206	02/09/2022	14:36:22.542	0.00000E+0	0.00000E+0	2.00000E+1	0.00000E+0	0.00000E+0	0.00000E+0	2.00000E+1	1.40000E+1	1.99978E+1	1.40005E+1
207	02/09/2022	14:36:23.951	0.00000E+0	0.00000E+0	2.00000E+1	0.00000E+0	0.00000E+0	0.00000E+0	2.00000E+1	1.40000E+1	1.99978E+1	1.39976E+1
208	02/09/2022	14:36:25.323	0.00000E+0	0.00000E+0	2.00000E+1	0.00000E+0	0.00000E+0	0.00000E+0	2.00000E+1	1.40000E+1	2.00018E+1	1.39984E+1
209	02/09/2022	14:36:26.703	0.00000E+0	0.00000E+0	2.00000E+1	0.00000E+0	0.00000E+0	0.00000E+0	2.00000E+1	1.40000E+1	2.00025E+1	1.39966E+1
210	02/09/2022	14:36:28.083	0.00000E+0	0.00000E+0	2.00000E+1	0.00000E+0	0.00000E+0	0.00000E+0	2.00000E+1	1.40000E+1	2.00007E+1	1.39998E+1
211	02/09/2022	14:36:29.622	0.00000E+0	0.00000E+0	2.00000E+1	0.00000E+0	0.00000E+0	0.00000E+0	2.00000E+1	1.40000E+1	1.99997E+1	1.40011E+1
212	02/09/2022	14:36:31.015	0.00000E+0	0.00000E+0	2.00000E+1	0.00000E+0	0.00000E+0	0.00000E+0	2.00000E+1	1.40000E+1	2.00029E+1	1.39996E+1
213	02/09/2022	14:36:32.388	0.00000E+0	0.00000E+0	2.00000E+1	0.00000E+0	0.00000E+0	0.00000E+0	2.00000E+1	1.40000E+1	1.99989E+1	1.40001E+1
214	02/09/2022	14:36:33.929	0.00000E+0	0.00000E+0	2.00000E+1	0.00000E+0	0.00000E+0	0.00000E+0	2.00000E+1	1.40000E+1	1.99997E+1	1.40015E+1
215	02/09/2022	14:36:35.328	0.00000E+0	0.00000E+0	2.00000E+1	0.00000E+0	0.00000E+0	0.00000E+0	2.00000E+1	1.40000E+1	1.99987E+1	1.40018E+1
216	02/09/2022	14:36:36.785	0.00000E+0	0.00000E+0	2.00000E+1	0.00000E+0	0.00000E+0	0.00000E+0	2.00000E+1	1.40000E+1	1.99978E+1	1.39997E+1
217	02/09/2022	14:36:38.187	0.00000E+0	0.00000E+0	2.00000E+1	0.00000E+0	0.00000E+0	0.00000E+0	2.00000E+1	1.40000E+1	2.00002E+1	1.40011E+1
218	02/09/2022	14:36:39.555	0.00000E+0	0.00000E+0	2.00000E+1	0.00000E+0	0.00000E+0	0.00000E+0	2.00000E+1	1.40000E+1	1.99995E+1	1.39998E+1
219	02/09/2022	14:36:41.083	0.00000E+0	0.00000E+0	2.00000E+1	0.00000E+0	0.00000E+0	0.00000E+0	2.00000E+1	1.40000E+1	2.00019E+1	1.39993E+1
220	02/09/2022	14:36:42.461	0.00000E+0	0.00000E+0	2.00000E+1	0.00000E+0	0.00000E+0	0.00000E+0	2.00000E+1	1.40000E+1	1.99996E+1	1.40000E+1
221	02/09/2022	14:36:43.879	0.00000E+0	0.00000E+0	2.00000E+1	0.00000E+0	0.00000E+0	0.00000E+0	2.00000E+1	1.40000E+1	1.99995E+1	1.39996E+1
222	02/09/2022	14:36:45.373	0.00000E+0	0.00000E+0	2.00000E+1	0.00000E+0	0.00000E+0	0.00000E+0	2.00000E+1	1.40000E+1	2.00005E+1	1.39983E+1
223	02/09/2022	14:36:46.764	0.00000E+0	0.00000E+0	2.00000E+1	0.00000E+0	0.00000E+0	0.00000E+0	2.00000E+1	1.40000E+1	2.00006E+1	1.40010E+1
224	02/09/2022	14:36:48.183	0.00000E+0	0.00000E+0	2.00000E+1	0.00000E+0	0.00000E+0	0.00000E+0	2.00000E+1	1.40000E+1	1.99993E+1	1.40003E+1
225	02/09/2022	14:36:49.569	0.00000E+0	0.00000E+0	2.00000E+1	0.00000E+0	0.00000E+0	0.00000E+0	2.00000E+1	1.40000E+1	2.00000E+1	1.39998E+1
226	02/09/2022	14:36:50.968	0.00000E+0	0.00000E+0	2.00000E+1	0.00000E+0	0.00000E+0	0.00000E+0	2.00000E+1	1.40000E+1	2.00023E+1	1.40003E+1
227	02/09/2022	14:36:52.421	0.00000E+0	0.00000E+0	2.00000E+1	0.00000E+0	0.00000E+0	0.00000E+0	2.00000E+1	1.40000E+1	1.99981E+1	1.39990E+1
228	02/09/2022	14:36:53.787	0.00000E+0	0.00000E+0	2.00000E+1	0.00000E+0	0.00000E+0	0.00000E+0	2.00000E+1	1.40000E+1	2.00019E+1	1.39987E+1
229	02/09/2022	14:36:55.236	0.00000E+0	0.00000E+0	2.00000E+1	0.00000E+0	0.00000E+0	0.00000E+0	2.00000E+1	1.40000E+1	2.00014E+1	1.40014E+1
230	02/09/2022	14:36:56.655	0.00000E+0	0.00000E+0	2.00000E+1	0.00000E+0	0.00000E+0	0.00000E+0	2.00000E+1	1.40000E+1	1.99979E+1	1.40018E+1
231	02/09/2022	14:36:58.027	0.00000E+0	0.00000E+0	2.00000E+1	0.00000E+0	0.00000E+0	0.00000E+0	2.00000E+1	1.40000E+1	1.99991E+1	1.40012E+1
232	02/09/2022	14:36:59.504	0.00000E+0	0.00000E+0	2.00000E+1	0.00000E+0	0.00000E+0	0.00000E+0	2.00000E+1	1.40000E+1	1.99995E+1	1.40003E+1
233	02/09/2022	14:37:00.903	0.00000E+0	0.00000E+0	2.00000E+1	0.00000E+0	0.00000E+0	0.00000E+0	2.00000E+1	1.40000E+1	2.00023E+1	1.39984E+1
234	02/09/2022	14:37:02.291	0.00000E+0	0.00000E+0	2.00000E+1	0.00000E+0	0.00000E+0	0.00000E+0	2.00000E+1	1.40000E+1	2.00016E+1	1.40003E+1
235	02/09/2022	14:37:03.804	0.00000E+0	0.00000E+0	2.00000E+1	0.00000E+0	0.00000E+0	0.00000E+0	2.00000E+1	1.40000E+1	2.00013E+1	1.39972E+1
236	02/09/2022	14:37:05.182	0.00000E+0	0.00000E+0	2.00000E+1	0.00000E+0	0.00000E+0	0.00000E+0	2.00000E+1	1.40000E+1	1.99994E+1	1.40013E+1
237	02/09/2022	14:37:06.662	0.00000E+0	0.00000E+0	2.00000E+1	0.00000E+0	0.00000E+0	0.00000E+0	2.00000E+1	1.40000E+1	2.00007E+1	1.40016E+1
238	02/09/2022	14:37:08.043	0.00000E+0	0.00000E+0	2.00000E+1	0.00000E+0	0.00000E+0	0.00000E+0	2.00000E+1	1.40000E+1	2.00009E+1	1.39983E+1
239	02/09/2022	14:37:09.421	0.00000E+0	0.00000E+0	2.00000E+1	0.00000E+0	0.00000E+0	0.00000E+0	2.00000E+1	1.40000E+1	1.99983E+1	1.39986E+1
240	02/09/2022	14:37:10.962	0.00000E+0	0.00000E+0	2.00000E+1	0.00000E+0	0.00000E+0	0.00000E+0	2.00000E+1	1.40000E+1	1.99982E+1	1.39995E+1
241	02/09/2022	14:37:12.334	0.00000E+0	0.00000E+0	2.00000E+1	0.00000E+0	0.00000E+0	0.00000E+0	2.00000E+1	1.40000E+1	1.99995E+1	1.39986E+1
242	02/09/2022	14:37:13.737	0.00000E+0	0.00000E+0	2.00000E+1	0.00000E+0	0.00000E+0	0.00000E+0	2.00000E+1	1.40000E+1	1.99990E+1	1.39991E+1
243	02/09/2022	14:37:15.223	0.00000E+0	0.00000E+0	2.00000E+1	0.00000E+0	0.00000E+0	0.00000E+0	2.00000E+1	1.40000E+1	2.00032E+1	1.39991E+1
244	02/09/2022	14:37:16.598	0.00000E+0	0.00000E+0	2.00000E+1	0.00000E+0	0.00000E+0	0.00000E+0	2.00000E+1	1.40000E+1	1.99998E+1	1.40001E+1
245	02/09/2022	14:37:18.092	0.00000E+0	0.00000E+0	2.00000E+1	0.00000E+0	0.00000E+0	0.00000E+0	2.00000E+1	1.40000E+1	1.99986E+1	1.40014E+1
246	02/09/2022	14:37:19.492	0.00000E+0	0.00000E+0	2.00000E+1	0.00000E+0	0.00000E+0	0.00000E+0	2.00000E+1	1.40000E+1	2.00004E+1	1.39994E+1
247	02/09/2022	14:37:20.880	0.00000E+0	0.00000E+0	2.00000E+1	0.00000E+0	0.00000E+0	0.00000E+0	2.00000E+1	1.40000E+1	1.99994E+1	1.39996E+1
248	02/09/2022	14:37:22.360	0.00000E+0	0.00000E+0	2.00000E+1	0.00000E+0	0.00000E+0	0.00000E+0	2.00000E+1	1.40000E+1	2.00019E+1	1.40008E+1
249	02/09/2022	14:37:23.747	0.00000E+0	0.00000E+0	2.00000E+1	0.00000E+0	0.00000E+0	0.00000E+0	2.00000E+1	1.40000E+1	1.99985E+1	1.40007E+1
250	02/09/2022	14:37:25.232	0.00000E+0	0.00000E+0	2.00000E+1	0.00000E+0	0.00000E+0	0.00000E+0	2.00000E+1	1.40000E+1	2.00020E+1	1.40012E+1
251	02/09/2022	14:37:26.683	0.00000E+0	0.00000E+0	2.00000E+1	0.00000E+0	0.00000E+0	0.00000E+0	2.00000E+1	1.40000E+1	2.00006E+1	1.40015E+1
252	02/09/2022	14:37:28.057	0.00000E+0	0.00000E+0	2.00000E+1	0.00000E+0	0.00000E+0	0.00000E+0	2.00000E+1	1.40000E+1	1.99961E+1	1.39988E+1
253	02/09/2022	14:37:29.529	0.00000E+0	0.00000E+0	2.00000E+1	0.00000E+0	0.00000E+0	0.00000E+0	2.00000E+1	1.40000E+1	2.00019E+1	1.40005E+1
254	02/09/2022	14:37:30.931	0.00000E+0	0.00000E+0	2.00000E+1	0.00000E+0	0.00000E+0	0.00000E+0	2.00000E+1	1.40000E+1	1.99988E+1	1.39981E+1
255	02/09/2022	14:37:32.361	0.00000E+0	0.00000E+0	2.00000E+1	0.00000E+0	0.00000E+0	0.00000E+0	2.00000E+1	1.40000E+1	1.99998E+1	1.40010E+1
256	02/09/2022	14:37:33.844	0.00000E+0	0.00000E+0	2.00000E+1	0.00000E+0	0.00000E+0	0.00000E+0	2.00000E+1	1.40000E+1	1.99996E+1	1.40008E+1
257	02/09/2022	14:37:35.231	0.00000E+0	0.00000E+0	2.00000E+1	0.00000E+0	0.00000E+0	0.00000E+0	2.00000E+1	1.40000E+1	2.00016E+1	1.39982E+1
258	02/09/2022	14:37:36.680	0.00000E+0	0.00000E+0	2.00000E+1	0.00000E+0	0.00000E+0	0.00000E+0	2.00000E+1	1.40000E+1	1.99986E+1	1.40005E+1
259	02/09/2022	14:37:38.047	0.00000E+0	0.00000E+0	2.00000E+1	0.00000E+0	0.00000E+0	0.00000E+0	2.00000E+1	1.40000E+1	1.99985E+1	1.39993E+1
260	02/09/2022	14:37:39.436	0.00000E+0	0.00000E+0	2.00000E+1	0.00000E+0	0.00000E+0	0.00000E+0	2.00000E+1	1.40000E+1	2.00000E+1	1.40019E+1
261	02/09/2022	14:37:40.943	0.00000E+0	0.00000E+0	2.00000E+1	0.00000E+0	0.00000E+0	0.00000E+0	2.00000E+1	1.40000E+1	1.99996E+1	1.40019E+1
262	02/09/2022	14:37:42.337	0.00000E+0	0.00000E+0	2.00000E+1	0.00000E+0	0.00000E+0	0.00000E+0	2.00000E+1	1.40000E+1	2.00001E+1	1.40000E+1
263	02/09/2022	14:37:43.781	0.00000E+0	0.00000E+0	2.00000E+1	0.00000E+0	0.00000E+0	0.00000E+0	2.00000E+1	1.40000E+1	2.00001E+1	1.40001E+1
264	02/09/2022	14:37:45.111	0.00000E+0	0.00000E+0	2.00000E+1	0.00000E+0	0.00000E+0	0.00000E+0	2.00000E+1	1.40000E+1	1.99983E+1	1.39997E+1
265	02/09/2022	14:37:46.506	0.00000E+0	0.00000E+0	2.00000E+1	0.00000E+0	0.00000E+0	0.00000E+0	2.00000E+1	1.40000E+1	1.99995E+1	1.39992E+1
266	02/09/2022	14:37:48.012	0.00000E+0	0.00000E+0	2.00000E+1	0.00000E+0	0.00000E+0	0.00000E+0	2.00000E+1	1.40000E+1	1.99999E+1	1.40006E+1
267	02/09/2022	14:37:49.414	0.00000E+0	0.00000E+0	2.00000E+1	0.00000E+0	0.00000E+0	0.00000E+0	2.00000E+1	1.40000E+1	1.99983E+1	1.39997E+1
268	02/09/2022	14:37:50.826	0.00000E+0	0.00000E+0	2.00000E+1	0.00000E+0	0.00000E+0	0.00000E+0	2.00000E+1	1.40000E+1	1.99987E+1	1.40004E+1
269	02/09/2022	14:37:52.331	0.00000E+0	0.00000E+0	2.00000E+1	0.00000E+0	0.00000E+0	0.00000E+0	2.00000E+1	1.40000E+1	1.99986E+1	1.40007E+1
270	02/09/2022	14:37:53.726	0.00000E+0	0.00000E+0	2.00000E+1	0.00000E+0	0.00000E+0	0.00000E+0	2.00000E+1	1.40000E+1	2.00031E+1	1.40010E+1
271	02/09/2022	14:37:55.230	0.00000E+0	0.00000E+0	2.00000E+1	0.00000E+0	0.00000E+0	0.00000E+0	2.00000E+1	1.40000E+1	2.00007E+1	1.40004E+1
272	02/09/2022	14:37:56.628	0.00000E+0	0.00000E+0	2.00000E+1	0.00000E+0	0.00000E+0	0.00000E+0	2.00000E+1	1.40000E+1	1.99977E+1	1.40009E+1
273	02/09/2022	14:37:58.020	0.00000E+0	0.00000E+0	2.00000E+1	0.00000E+0	0.00000E+0	0.00000E+0	2.00000E+1	1.40000E+1	2.00022E+1	1.40004E+1
274	02/09/2022	14:37:59.512	0.00000E+0	0.00000E+0	2.00000E+1	0.00000E+0	0.00000E+0	0.00000E+0	2.00000E+1	1.40000E+1	2.00001E+1	1.39998E+1
275	02/09/2022	14:38:00.883	0.00000E+0	0.00000E+0	2.00000E+1	0.00000E+0	0.00000E+0	0.00000E+0	2.00000E+1	1.40000E+1	1.99998E+1	1.40009E+1
276	02/09/2022	14:38:02.340	0.00000E+0	0.00000E+0	2.00000E+1	0.00000E+0	0.00000E+0	0.00000E+0	2.00000E+1	1.40000E+1	1.99981E+1	1.39994E+1
277	02/09/2022	14:38:03.830	0.00000E+0	0.00000E+0	2.00000E+1	0.00000E+0	0.00000E+0	0.00000E+0	2.00000E+1	1.40000E+1	2.00000E+1	1.40006E+1
278	02/09/2022	14:38:05.242	0.00000E+0	0.00000E+0	2.00000E+1	0.00000E+0	0.00000E+0	0.00000E+0	2.00000E+1	1.40000E+1	2.00008E+1	1.40002E+1
279	02/09/2022	14:38:06.662	0.00000E+0	0.00000E+0	2.00000E+1	0.00000E+0	0.00000E+0	0.00000E+0	2.00000E+1	1.40000E+1	2.00005E+1	1.40012E+1
280	02/09/2022	14:38:08.057	0.00000E+0	0.00000E+0	2.00000E+1	0.00000E+0	0.00000E+0	0.00000E+0	2.00000E+1	1.40000E+1	1.99983E+1	1.39985E+1
281	02/09/2022	14:38:09.429	0.00000E+0	0.00000E+0	2.00000E+1	0.00000E+0	0.00000E+0	0.00000E+0	2.00000E+1	1.40000E+1	1.99998E+1	1.40000E+1
282	02/09/2022	14:38:10.918	0.00000E+0	0.00000E+0	2.00000E+1	0.00000E+0	0.00000E+0	0.00000E+0	2.00000E+1	1.40000E+1	2.00021E+1	1.40000E+1
283	02/09/2022	14:38:12.302	0.00000E+0	0.00000E+0	2.00000E+1	0.00000E+0	0.00000E+0	0.00000E+0	2.00000E+1	1.40000E+1	2.00006E+1	1.40021E+1
284	02/09/2022	14:38:13.686	0.00000E+0	0.00000E+0	2.00000E+1	0.00000E+0	0.00000E+0	0.00000E+0	2.00000E+1	1.40000E+1	2.00007E+1	1.39975E+1
285	02/09/2022	14:38:15.093	0.00000E+0	0.00000E+0	2.00000E+1	0.00000E+0	0.00000E+0	0.00000E+0	2.00000E+1	1.40000E+1	1.99984E+1	1.40029E+1
286	02/09/2022	14:38:16.484	0.00000E+0	0.00000E+0	2.00000E+1	0.00000E+0	0.00000E+0	0.00000E+0	2.00000E+1	1.40000E+1	1.99999E+1	1.39984E+1
287	02/09/2022	14:38:17.956	0.00000E+0	0.00000E+0	2.00000E+1	0.00000E+0	0.00000E+0	0.00000E+0	2.00000E+1	1.40000E+1	1.99993E+1	1.40012E+1
288	02/09/2022	14:38:19.339	0.00000E+0	0.00000E+0	2.00000E+1	0.00000E+0	0.00000E+0	0.00000E+0	2.00000E+1	1.40000E+1	1.99989E+1	1.39998E+1
289	02/09/2022	14:38:20.738	0.00000E+0	0.00000E+0	2.00000E+1	0.00000E+0	0.00000E+0	0.00000E+0	2.00000E+1	1.40000E+1	2.00024E+1	1.40012E+1
290	02/09/2022	14:38:22.245	0.00000E+0	0.00000E+0	2.00000E+1	0.00000E+0	0.00000E+0	0.00000E+0	2.00000E+1	1.40000E+1	1.99979E+1	1.40015E+1
291	02/09/2022	14:38:23.642	0.00000E+0	0.00000E+0	2.00000E+1	0.00000E+0	0.00000E+0	0.00000E+0	2.00000E+1	1.40000E+1	2.00007E+1	1.40015E+1
292	02/09/2022	14:38:25.066	0.00000E+0	0.00000E+0	2.00000E+1	0.00000E+0	0.00000E+0	0.00000E+0	2.00000E+1	1.40000E+1	1.99993E+1	1.39998E+1
293	02/09/2022	14:38:26.495	0.00000E+0	0.00000E+0	2.00000E+1	0.00000E+0	0.00000E+0	0.00000E+0	2.00000E+1	1.40000E+1	2.00000E+1	1.40004E+1
294	02/09/2022	14:38:27.866	0.00000E+0	0.00000E+0	2.00000E+1	0.00000E+0	0.00000E+0	0.00000E+0	2.00000E+1	1.40000E+1	1.99990E+1	1.40012E+1
295	02/09/2022	14:38:29.392	0.00000E+0	0.00000E+0	2.00000E+1	0.00000E+0	0.00000E+0	0.00000E+0	2.00000E+1	1.40000E+1	2.00006E+1	1.40042E+1
296	02/09/2022	14:38:30.781	0.00000E+0	0.00000E+0	2.00000E+1	0.00000E+0	0.00000E+0	0.00000E+0	2.00000E+1	1.40000E+1	1.99982E+1	1.39981E+1
297	02/09/2022	14:38:32.213	0.00000E+0	0.00000E+0	2.00000E+1	0.00000E+0	0.00000E+0	0.00000E+0	2.00000E+1	1.40000E+1	2.00013E+1	1.40032E+1
298	02/09/2022	14:38:33.679	0.00000E+0	0.00000E+0	2.00000E+1	0.00000E+0	0.00000E+0	0.00000E+0	2.00000E+1	1.40000E+1	2.00022E+1	1.40002E+1
299	02/09/2022	14:38:35.083	0.00000E+0	0.00000E+0	2.00000E+1	0.00000E+0	0.00000E+0	0.00000E+0	2.00000E+1	1.40000E+1	1.99993E+1	1.40024E+1
300	02/09/2022	14:38:36.616	0.00000E+0	0.00000E+0	2.00000E+1	0.00000E+0	0.00000E+0	0.00000E+0	2.00000E+1	1.40000E+1	1.99982E+1	1.40011E+1
301	02/09/2022	14:38:38.004	0.00000E+0	0.00000E+0	2.00000E+1	0.00000E+0	0.00000E+0	0.00000E+0	2.00000E+1	1.40000E+1	2.00021E+1	1.39992E+1
