#Iteration	Date	Time	RTPhase	NFringe	AccelAxis	AccelMean	AccelTemp
1	20/03/2023	18:49:43.497	3.61444223E+0	2.46500000E+3	2.00000000E+0	-9.71256262E+0	7.15585300E+6
2	20/03/2023	18:49:45.039	5.79499592E+0	-2.51500000E+3	2.00000000E+0	-9.71256262E+0	7.15585300E+6
3	20/03/2023	18:49:46.533	5.62012211E+0	2.51200000E+3	2.00000000E+0	-9.71256262E+0	7.15585300E+6
4	20/03/2023	18:49:48.013	2.74544212E+0	-2.51800000E+3	2.00000000E+0	-9.71256262E+0	7.15585300E+6
5	20/03/2023	18:49:49.447	3.45184027E+0	2.47900000E+3	2.00000000E+0	-9.71256262E+0	7.15585300E+6
6	20/03/2023	18:49:50.954	6.09258819E+0	-2.49600000E+3	2.00000000E+0	-9.71256262E+0	7.15585300E+6
7	20/03/2023	18:49:52.397	5.49932112E-1	2.50100000E+3	2.00000000E+0	-9.71256262E+0	7.15585300E+6
8	20/03/2023	18:49:53.853	3.75211701E+0	-2.52300000E+3	2.00000000E+0	-9.71256262E+0	7.15585300E+6
9	20/03/2023	18:49:55.320	6.01780663E+0	2.51300000E+3	2.00000000E+0	-9.71256262E+0	7.15585300E+6
10	20/03/2023	18:49:56.782	5.02302009E+0	-2.50600000E+3	2.00000000E+0	-9.71256262E+0	7.15585300E+6
11	20/03/2023	18:49:58.307	2.86854407E-1	2.50000000E+3	2.00000000E+0	-9.71256262E+0	7.15585300E+6
12	20/03/2023	18:49:59.783	1.65516527E+0	-2.48500000E+3	2.00000000E+0	-9.71256262E+0	7.15585300E+6
13	20/03/2023	18:50:01.255	3.48635484E+0	2.49300000E+3	2.00000000E+0	-9.71256262E+0	7.15585300E+6
14	20/03/2023	18:50:02.735	3.43611696E-1	-2.51200000E+3	2.00000000E+0	-9.71256262E+0	7.15585300E+6
15	20/03/2023	18:50:04.172	5.59864638E+0	2.50400000E+3	2.00000000E+0	-9.71256262E+0	7.15585300E+6
16	20/03/2023	18:50:05.672	1.67779149E+0	-2.49300000E+3	2.00000000E+0	-9.71256262E+0	7.15585300E+6
17	20/03/2023	18:50:07.154	6.22029209E+0	2.47100000E+3	2.00000000E+0	-9.71256262E+0	7.15585300E+6
18	20/03/2023	18:50:08.688	2.96825282E+0	-2.49200000E+3	2.00000000E+0	-9.71256262E+0	7.15585300E+6
19	20/03/2023	18:50:10.193	4.47385497E+0	2.50700000E+3	2.00000000E+0	-9.71256262E+0	7.15585300E+6
20	20/03/2023	18:50:11.714	3.30841306E+0	-2.51400000E+3	2.00000000E+0	-9.71256262E+0	7.15585300E+6
21	20/03/2023	18:50:13.189	2.12839834E+0	2.48300000E+3	2.00000000E+0	-9.71256262E+0	7.15585300E+6
22	20/03/2023	18:50:14.646	5.04066087E+0	-2.47800000E+3	2.00000000E+0	-9.71256262E+0	7.15585300E+6
23	20/03/2023	18:50:16.126	4.38104913E+0	2.50300000E+3	2.00000000E+0	-9.71256262E+0	7.15585300E+6
24	20/03/2023	18:50:17.596	5.99594740E+0	-2.49900000E+3	2.00000000E+0	-9.71256262E+0	7.15585300E+6
25	20/03/2023	18:50:19.098	6.80320479E-1	2.48000000E+3	2.00000000E+0	-9.71256262E+0	7.15585300E+6
26	20/03/2023	18:50:20.575	1.76561189E+0	-2.48000000E+3	2.00000000E+0	-9.71256262E+0	7.15585300E+6
27	20/03/2023	18:50:22.047	4.08000540E+0	2.50900000E+3	2.00000000E+0	-9.71256262E+0	7.15585300E+6
28	20/03/2023	18:50:23.552	5.33441819E-1	-2.49100000E+3	2.00000000E+0	-9.71256262E+0	7.15585300E+6
29	20/03/2023	18:50:25.026	4.90912202E+0	2.48200000E+3	2.00000000E+0	-9.71256262E+0	7.15585300E+6
30	20/03/2023	18:50:26.481	5.59902988E-2	-2.51700000E+3	2.00000000E+0	-9.71256262E+0	7.15585300E+6
31	20/03/2023	18:50:27.938	5.57985512E+0	2.50900000E+3	2.00000000E+0	-9.71256262E+0	7.15585300E+6
32	20/03/2023	18:50:29.402	3.32451986E+0	-2.47700000E+3	2.00000000E+0	-9.71256262E+0	7.15585300E+6
33	20/03/2023	18:50:30.892	4.53674818E-1	2.48500000E+3	2.00000000E+0	-9.71256262E+0	7.15585300E+6
34	20/03/2023	18:50:32.354	6.26247657E-1	-2.51900000E+3	2.00000000E+0	-9.71256262E+0	7.15585300E+6
35	20/03/2023	18:50:33.883	4.72427733E+0	2.49000000E+3	2.00000000E+0	-9.71256262E+0	7.15585300E+6
36	20/03/2023	18:50:35.399	3.78241313E+0	-2.47700000E+3	2.00000000E+0	-9.71256262E+0	7.15585300E+6
37	20/03/2023	18:50:36.906	2.53490325E-1	2.51500000E+3	2.00000000E+0	-9.71256262E+0	7.15585300E+6
38	20/03/2023	18:50:38.422	1.82160219E-1	-2.50900000E+3	2.00000000E+0	-9.71256262E+0	7.15585300E+6
39	20/03/2023	18:50:39.917	4.48689380E-1	2.50300000E+3	2.00000000E+0	-9.71256262E+0	7.15585300E+6
40	20/03/2023	18:50:41.423	7.82713697E-1	-2.45400000E+3	2.00000000E+0	-9.71256262E+0	7.15585300E+6
41	20/03/2023	18:50:42.941	5.42223859E+0	2.49700000E+3	2.00000000E+0	-9.71256262E+0	7.15585300E+6
42	20/03/2023	18:50:44.410	3.92008790E+0	-2.52600000E+3	2.00000000E+0	-9.71256262E+0	7.15585300E+6
43	20/03/2023	18:50:45.922	5.83526292E+0	2.52100000E+3	2.00000000E+0	-9.71256262E+0	7.15585300E+6
44	20/03/2023	18:50:47.392	3.28310238E+0	-2.48000000E+3	2.00000000E+0	-9.71256262E+0	7.15585300E+6
45	20/03/2023	18:50:48.895	2.14335466E+0	2.47700000E+3	2.00000000E+0	-9.71256262E+0	7.15585300E+6
46	20/03/2023	18:50:50.422	8.69767107E-1	-2.50700000E+3	2.00000000E+0	-9.71256262E+0	7.15585300E+6
47	20/03/2023	18:50:51.918	3.99486947E+0	2.47800000E+3	2.00000000E+0	-9.71256262E+0	7.15585300E+6
48	20/03/2023	18:50:53.407	5.35781140E+0	-2.49600000E+3	2.00000000E+0	-9.71256262E+0	7.15585300E+6
49	20/03/2023	18:50:54.970	1.22450016E+0	2.48700000E+3	2.00000000E+0	-9.71256262E+0	7.15585300E+6
50	20/03/2023	18:50:56.499	1.10600015E+0	-2.50600000E+3	2.00000000E+0	-9.71256262E+0	7.15585300E+6
51	20/03/2023	18:50:58.004	5.01688417E+0	2.49500000E+3	2.00000000E+0	-9.71256262E+0	7.15585300E+6
52	20/03/2023	18:50:59.483	5.27996187E+0	-2.47500000E+3	2.00000000E+0	-9.71256262E+0	7.15585300E+6
53	20/03/2023	18:51:00.995	1.11597102E+0	2.50700000E+3	2.00000000E+0	-9.71256262E+0	7.15585300E+6
54	20/03/2023	18:51:02.465	1.26169920E+0	-2.51200000E+3	2.00000000E+0	-9.71256262E+0	7.15585300E+6
55	20/03/2023	18:51:03.952	2.75694697E+0	2.49000000E+3	2.00000000E+0	-9.71256262E+0	7.15585300E+6
56	20/03/2023	18:51:05.404	2.05169930E-1	-2.49500000E+3	2.00000000E+0	-9.71256262E+0	7.15585300E+6
57	20/03/2023	18:51:06.903	2.16444689E+0	2.51500000E+3	2.00000000E+0	-9.71256262E+0	7.15585300E+6
58	20/03/2023	18:51:08.425	3.12970430E+0	-2.50200000E+3	2.00000000E+0	-9.71256262E+0	7.15585300E+6
59	20/03/2023	18:51:09.977	2.83633048E+0	2.46600000E+3	2.00000000E+0	-9.71256262E+0	7.15585300E+6
60	20/03/2023	18:51:11.437	1.81738374E+0	-2.50900000E+3	2.00000000E+0	-9.71256262E+0	7.15585300E+6
61	20/03/2023	18:51:13.001	1.36716038E+0	2.50900000E+3	2.00000000E+0	-9.71256262E+0	7.15585300E+6
62	20/03/2023	18:51:14.504	1.43005359E+0	-2.49300000E+3	2.00000000E+0	-9.71256262E+0	7.15585300E+6
63	20/03/2023	18:51:15.961	4.93865115E+0	2.47400000E+3	2.00000000E+0	-9.71256262E+0	7.15585300E+6
64	20/03/2023	18:51:17.443	2.06205367E+0	-2.50900000E+3	2.00000000E+0	-9.71256262E+0	7.15585300E+6
65	20/03/2023	18:51:18.929	2.47277703E+0	2.51100000E+3	2.00000000E+0	-9.71256262E+0	7.15585300E+6
66	20/03/2023	18:51:20.429	1.05461179E-1	-2.48600000E+3	2.00000000E+0	-9.71256262E+0	7.15585300E+6
67	20/03/2023	18:51:21.892	2.21200030E+0	2.49100000E+3	2.00000000E+0	-9.71256262E+0	7.15585300E+6
68	20/03/2023	18:51:23.372	5.88703477E+0	-2.50800000E+3	2.00000000E+0	-9.71256262E+0	7.15585300E+6
69	20/03/2023	18:51:24.887	3.52278688E+0	2.49100000E+3	2.00000000E+0	-9.71256262E+0	7.15585300E+6
70	20/03/2023	18:51:26.391	5.11314146E+0	-2.49100000E+3	2.00000000E+0	-9.71256262E+0	7.15585300E+6
71	20/03/2023	18:51:27.859	3.19413150E+0	2.48800000E+3	2.00000000E+0	-9.71256262E+0	7.15585300E+6
72	20/03/2023	18:51:29.372	4.47577244E+0	-2.51100000E+3	2.00000000E+0	-9.71256262E+0	7.15585300E+6
73	20/03/2023	18:51:30.855	6.62296205E-1	2.51500000E+3	2.00000000E+0	-9.71256262E+0	7.15585300E+6
74	20/03/2023	18:51:32.348	2.80641785E+0	-2.46300000E+3	2.00000000E+0	-9.71256262E+0	7.15585300E+6
75	20/03/2023	18:51:33.840	1.21529628E+0	2.51000000E+3	2.00000000E+0	-9.71256262E+0	7.15585300E+6
76	20/03/2023	18:51:35.343	1.10408267E+0	-2.50700000E+3	2.00000000E+0	-9.71256262E+0	7.15585300E+6
77	20/03/2023	18:51:36.858	6.07878237E+0	2.48200000E+3	2.00000000E+0	-9.71256262E+0	7.15585300E+6
78	20/03/2023	18:51:38.349	3.67158302E+0	-2.49700000E+3	2.00000000E+0	-9.71256262E+0	7.15585300E+6
79	20/03/2023	18:51:39.832	3.65547622E+0	2.51000000E+3	2.00000000E+0	-9.71256262E+0	7.15585300E+6
80	20/03/2023	18:51:41.339	9.20388473E-3	-2.49400000E+3	2.00000000E+0	-9.71256262E+0	7.15585300E+6
81	20/03/2023	18:51:42.833	3.06642759E+0	2.46800000E+3	2.00000000E+0	-9.71256262E+0	7.15585300E+6
82	20/03/2023	18:51:44.349	2.82137416E+0	-2.49900000E+3	2.00000000E+0	-9.71256262E+0	7.15585300E+6
83	20/03/2023	18:51:45.837	5.43681141E+0	2.50500000E+3	2.00000000E+0	-9.71256262E+0	7.15585300E+6
84	20/03/2023	18:51:47.315	3.22404412E+0	-2.50700000E+3	2.00000000E+0	-9.71256262E+0	7.15585300E+6
85	20/03/2023	18:51:48.812	1.53129632E+0	2.48000000E+3	2.00000000E+0	-9.71256262E+0	7.15585300E+6
86	20/03/2023	18:51:50.310	3.61137427E+0	-2.50600000E+3	2.00000000E+0	-9.71256262E+0	7.15585300E+6
87	20/03/2023	18:51:51.833	5.61398619E+0	2.51500000E+3	2.00000000E+0	-9.71256262E+0	7.15585300E+6
88	20/03/2023	18:51:53.328	1.46111670E-1	-2.47600000E+3	2.00000000E+0	-9.71256262E+0	7.15585300E+6
89	20/03/2023	18:51:54.828	5.20556380E+0	2.49400000E+3	2.00000000E+0	-9.71256262E+0	7.15585300E+6
90	20/03/2023	18:51:56.389	8.55194289E-1	-2.48500000E+3	2.00000000E+0	-9.71256262E+0	7.15585300E+6
91	20/03/2023	18:51:57.887	4.30626757E+0	2.51000000E+3	2.00000000E+0	-9.71256262E+0	7.15585300E+6
92	20/03/2023	18:51:59.365	2.49233529E+0	-2.49200000E+3	2.00000000E+0	-9.71256262E+0	7.15585300E+6
93	20/03/2023	18:52:00.833	3.52201989E+0	2.48000000E+3	2.00000000E+0	-9.71256262E+0	7.15585300E+6
94	20/03/2023	18:52:02.355	3.70111215E+0	-2.50700000E+3	2.00000000E+0	-9.71256262E+0	7.15585300E+6
95	20/03/2023	18:52:03.853	5.08092786E+0	2.52000000E+3	2.00000000E+0	-9.71256262E+0	7.15585300E+6
96	20/03/2023	18:52:05.380	5.90007361E+0	-2.50300000E+3	2.00000000E+0	-9.71256262E+0	7.15585300E+6
97	20/03/2023	18:52:06.843	1.21261181E+0	2.48000000E+3	2.00000000E+0	-9.71256262E+0	7.15585300E+6
98	20/03/2023	18:52:08.300	4.87920939E+0	-2.46700000E+3	2.00000000E+0	-9.71256262E+0	7.15585300E+6
99	20/03/2023	18:52:09.776	5.08246185E+0	2.51800000E+3	2.00000000E+0	-9.71256262E+0	7.15585300E+6
100	20/03/2023	18:52:11.289	4.20847629E+0	-2.50600000E+3	2.00000000E+0	-9.71256262E+0	7.15585300E+6
101	20/03/2023	18:52:12.784	4.47040351E+0	2.49700000E+3	2.00000000E+0	-9.71256262E+0	7.15585300E+6
102	20/03/2023	18:52:14.267	4.30435009E+0	-2.47000000E+3	2.00000000E+0	-9.71256262E+0	7.15585300E+6
103	20/03/2023	18:52:15.771	1.55890798E+0	2.49800000E+3	2.00000000E+0	-9.71256262E+0	7.15585300E+6
104	20/03/2023	18:52:17.268	3.95882092E+0	-2.50700000E+3	2.00000000E+0	-9.71256262E+0	7.15585300E+6
105	20/03/2023	18:52:18.782	1.54855361E+0	2.48500000E+3	2.00000000E+0	-9.71256262E+0	7.15585300E+6
106	20/03/2023	18:52:20.275	1.40052446E+0	-2.48700000E+3	2.00000000E+0	-9.71256262E+0	7.15585300E+6
107	20/03/2023	18:52:21.763	5.86479205E+0	2.50400000E+3	2.00000000E+0	-9.71256262E+0	7.15585300E+6
108	20/03/2023	18:52:23.273	2.44401489E+0	-2.50900000E+3	2.00000000E+0	-9.71256262E+0	7.15585300E+6
109	20/03/2023	18:52:24.772	3.65432573E+0	2.50500000E+3	2.00000000E+0	-9.71256262E+0	7.15585300E+6
110	20/03/2023	18:52:26.262	5.14535506E+0	-2.48400000E+3	2.00000000E+0	-9.71256262E+0	7.15585300E+6
111	20/03/2023	18:52:27.763	2.18668961E+0	2.49300000E+3	2.00000000E+0	-9.71256262E+0	7.15585300E+6
112	20/03/2023	18:52:29.305	1.34453416E+0	-2.50600000E+3	2.00000000E+0	-9.71256262E+0	7.15585300E+6
113	20/03/2023	18:52:30.786	3.44186939E+0	2.47300000E+3	2.00000000E+0	-9.71256262E+0	7.15585300E+6
114	20/03/2023	18:52:32.311	4.20118988E+0	-2.49200000E+3	2.00000000E+0	-9.71256262E+0	7.15585300E+6
115	20/03/2023	18:52:33.787	2.17441777E-1	2.51700000E+3	2.00000000E+0	-9.71256262E+0	7.15585300E+6
116	20/03/2023	18:52:35.264	4.69283073E+0	-2.48400000E+3	2.00000000E+0	-9.71256262E+0	7.15585300E+6
117	20/03/2023	18:52:36.805	3.72335487E+0	2.49800000E+3	2.00000000E+0	-9.71256262E+0	7.15585300E+6
118	20/03/2023	18:52:38.295	3.59986941E+0	-2.50500000E+3	2.00000000E+0	-9.71256262E+0	7.15585300E+6
119	20/03/2023	18:52:39.746	3.61751019E+0	2.48200000E+3	2.00000000E+0	-9.71256262E+0	7.15585300E+6
120	20/03/2023	18:52:41.229	3.41502473E+0	-2.47100000E+3	2.00000000E+0	-9.71256262E+0	7.15585300E+6
121	20/03/2023	18:52:42.745	4.44816079E+0	2.50500000E+3	2.00000000E+0	-9.71256262E+0	7.15585300E+6
122	20/03/2023	18:52:44.239	4.41824816E+0	-2.51200000E+3	2.00000000E+0	-9.71256262E+0	7.15585300E+6
123	20/03/2023	18:52:45.733	1.99110706E+0	2.49000000E+3	2.00000000E+0	-9.71256262E+0	7.15585300E+6
124	20/03/2023	18:52:47.196	2.59664598E+0	-2.49100000E+3	2.00000000E+0	-9.71256262E+0	7.15585300E+6
125	20/03/2023	18:52:48.676	1.85496627E+0	2.47700000E+3	2.00000000E+0	-9.71256262E+0	7.15585300E+6
126	20/03/2023	18:52:50.169	1.72035945E+0	-2.51700000E+3	2.00000000E+0	-9.71256262E+0	7.15585300E+6
127	20/03/2023	18:52:51.609	1.57616526E+0	2.50500000E+3	2.00000000E+0	-9.71256262E+0	7.15585300E+6
128	20/03/2023	18:52:53.091	4.55093750E+0	-2.51200000E+3	2.00000000E+0	-9.71256262E+0	7.15585300E+6
129	20/03/2023	18:52:54.594	1.00130596E+0	2.48000000E+3	2.00000000E+0	-9.71256262E+0	7.15585300E+6
130	20/03/2023	18:52:56.115	5.55761239E+0	-2.49100000E+3	2.00000000E+0	-9.71256262E+0	7.15585300E+6
131	20/03/2023	18:52:57.584	7.55485538E-2	2.47300000E+3	2.00000000E+0	-9.71256262E+0	7.15585300E+6
132	20/03/2023	18:52:59.069	1.88756336E+0	-2.48700000E+3	2.00000000E+0	-9.71256262E+0	7.15585300E+6
133	20/03/2023	18:53:00.554	4.82091812E+0	2.50100000E+3	2.00000000E+0	-9.71256262E+0	7.15585300E+6
134	20/03/2023	18:53:02.022	4.96472882E+0	-2.50600000E+3	2.00000000E+0	-9.71256262E+0	7.15585300E+6
135	20/03/2023	18:53:03.562	4.96741329E+0	2.50200000E+3	2.00000000E+0	-9.71256262E+0	7.15585300E+6
136	20/03/2023	18:53:05.078	2.85473825E+0	-2.48800000E+3	2.00000000E+0	-9.71256262E+0	7.15585300E+6
137	20/03/2023	18:53:06.595	1.43158757E+0	2.49800000E+3	2.00000000E+0	-9.71256262E+0	7.15585300E+6
138	20/03/2023	18:53:08.075	2.58667510E+0	-2.49500000E+3	2.00000000E+0	-9.71256262E+0	7.15585300E+6
139	20/03/2023	18:53:09.558	5.83564641E+0	2.49900000E+3	2.00000000E+0	-9.71256262E+0	7.15585300E+6
140	20/03/2023	18:53:11.072	4.27788892E+0	-2.50600000E+3	2.00000000E+0	-9.71256262E+0	7.15585300E+6
141	20/03/2023	18:53:12.587	5.40421432E+0	2.49000000E+3	2.00000000E+0	-9.71256262E+0	7.15585300E+6
142	20/03/2023	18:53:14.082	4.80519482E-1	-2.48900000E+3	2.00000000E+0	-9.71256262E+0	7.15585300E+6
143	20/03/2023	18:53:15.562	9.82131199E-1	2.49500000E+3	2.00000000E+0	-9.71256262E+0	7.15585300E+6
144	20/03/2023	18:53:17.078	2.04211192E+0	-2.51400000E+3	2.00000000E+0	-9.71256262E+0	7.15585300E+6
145	20/03/2023	18:53:18.618	4.26293261E+0	2.50100000E+3	2.00000000E+0	-9.71256262E+0	7.15585300E+6
146	20/03/2023	18:53:20.120	9.14636045E-1	-2.51200000E+3	2.00000000E+0	-9.71256262E+0	7.15585300E+6
147	20/03/2023	18:53:21.627	5.88473380E+0	2.47000000E+3	2.00000000E+0	-9.71256262E+0	7.15585300E+6
148	20/03/2023	18:53:23.073	6.11751538E+0	-2.50800000E+3	2.00000000E+0	-9.71256262E+0	7.15585300E+6
149	20/03/2023	18:53:24.552	4.36609282E+0	2.48200000E+3	2.00000000E+0	-9.71256262E+0	7.15585300E+6
150	20/03/2023	18:53:26.031	4.98160261E+0	-2.50100000E+3	2.00000000E+0	-9.71256262E+0	7.15585300E+6
151	20/03/2023	18:53:27.552	1.57233031E-1	2.49500000E+3	2.00000000E+0	-9.71256262E+0	7.15585300E+6
152	20/03/2023	18:53:29.067	3.51013154E+0	-2.46900000E+3	2.00000000E+0	-9.71256262E+0	7.15585300E+6
153	20/03/2023	18:53:30.530	1.89676724E+0	2.51000000E+3	2.00000000E+0	-9.71256262E+0	7.15585300E+6
154	20/03/2023	18:53:32.022	4.83012201E+0	-2.50500000E+3	2.00000000E+0	-9.71256262E+0	7.15585300E+6
155	20/03/2023	18:53:33.516	4.66291810E+0	2.47700000E+3	2.00000000E+0	-9.71256262E+0	7.15585300E+6
156	20/03/2023	18:53:35.021	1.84767986E+0	-2.48400000E+3	2.00000000E+0	-9.71256262E+0	7.15585300E+6
157	20/03/2023	18:53:36.502	5.12272884E+0	2.49300000E+3	2.00000000E+0	-9.71256262E+0	7.15585300E+6
158	20/03/2023	18:53:38.014	1.87644200E+0	-2.51200000E+3	2.00000000E+0	-9.71256262E+0	7.15585300E+6
159	20/03/2023	18:53:39.512	1.55238856E+0	2.49400000E+3	2.00000000E+0	-9.71256262E+0	7.15585300E+6
160	20/03/2023	18:53:41.012	3.80887430E+0	-2.47900000E+3	2.00000000E+0	-9.71256262E+0	7.15585300E+6
161	20/03/2023	18:53:42.479	4.89416570E+0	2.48700000E+3	2.00000000E+0	-9.71256262E+0	7.15585300E+6
162	20/03/2023	18:53:43.979	3.37859269E-1	-2.50900000E+3	2.00000000E+0	-9.71256262E+0	7.15585300E+6
163	20/03/2023	18:53:45.416	2.74889357E+0	2.50300000E+3	2.00000000E+0	-9.71256262E+0	7.15585300E+6
164	20/03/2023	18:53:46.884	5.17565118E+0	-2.47900000E+3	2.00000000E+0	-9.71256262E+0	7.15585300E+6
165	20/03/2023	18:53:48.371	4.88304434E+0	2.49800000E+3	2.00000000E+0	-9.71256262E+0	7.15585300E+6
166	20/03/2023	18:53:49.840	2.06588863E+0	-2.49600000E+3	2.00000000E+0	-9.71256262E+0	7.15585300E+6
167	20/03/2023	18:53:51.341	5.67151047E+0	2.49300000E+3	2.00000000E+0	-9.71256262E+0	7.15585300E+6
168	20/03/2023	18:53:52.830	6.19037947E+0	-2.49000000E+3	2.00000000E+0	-9.71256262E+0	7.15585300E+6
169	20/03/2023	18:53:54.317	5.47477743E+0	2.49500000E+3	2.00000000E+0	-9.71256262E+0	7.15585300E+6
170	20/03/2023	18:53:55.785	1.14204870E+0	-2.51500000E+3	2.00000000E+0	-9.71256262E+0	7.15585300E+6
171	20/03/2023	18:53:57.294	1.08452442E+0	2.46600000E+3	2.00000000E+0	-9.71256262E+0	7.15585300E+6
172	20/03/2023	18:53:58.811	2.69290327E+0	-2.49600000E+3	2.00000000E+0	-9.71256262E+0	7.15585300E+6
173	20/03/2023	18:54:00.293	5.36663179E+0	2.49400000E+3	2.00000000E+0	-9.71256262E+0	7.15585300E+6
174	20/03/2023	18:54:01.799	4.66368509E+0	-2.46700000E+3	2.00000000E+0	-9.71256262E+0	7.15585300E+6
175	20/03/2023	18:54:03.274	3.94654907E+0	2.47700000E+3	2.00000000E+0	-9.71256262E+0	7.15585300E+6
176	20/03/2023	18:54:04.777	5.88818525E+0	-2.49100000E+3	2.00000000E+0	-9.71256262E+0	7.15585300E+6
177	20/03/2023	18:54:06.289	4.39945690E+0	2.51800000E+3	2.00000000E+0	-9.71256262E+0	7.15585300E+6
178	20/03/2023	18:54:07.787	1.74605363E+0	-2.49900000E+3	2.00000000E+0	-9.71256262E+0	7.15585300E+6
179	20/03/2023	18:54:09.299	1.37176232E+0	2.47900000E+3	2.00000000E+0	-9.71256262E+0	7.15585300E+6
180	20/03/2023	18:54:10.808	5.68569979E+0	-2.50900000E+3	2.00000000E+0	-9.71256262E+0	7.15585300E+6
181	20/03/2023	18:54:12.315	2.48159742E+0	2.49600000E+3	2.00000000E+0	-9.71256262E+0	7.15585300E+6
182	20/03/2023	18:54:13.799	2.99433050E+0	-2.47900000E+3	2.00000000E+0	-9.71256262E+0	7.15585300E+6
183	20/03/2023	18:54:15.302	3.64780631E+0	2.50900000E+3	2.00000000E+0	-9.71256262E+0	7.15585300E+6
184	20/03/2023	18:54:16.774	2.00299541E+0	-2.50600000E+3	2.00000000E+0	-9.71256262E+0	7.15585300E+6
185	20/03/2023	18:54:18.258	2.29100031E+0	2.47300000E+3	2.00000000E+0	-9.71256262E+0	7.15585300E+6
186	20/03/2023	18:54:19.723	2.69827221E+0	-2.50700000E+3	2.00000000E+0	-9.71256262E+0	7.15585300E+6
187	20/03/2023	18:54:21.248	2.77151979E+0	2.50300000E+3	2.00000000E+0	-9.71256262E+0	7.15585300E+6
188	20/03/2023	18:54:22.740	4.15171900E+0	-2.48100000E+3	2.00000000E+0	-9.71256262E+0	7.15585300E+6
189	20/03/2023	18:54:24.224	2.45130130E+0	2.49500000E+3	2.00000000E+0	-9.71256262E+0	7.15585300E+6
190	20/03/2023	18:54:25.699	1.63368954E-1	-2.49800000E+3	2.00000000E+0	-9.71256262E+0	7.15585300E+6
191	20/03/2023	18:54:27.184	9.78296247E-1	2.51700000E+3	2.00000000E+0	-9.71256262E+0	7.15585300E+6
192	20/03/2023	18:54:28.663	3.64435486E+0	-2.48900000E+3	2.00000000E+0	-9.71256262E+0	7.15585300E+6
193	20/03/2023	18:54:30.163	4.10224812E+0	2.48700000E+3	2.00000000E+0	-9.71256262E+0	7.15585300E+6
194	20/03/2023	18:54:31.667	1.90482064E+0	-2.48400000E+3	2.00000000E+0	-9.71256262E+0	7.15585300E+6
195	20/03/2023	18:54:33.171	5.17526768E+0	2.50500000E+3	2.00000000E+0	-9.71256262E+0	7.15585300E+6
196	20/03/2023	18:54:34.673	4.26715106E+0	-2.51100000E+3	2.00000000E+0	-9.71256262E+0	7.15585300E+6
197	20/03/2023	18:54:36.160	4.95245697E+0	2.47100000E+3	2.00000000E+0	-9.71256262E+0	7.15585300E+6
198	20/03/2023	18:54:37.681	3.20832082E+0	-2.50200000E+3	2.00000000E+0	-9.71256262E+0	7.15585300E+6
199	20/03/2023	18:54:39.147	1.79092257E+0	2.49400000E+3	2.00000000E+0	-9.71256262E+0	7.15585300E+6
200	20/03/2023	18:54:40.673	2.36271391E+0	-2.50100000E+3	2.00000000E+0	-9.71256262E+0	7.15585300E+6
201	20/03/2023	18:54:42.161	1.26630114E+0	2.48400000E+3	2.00000000E+0	-9.71256262E+0	7.15585300E+6
202	20/03/2023	18:54:43.646	5.49203472E+0	-2.50200000E+3	2.00000000E+0	-9.71256262E+0	7.15585300E+6
203	20/03/2023	18:54:45.145	1.25978172E+0	2.51400000E+3	2.00000000E+0	-9.71256262E+0	7.15585300E+6
204	20/03/2023	18:54:46.647	5.91541341E+0	-2.47900000E+3	2.00000000E+0	-9.71256262E+0	7.15585300E+6
205	20/03/2023	18:54:48.116	1.03582053E+0	2.49300000E+3	2.00000000E+0	-9.71256262E+0	7.15585300E+6
206	20/03/2023	18:54:49.671	7.61237966E-1	-2.52000000E+3	2.00000000E+0	-9.71256262E+0	7.15585300E+6
207	20/03/2023	18:54:51.192	4.29591320E+0	2.50200000E+3	2.00000000E+0	-9.71256262E+0	7.15585300E+6
208	20/03/2023	18:54:52.659	4.41518020E+0	-2.46400000E+3	2.00000000E+0	-9.71256262E+0	7.15585300E+6
209	20/03/2023	18:54:54.148	2.80603436E+0	2.50800000E+3	2.00000000E+0	-9.71256262E+0	7.15585300E+6
210	20/03/2023	18:54:55.651	4.53406371E+0	-2.51300000E+3	2.00000000E+0	-9.71256262E+0	7.15585300E+6
211	20/03/2023	18:54:57.128	5.43451044E+0	2.50200000E+3	2.00000000E+0	-9.71256262E+0	7.15585300E+6
212	20/03/2023	18:54:58.649	6.92208831E-1	-2.49900000E+3	2.00000000E+0	-9.71256262E+0	7.15585300E+6
213	20/03/2023	18:55:00.145	5.37430169E+0	2.48700000E+3	2.00000000E+0	-9.71256262E+0	7.15585300E+6
214	20/03/2023	18:55:01.639	1.08529141E+0	-2.52000000E+3	2.00000000E+0	-9.71256262E+0	7.15585300E+6
215	20/03/2023	18:55:03.133	4.80941327E+0	2.49400000E+3	2.00000000E+0	-9.71256262E+0	7.15585300E+6
216	20/03/2023	18:55:04.617	4.24452484E+0	-2.48500000E+3	2.00000000E+0	-9.71256262E+0	7.15585300E+6
217	20/03/2023	18:55:06.130	4.85504919E-1	2.51100000E+3	2.00000000E+0	-9.71256262E+0	7.15585300E+6
218	20/03/2023	18:55:07.599	5.46979199E+0	-2.51400000E+3	2.00000000E+0	-9.71256262E+0	7.15585300E+6
219	20/03/2023	18:55:09.125	3.36823831E+0	2.49000000E+3	2.00000000E+0	-9.71256262E+0	7.15585300E+6
220	20/03/2023	18:55:10.592	5.18984050E+0	-2.47600000E+3	2.00000000E+0	-9.71256262E+0	7.15585300E+6
221	20/03/2023	18:55:12.086	4.86923852E+0	2.51000000E+3	2.00000000E+0	-9.71256262E+0	7.15585300E+6
222	20/03/2023	18:55:13.565	3.12932081E-1	-2.49400000E+3	2.00000000E+0	-9.71256262E+0	7.15585300E+6
223	20/03/2023	18:55:15.050	4.23110251E+0	2.46900000E+3	2.00000000E+0	-9.71256262E+0	7.15585300E+6
224	20/03/2023	18:55:16.590	6.10179208E+0	-2.48400000E+3	2.00000000E+0	-9.71256262E+0	7.15585300E+6
225	20/03/2023	18:55:18.099	3.98835005E-2	2.50900000E+3	2.00000000E+0	-9.71256262E+0	7.15585300E+6
226	20/03/2023	18:55:19.581	2.18592262E-2	-2.51900000E+3	2.00000000E+0	-9.71256262E+0	7.15585300E+6
227	20/03/2023	18:55:21.078	4.90183561E+0	2.49900000E+3	2.00000000E+0	-9.71256262E+0	7.15585300E+6
228	20/03/2023	18:55:22.565	2.03866047E+0	-2.51500000E+3	2.00000000E+0	-9.71256262E+0	7.15585300E+6
229	20/03/2023	18:55:24.037	4.16859279E+0	2.49100000E+3	2.00000000E+0	-9.71256262E+0	7.15585300E+6
230	20/03/2023	18:55:25.556	2.87889844E+0	-2.52000000E+3	2.00000000E+0	-9.71256262E+0	7.15585300E+6
231	20/03/2023	18:55:27.042	3.78087915E+0	2.49600000E+3	2.00000000E+0	-9.71256262E+0	7.15585300E+6
232	20/03/2023	18:55:28.522	1.18691763E+0	-2.49800000E+3	2.00000000E+0	-9.71256262E+0	7.15585300E+6
233	20/03/2023	18:55:29.978	5.33480169E+0	2.52500000E+3	2.00000000E+0	-9.71256262E+0	7.15585300E+6
234	20/03/2023	18:55:31.489	3.49901018E+0	-2.52100000E+3	2.00000000E+0	-9.71256262E+0	7.15585300E+6
235	20/03/2023	18:55:32.984	4.82436958E-1	2.51000000E+3	2.00000000E+0	-9.71256262E+0	7.15585300E+6
236	20/03/2023	18:55:34.446	1.99800998E-1	-2.49400000E+3	2.00000000E+0	-9.71256262E+0	7.15585300E+6
237	20/03/2023	18:55:35.951	2.85857320E+0	2.51900000E+3	2.00000000E+0	-9.71256262E+0	7.15585300E+6
238	20/03/2023	18:55:37.477	3.72258788E+0	-2.52200000E+3	2.00000000E+0	-9.71256262E+0	7.15585300E+6
239	20/03/2023	18:55:38.925	5.96219983E+0	2.51400000E+3	2.00000000E+0	-9.71256262E+0	7.15585300E+6
240	20/03/2023	18:55:40.396	4.91295697E+0	-2.51000000E+3	2.00000000E+0	-9.71256262E+0	7.15585300E+6
241	20/03/2023	18:55:41.908	1.16620889E+0	2.49200000E+3	2.00000000E+0	-9.71256262E+0	7.15585300E+6
242	20/03/2023	18:55:43.452	1.52400991E+0	-2.51000000E+3	2.00000000E+0	-9.71256262E+0	7.15585300E+6
