#Iteration	Date	Time	STSX	STSY	RotationRateX	RotationRateY	FrCntX	FrCntY	TiptiltCmd1	TiptiltCmd2	TiptiltMonitor1	TiptiltMonitor2
1	20/03/2023	18:49:43.497	0.00000E+0	0.00000E+0	3.40305E+1	3.78981E-1	0.00000E+0	0.00000E+0	2.20358E+1	1.29297E+1	2.20346E+1	1.29316E+1
2	20/03/2023	18:49:45.039	0.00000E+0	0.00000E+0	-2.08525E+2	-4.26118E+0	0.00000E+0	0.00000E+0	1.80981E+1	1.67559E+1	1.80932E+1	1.67559E+1
3	20/03/2023	18:49:46.533	0.00000E+0	0.00000E+0	2.53018E+2	3.44060E+0	0.00000E+0	0.00000E+0	2.48390E+1	1.01447E+1	2.48391E+1	1.01453E+1
4	20/03/2023	18:49:48.013	0.00000E+0	0.00000E+0	-2.63695E+2	-3.95601E+0	0.00000E+0	0.00000E+0	1.75190E+1	1.74078E+1	1.75189E+1	1.74073E+1
5	20/03/2023	18:49:49.447	0.00000E+0	0.00000E+0	1.71481E+2	2.42681E+0	0.00000E+0	0.00000E+0	2.34737E+1	1.14797E+1	2.34733E+1	1.14789E+1
6	20/03/2023	18:49:50.954	0.00000E+0	0.00000E+0	1.25961E+2	-8.35695E-1	0.00000E+0	0.00000E+0	2.32612E+1	1.17637E+1	2.32621E+1	1.17638E+1
7	20/03/2023	18:49:52.397	0.00000E+0	0.00000E+0	-1.86952E+2	-2.71854E+0	0.00000E+0	0.00000E+0	1.84417E+1	1.64958E+1	1.84398E+1	1.64966E+1
8	20/03/2023	18:49:53.853	0.00000E+0	0.00000E+0	2.05532E+2	-1.83074E+0	0.00000E+0	0.00000E+0	2.42722E+1	1.07139E+1	2.42716E+1	1.07125E+1
9	20/03/2023	18:49:55.320	0.00000E+0	0.00000E+0	-2.39264E+2	-2.30292E+0	0.00000E+0	0.00000E+0	1.78280E+1	1.70909E+1	1.78249E+1	1.70912E+1
10	20/03/2023	18:49:56.782	0.00000E+0	0.00000E+0	2.37247E+2	2.89473E+0	0.00000E+0	0.00000E+0	2.45440E+1	1.04099E+1	2.45459E+1	1.04112E+1
11	20/03/2023	18:49:58.307	0.00000E+0	0.00000E+0	-2.16304E+2	-8.17904E-2	0.00000E+0	0.00000E+0	1.82672E+1	1.67584E+1	1.82659E+1	1.67591E+1
12	20/03/2023	18:49:59.783	0.00000E+0	0.00000E+0	1.30153E+2	2.21961E+0	0.00000E+0	0.00000E+0	2.27708E+1	1.22032E+1	2.27690E+1	1.22062E+1
13	20/03/2023	18:50:01.255	0.00000E+0	0.00000E+0	1.31016E+2	7.68058E-1	0.00000E+0	0.00000E+0	2.33497E+1	1.16304E+1	2.33502E+1	1.16296E+1
14	20/03/2023	18:50:02.735	0.00000E+0	0.00000E+0	-2.49448E+2	-2.58022E+0	0.00000E+0	0.00000E+0	1.77175E+1	1.72015E+1	1.77178E+1	1.72028E+1
15	20/03/2023	18:50:04.172	0.00000E+0	0.00000E+0	2.59227E+2	1.56272E+0	0.00000E+0	0.00000E+0	2.48815E+1	1.01125E+1	2.48807E+1	1.01126E+1
16	20/03/2023	18:50:05.672	0.00000E+0	0.00000E+0	-2.28171E+2	-3.24619E+0	0.00000E+0	0.00000E+0	1.81190E+1	1.67099E+1	1.81204E+1	1.67107E+1
17	20/03/2023	18:50:07.154	0.00000E+0	0.00000E+0	6.79657E+0	4.45890E+0	0.00000E+0	0.00000E+0	2.10451E+1	1.39135E+1	2.10440E+1	1.39148E+1
18	20/03/2023	18:50:08.688	0.00000E+0	0.00000E+0	2.31973E+2	4.09704E+0	0.00000E+0	0.00000E+0	2.46161E+1	1.03208E+1	2.46165E+1	1.03198E+1
19	20/03/2023	18:50:10.193	0.00000E+0	0.00000E+0	-2.58791E+2	-6.89829E-1	0.00000E+0	0.00000E+0	1.76314E+1	1.72578E+1	1.76307E+1	1.72581E+1
20	20/03/2023	18:50:11.714	0.00000E+0	0.00000E+0	2.27048E+2	4.64355E+0	0.00000E+0	0.00000E+0	2.43955E+1	1.05942E+1	2.43968E+1	1.05959E+1
21	20/03/2023	18:50:13.189	0.00000E+0	0.00000E+0	-2.06913E+2	-2.28639E+0	0.00000E+0	0.00000E+0	1.84230E+1	1.64637E+1	1.84233E+1	1.64613E+1
22	20/03/2023	18:50:14.646	0.00000E+0	0.00000E+0	-1.32490E+2	-1.43512E+0	0.00000E+0	0.00000E+0	1.91336E+1	1.58354E+1	1.91344E+1	1.58347E+1
23	20/03/2023	18:50:16.126	0.00000E+0	0.00000E+0	2.45708E+2	-7.11018E-1	0.00000E+0	0.00000E+0	2.47430E+1	1.02799E+1	2.47411E+1	1.02766E+1
24	20/03/2023	18:50:17.596	0.00000E+0	0.00000E+0	-2.00684E+2	3.26687E-1	0.00000E+0	0.00000E+0	1.84357E+1	1.64503E+1	1.84358E+1	1.64503E+1
25	20/03/2023	18:50:19.098	0.00000E+0	0.00000E+0	6.08216E+1	4.39640E+0	0.00000E+0	0.00000E+0	2.18048E+1	1.31548E+1	2.18030E+1	1.31539E+1
26	20/03/2023	18:50:20.575	0.00000E+0	0.00000E+0	1.94255E+2	1.07313E+0	0.00000E+0	0.00000E+0	2.41782E+1	1.08275E+1	2.41773E+1	1.08275E+1
27	20/03/2023	18:50:22.047	0.00000E+0	0.00000E+0	-2.41387E+2	-1.46221E+0	0.00000E+0	0.00000E+0	1.78228E+1	1.70608E+1	1.78213E+1	1.70604E+1
28	20/03/2023	18:50:23.552	0.00000E+0	0.00000E+0	1.80599E+2	3.71871E+0	0.00000E+0	0.00000E+0	2.36698E+1	1.13052E+1	2.36696E+1	1.13040E+1
29	20/03/2023	18:50:25.026	0.00000E+0	0.00000E+0	1.23164E+2	5.79943E-1	0.00000E+0	0.00000E+0	2.32883E+1	1.17330E+1	2.32895E+1	1.17332E+1
30	20/03/2023	18:50:26.481	0.00000E+0	0.00000E+0	-2.09789E+2	-5.47030E+0	0.00000E+0	0.00000E+0	1.82043E+1	1.66899E+1	1.82031E+1	1.66873E+1
31	20/03/2023	18:50:27.938	0.00000E+0	0.00000E+0	2.09236E+2	8.27965E-1	0.00000E+0	0.00000E+0	2.42745E+1	1.07835E+1	2.42758E+1	1.07811E+1
32	20/03/2023	18:50:29.402	0.00000E+0	0.00000E+0	-1.19091E+2	6.37657E-3	0.00000E+0	0.00000E+0	1.97742E+1	1.51716E+1	1.97739E+1	1.51713E+1
33	20/03/2023	18:50:30.892	0.00000E+0	0.00000E+0	-1.89772E+2	-1.55858E-1	0.00000E+0	0.00000E+0	1.83495E+1	1.66676E+1	1.83493E+1	1.66664E+1
34	20/03/2023	18:50:32.354	0.00000E+0	0.00000E+0	2.49538E+2	2.17409E+0	0.00000E+0	0.00000E+0	2.47473E+1	1.02155E+1	2.47480E+1	1.02157E+1
35	20/03/2023	18:50:33.883	0.00000E+0	0.00000E+0	-1.67016E+2	1.04771E+0	0.00000E+0	0.00000E+0	1.89567E+1	1.59465E+1	1.89582E+1	1.59464E+1
36	20/03/2023	18:50:35.399	0.00000E+0	0.00000E+0	-7.63513E+1	-8.49026E-1	0.00000E+0	0.00000E+0	1.97753E+1	1.51255E+1	1.97752E+1	1.51250E+1
37	20/03/2023	18:50:36.906	0.00000E+0	0.00000E+0	2.30065E+2	8.17117E-1	0.00000E+0	0.00000E+0	2.45570E+1	1.04065E+1	2.45574E+1	1.04083E+1
38	20/03/2023	18:50:38.422	0.00000E+0	0.00000E+0	-2.34464E+2	1.32130E+0	0.00000E+0	0.00000E+0	1.78941E+1	1.70765E+1	1.78948E+1	1.70770E+1
39	20/03/2023	18:50:39.917	0.00000E+0	0.00000E+0	2.41627E+2	2.62247E-1	0.00000E+0	0.00000E+0	2.46482E+1	1.03135E+1	2.46481E+1	1.03127E+1
40	20/03/2023	18:50:41.423	0.00000E+0	0.00000E+0	-4.92775E+1	-2.26571E-1	0.00000E+0	0.00000E+0	2.08992E+1	1.40189E+1	2.08971E+1	1.40187E+1
41	20/03/2023	18:50:42.941	0.00000E+0	0.00000E+0	-2.03622E+2	1.42223E+0	0.00000E+0	0.00000E+0	1.82126E+1	1.66689E+1	1.82133E+1	1.66702E+1
42	20/03/2023	18:50:44.410	0.00000E+0	0.00000E+0	2.50982E+2	1.69859E+0	0.00000E+0	0.00000E+0	2.48166E+1	1.02338E+1	2.48148E+1	1.02373E+1
43	20/03/2023	18:50:45.922	0.00000E+0	0.00000E+0	-2.25552E+2	-1.61027E-1	0.00000E+0	0.00000E+0	1.80839E+1	1.68055E+1	1.80799E+1	1.68021E+1
44	20/03/2023	18:50:47.392	0.00000E+0	0.00000E+0	7.50947E+1	2.57025E+0	0.00000E+0	0.00000E+0	2.20981E+1	1.28681E+1	2.20990E+1	1.28679E+1
45	20/03/2023	18:50:48.895	0.00000E+0	0.00000E+0	1.71772E+2	1.13043E+0	0.00000E+0	0.00000E+0	2.38970E+1	1.10837E+1	2.38956E+1	1.10819E+1
46	20/03/2023	18:50:50.422	0.00000E+0	0.00000E+0	-2.33165E+2	-4.74335E+0	0.00000E+0	0.00000E+0	1.79420E+1	1.70182E+1	1.79399E+1	1.70161E+1
47	20/03/2023	18:50:51.918	0.00000E+0	0.00000E+0	1.77758E+2	9.86811E-1	0.00000E+0	0.00000E+0	2.37099E+1	1.12898E+1	2.37123E+1	1.12905E+1
48	20/03/2023	18:50:53.407	0.00000E+0	0.00000E+0	-4.08919E+0	-1.65824E+0	0.00000E+0	0.00000E+0	2.15510E+1	1.33639E+1	2.15468E+1	1.33632E+1
49	20/03/2023	18:50:54.970	0.00000E+0	0.00000E+0	-1.98472E+2	7.59687E-1	0.00000E+0	0.00000E+0	1.82538E+1	1.66280E+1	1.82520E+1	1.66295E+1
50	20/03/2023	18:50:56.499	0.00000E+0	0.00000E+0	2.46721E+2	3.14897E+0	0.00000E+0	0.00000E+0	2.47292E+1	1.02619E+1	2.47276E+1	1.02631E+1
51	20/03/2023	18:50:58.004	0.00000E+0	0.00000E+0	-2.14577E+2	1.83665E-1	0.00000E+0	0.00000E+0	1.83509E+1	1.65569E+1	1.83478E+1	1.65576E+1
52	20/03/2023	18:50:59.483	0.00000E+0	0.00000E+0	3.25278E+0	1.67119E+0	0.00000E+0	0.00000E+0	2.08474E+1	1.40653E+1	2.08485E+1	1.40638E+1
53	20/03/2023	18:51:00.995	0.00000E+0	0.00000E+0	2.18909E+2	2.12301E+0	0.00000E+0	0.00000E+0	2.44259E+1	1.05267E+1	2.44265E+1	1.05254E+1
54	20/03/2023	18:51:02.465	0.00000E+0	0.00000E+0	-2.29662E+2	-3.24999E+0	0.00000E+0	0.00000E+0	1.80195E+1	1.68954E+1	1.80196E+1	1.68924E+1
55	20/03/2023	18:51:03.952	0.00000E+0	0.00000E+0	1.43352E+2	6.85965E-1	0.00000E+0	0.00000E+0	2.31667E+1	1.18429E+1	2.31661E+1	1.18444E+1
56	20/03/2023	18:51:05.404	0.00000E+0	0.00000E+0	1.19931E+2	-5.79543E-1	0.00000E+0	0.00000E+0	2.31218E+1	1.18570E+1	2.31241E+1	1.18538E+1
57	20/03/2023	18:51:06.903	0.00000E+0	0.00000E+0	-2.23483E+2	-3.95293E+0	0.00000E+0	0.00000E+0	1.81069E+1	1.68702E+1	1.81059E+1	1.68682E+1
58	20/03/2023	18:51:08.425	0.00000E+0	0.00000E+0	2.45225E+2	6.54862E-1	0.00000E+0	0.00000E+0	2.46865E+1	1.03989E+1	2.46877E+1	1.04018E+1
59	20/03/2023	18:51:09.977	0.00000E+0	0.00000E+0	-1.05915E+2	-3.68820E-2	0.00000E+0	0.00000E+0	2.00002E+1	1.49272E+1	2.00011E+1	1.49307E+1
60	20/03/2023	18:51:11.437	0.00000E+0	0.00000E+0	-2.02100E+2	-4.93543E+0	0.00000E+0	0.00000E+0	1.82595E+1	1.66655E+1	1.82583E+1	1.66636E+1
61	20/03/2023	18:51:13.001	0.00000E+0	0.00000E+0	2.37989E+2	-5.48978E-1	0.00000E+0	0.00000E+0	2.46396E+1	1.03374E+1	2.46415E+1	1.03391E+1
62	20/03/2023	18:51:14.504	0.00000E+0	0.00000E+0	-2.06428E+2	-2.47744E+0	0.00000E+0	0.00000E+0	1.84340E+1	1.65277E+1	1.84359E+1	1.65275E+1
63	20/03/2023	18:51:15.961	0.00000E+0	0.00000E+0	-2.58294E+1	-1.36232E+0	0.00000E+0	0.00000E+0	2.05349E+1	1.43907E+1	2.05333E+1	1.43918E+1
64	20/03/2023	18:51:17.443	0.00000E+0	0.00000E+0	2.14801E+2	1.29062E+0	0.00000E+0	0.00000E+0	2.43770E+1	1.05929E+1	2.43771E+1	1.05957E+1
65	20/03/2023	18:51:18.929	0.00000E+0	0.00000E+0	-2.07782E+2	1.22883E+0	0.00000E+0	0.00000E+0	1.83352E+1	1.66025E+1	1.83336E+1	1.66027E+1
66	20/03/2023	18:51:20.429	0.00000E+0	0.00000E+0	1.08522E+2	2.63809E+0	0.00000E+0	0.00000E+0	2.25294E+1	1.24535E+1	2.25309E+1	1.24531E+1
67	20/03/2023	18:51:21.892	0.00000E+0	0.00000E+0	1.48728E+2	7.16276E-1	0.00000E+0	0.00000E+0	2.35491E+1	1.13976E+1	2.35480E+1	1.13991E+1
68	20/03/2023	18:51:23.372	0.00000E+0	0.00000E+0	-2.51580E+2	-2.97147E+0	0.00000E+0	0.00000E+0	1.77109E+1	1.72093E+1	1.77093E+1	1.72092E+1
69	20/03/2023	18:51:24.887	0.00000E+0	0.00000E+0	2.46920E+2	1.16162E+0	0.00000E+0	0.00000E+0	2.46923E+1	1.02958E+1	2.46936E+1	1.02949E+1
70	20/03/2023	18:51:26.391	0.00000E+0	0.00000E+0	-1.04016E+2	-1.12155E-1	0.00000E+0	0.00000E+0	1.99390E+1	1.49350E+1	1.99398E+1	1.49350E+1
71	20/03/2023	18:51:27.859	0.00000E+0	0.00000E+0	-1.69833E+2	-7.14598E-1	0.00000E+0	0.00000E+0	1.88152E+1	1.61184E+1	1.88178E+1	1.61173E+1
72	20/03/2023	18:51:29.372	0.00000E+0	0.00000E+0	2.14657E+2	1.37199E+0	0.00000E+0	0.00000E+0	2.43139E+1	1.07369E+1	2.43161E+1	1.07399E+1
73	20/03/2023	18:51:30.855	0.00000E+0	0.00000E+0	-1.94955E+2	-4.34641E+0	0.00000E+0	0.00000E+0	1.86107E+1	1.63370E+1	1.86098E+1	1.63397E+1
74	20/03/2023	18:51:32.348	0.00000E+0	0.00000E+0	6.83560E+0	2.08136E+0	0.00000E+0	0.00000E+0	2.09333E+1	1.40330E+1	2.09330E+1	1.40326E+1
75	20/03/2023	18:51:33.840	0.00000E+0	0.00000E+0	2.29816E+2	5.13289E-1	0.00000E+0	0.00000E+0	2.45860E+1	1.04660E+1	2.45832E+1	1.04652E+1
76	20/03/2023	18:51:35.343	0.00000E+0	0.00000E+0	-2.28003E+2	-3.14790E+0	0.00000E+0	0.00000E+0	1.80696E+1	1.68292E+1	1.80668E+1	1.68287E+1
77	20/03/2023	18:51:36.858	0.00000E+0	0.00000E+0	1.32759E+2	-2.72897E+0	0.00000E+0	0.00000E+0	2.30477E+1	1.19240E+1	2.30474E+1	1.19250E+1
78	20/03/2023	18:51:38.349	0.00000E+0	0.00000E+0	1.73528E+2	1.20254E+0	0.00000E+0	0.00000E+0	2.37989E+1	1.11890E+1	2.37983E+1	1.11898E+1
79	20/03/2023	18:51:39.832	0.00000E+0	0.00000E+0	-2.32877E+2	-2.30481E+0	0.00000E+0	0.00000E+0	1.79261E+1	1.69188E+1	1.79257E+1	1.69195E+1
80	20/03/2023	18:51:41.339	0.00000E+0	0.00000E+0	2.05553E+2	8.26413E-1	0.00000E+0	0.00000E+0	2.41295E+1	1.08343E+1	2.41305E+1	1.08347E+1
81	20/03/2023	18:51:42.833	0.00000E+0	0.00000E+0	-9.31353E+1	-9.48357E-1	0.00000E+0	0.00000E+0	2.01528E+1	1.47801E+1	2.01544E+1	1.47807E+1
82	20/03/2023	18:51:44.349	0.00000E+0	0.00000E+0	-1.54763E+2	-1.45157E-1	0.00000E+0	0.00000E+0	1.88842E+1	1.60665E+1	1.88842E+1	1.60690E+1
83	20/03/2023	18:51:45.837	0.00000E+0	0.00000E+0	2.39743E+2	2.21332E+0	0.00000E+0	0.00000E+0	2.46562E+1	1.03376E+1	2.46559E+1	1.03392E+1
84	20/03/2023	18:51:47.315	0.00000E+0	0.00000E+0	-1.96070E+2	-3.07115E+0	0.00000E+0	0.00000E+0	1.85535E+1	1.63451E+1	1.85540E+1	1.63444E+1
85	20/03/2023	18:51:48.812	0.00000E+0	0.00000E+0	-7.83557E+0	-1.31245E+0	0.00000E+0	0.00000E+0	2.07607E+1	1.41580E+1	2.07633E+1	1.41568E+1
86	20/03/2023	18:51:50.310	0.00000E+0	0.00000E+0	1.98663E+2	7.25876E-1	0.00000E+0	0.00000E+0	2.41251E+1	1.08129E+1	2.41262E+1	1.08119E+1
87	20/03/2023	18:51:51.833	0.00000E+0	0.00000E+0	-2.42523E+2	-2.54860E+0	0.00000E+0	0.00000E+0	1.77794E+1	1.70796E+1	1.77814E+1	1.70790E+1
88	20/03/2023	18:51:53.328	0.00000E+0	0.00000E+0	1.93088E+2	3.41785E+0	0.00000E+0	0.00000E+0	2.38984E+1	1.10746E+1	2.38974E+1	1.10720E+1
89	20/03/2023	18:51:54.828	0.00000E+0	0.00000E+0	7.85398E+1	-1.30074E+0	0.00000E+0	0.00000E+0	2.27298E+1	1.22622E+1	2.27332E+1	1.22614E+1
90	20/03/2023	18:51:56.389	0.00000E+0	0.00000E+0	-2.11853E+2	4.90221E-1	0.00000E+0	0.00000E+0	1.81568E+1	1.68615E+1	1.81555E+1	1.68615E+1
91	20/03/2023	18:51:57.887	0.00000E+0	0.00000E+0	2.21828E+2	2.16829E+0	0.00000E+0	0.00000E+0	2.44191E+1	1.05827E+1	2.44196E+1	1.05817E+1
92	20/03/2023	18:51:59.365	0.00000E+0	0.00000E+0	-1.82028E+2	-1.12896E-1	0.00000E+0	0.00000E+0	1.88001E+1	1.61409E+1	1.88019E+1	1.61404E+1
93	20/03/2023	18:52:00.833	0.00000E+0	0.00000E+0	-1.28302E+0	-3.05440E-1	0.00000E+0	0.00000E+0	2.08416E+1	1.41130E+1	2.08411E+1	1.41097E+1
94	20/03/2023	18:52:02.355	0.00000E+0	0.00000E+0	2.18288E+2	1.56263E+0	0.00000E+0	0.00000E+0	2.44097E+1	1.05854E+1	2.44114E+1	1.05846E+1
95	20/03/2023	18:52:03.853	0.00000E+0	0.00000E+0	-2.47717E+2	-3.30734E+0	0.00000E+0	0.00000E+0	1.77337E+1	1.71932E+1	1.77356E+1	1.71941E+1
96	20/03/2023	18:52:05.380	0.00000E+0	0.00000E+0	2.07377E+2	5.77459E-1	0.00000E+0	0.00000E+0	2.41810E+1	1.07697E+1	2.41812E+1	1.07727E+1
97	20/03/2023	18:52:06.843	0.00000E+0	0.00000E+0	-1.44699E+2	2.25675E+0	0.00000E+0	0.00000E+0	1.94244E+1	1.54958E+1	1.94227E+1	1.54957E+1
98	20/03/2023	18:52:08.300	0.00000E+0	0.00000E+0	-1.17538E+2	-3.51153E+0	0.00000E+0	0.00000E+0	1.92651E+1	1.56097E+1	1.92634E+1	1.56091E+1
99	20/03/2023	18:52:09.776	0.00000E+0	0.00000E+0	2.58833E+2	1.05140E+0	0.00000E+0	0.00000E+0	2.48972E+1	1.00667E+1	2.48964E+1	1.00662E+1
100	20/03/2023	18:52:11.289	0.00000E+0	0.00000E+0	-2.44092E+2	-2.31438E+0	0.00000E+0	0.00000E+0	1.78167E+1	1.71996E+1	1.78181E+1	1.71964E+1
101	20/03/2023	18:52:12.784	0.00000E+0	0.00000E+0	1.29698E+2	2.60715E-1	0.00000E+0	0.00000E+0	2.29086E+1	1.20772E+1	2.29105E+1	1.20791E+1
102	20/03/2023	18:52:14.267	0.00000E+0	0.00000E+0	6.73388E+1	7.37339E-1	0.00000E+0	0.00000E+0	2.25356E+1	1.23997E+1	2.25356E+1	1.23983E+1
103	20/03/2023	18:52:15.771	0.00000E+0	0.00000E+0	-2.31110E+2	-2.57628E+0	0.00000E+0	0.00000E+0	1.79526E+1	1.69561E+1	1.79534E+1	1.69546E+1
104	20/03/2023	18:52:17.268	0.00000E+0	0.00000E+0	2.30104E+2	2.63347E+0	0.00000E+0	0.00000E+0	2.44724E+1	1.05454E+1	2.44730E+1	1.05449E+1
105	20/03/2023	18:52:18.782	0.00000E+0	0.00000E+0	-1.26183E+2	9.04819E-1	0.00000E+0	0.00000E+0	1.96492E+1	1.53026E+1	1.96491E+1	1.53027E+1
106	20/03/2023	18:52:20.275	0.00000E+0	0.00000E+0	-1.94669E+2	-7.21918E+0	0.00000E+0	0.00000E+0	1.84825E+1	1.64993E+1	1.84822E+1	1.65010E+1
107	20/03/2023	18:52:21.763	0.00000E+0	0.00000E+0	2.08853E+2	7.38394E-1	0.00000E+0	0.00000E+0	2.42420E+1	1.07729E+1	2.42420E+1	1.07737E+1
108	20/03/2023	18:52:23.273	0.00000E+0	0.00000E+0	-2.01697E+2	-2.48878E-1	0.00000E+0	0.00000E+0	1.84749E+1	1.64690E+1	1.84745E+1	1.64672E+1
109	20/03/2023	18:52:24.772	0.00000E+0	0.00000E+0	1.98679E+2	6.89196E-1	0.00000E+0	0.00000E+0	2.39934E+1	1.10064E+1	2.39950E+1	1.10069E+1
110	20/03/2023	18:52:26.262	0.00000E+0	0.00000E+0	-1.17323E+2	2.06984E-1	0.00000E+0	0.00000E+0	1.98471E+1	1.50725E+1	1.98453E+1	1.50721E+1
111	20/03/2023	18:52:27.763	0.00000E+0	0.00000E+0	-2.37763E+2	-4.94479E+0	0.00000E+0	0.00000E+0	1.77419E+1	1.70888E+1	1.77392E+1	1.70877E+1
112	20/03/2023	18:52:29.305	0.00000E+0	0.00000E+0	2.69542E+2	3.46585E+0	0.00000E+0	0.00000E+0	2.50796E+1	9.89937E+0	2.50788E+1	9.89865E+0
113	20/03/2023	18:52:30.786	0.00000E+0	0.00000E+0	-1.41772E+2	-1.58148E+0	0.00000E+0	0.00000E+0	1.93931E+1	1.55523E+1	1.93920E+1	1.55505E+1
114	20/03/2023	18:52:32.311	0.00000E+0	0.00000E+0	-1.88359E+2	-4.10620E-1	0.00000E+0	0.00000E+0	1.84784E+1	1.64128E+1	1.84782E+1	1.64132E+1
115	20/03/2023	18:52:33.787	0.00000E+0	0.00000E+0	2.21606E+2	2.89231E+0	0.00000E+0	0.00000E+0	2.43983E+1	1.05729E+1	2.44012E+1	1.05701E+1
116	20/03/2023	18:52:35.264	0.00000E+0	0.00000E+0	-7.25167E+1	-2.34153E+0	0.00000E+0	0.00000E+0	2.03569E+1	1.46194E+1	2.03561E+1	1.46182E+1
117	20/03/2023	18:52:36.805	0.00000E+0	0.00000E+0	-1.97605E+2	-2.21625E+0	0.00000E+0	0.00000E+0	1.83755E+1	1.65391E+1	1.83783E+1	1.65398E+1
118	20/03/2023	18:52:38.295	0.00000E+0	0.00000E+0	2.25925E+2	2.30427E+0	0.00000E+0	0.00000E+0	2.44187E+1	1.05421E+1	2.44184E+1	1.05422E+1
119	20/03/2023	18:52:39.746	0.00000E+0	0.00000E+0	-2.27889E+2	-1.39453E+0	0.00000E+0	0.00000E+0	1.82168E+1	1.66792E+1	1.82146E+1	1.66804E+1
120	20/03/2023	18:52:41.229	0.00000E+0	0.00000E+0	-1.18980E+2	7.52223E-1	0.00000E+0	0.00000E+0	1.92784E+1	1.56218E+1	1.92764E+1	1.56219E+1
121	20/03/2023	18:52:42.745	0.00000E+0	0.00000E+0	1.98125E+2	9.58024E-1	0.00000E+0	0.00000E+0	2.41082E+1	1.09065E+1	2.41090E+1	1.09062E+1
122	20/03/2023	18:52:44.239	0.00000E+0	0.00000E+0	-2.15847E+2	-5.09546E+0	0.00000E+0	0.00000E+0	1.82057E+1	1.66602E+1	1.82044E+1	1.66595E+1
123	20/03/2023	18:52:45.733	0.00000E+0	0.00000E+0	2.34816E+2	3.73456E+0	0.00000E+0	0.00000E+0	2.44950E+1	1.04728E+1	2.44956E+1	1.04716E+1
124	20/03/2023	18:52:47.196	0.00000E+0	0.00000E+0	-1.30680E+2	1.01319E+0	0.00000E+0	0.00000E+0	1.96440E+1	1.53268E+1	1.96445E+1	1.53237E+1
125	20/03/2023	18:52:48.676	0.00000E+0	0.00000E+0	-9.58994E+1	-3.82894E-1	0.00000E+0	0.00000E+0	1.95405E+1	1.53674E+1	1.95415E+1	1.53638E+1
126	20/03/2023	18:52:50.169	0.00000E+0	0.00000E+0	2.15259E+2	1.26655E-1	0.00000E+0	0.00000E+0	2.43579E+1	1.05990E+1	2.43592E+1	1.05976E+1
127	20/03/2023	18:52:51.609	0.00000E+0	0.00000E+0	-2.40529E+2	6.57087E-1	0.00000E+0	0.00000E+0	1.78002E+1	1.71209E+1	1.78006E+1	1.71211E+1
128	20/03/2023	18:52:53.091	0.00000E+0	0.00000E+0	2.56828E+2	-4.95802E-1	0.00000E+0	0.00000E+0	2.48370E+1	1.01506E+1	2.48399E+1	1.01532E+1
129	20/03/2023	18:52:54.594	0.00000E+0	0.00000E+0	-2.50445E+2	-9.85679E-1	0.00000E+0	0.00000E+0	1.80000E+1	1.69191E+1	1.79980E+1	1.69206E+1
130	20/03/2023	18:52:56.115	0.00000E+0	0.00000E+0	1.00534E+2	2.96627E+0	0.00000E+0	0.00000E+0	2.22990E+1	1.26373E+1	2.22982E+1	1.26361E+1
131	20/03/2023	18:52:57.584	0.00000E+0	0.00000E+0	3.89465E+1	1.80782E+0	0.00000E+0	0.00000E+0	2.21359E+1	1.27753E+1	2.21338E+1	1.27747E+1
132	20/03/2023	18:52:59.069	0.00000E+0	0.00000E+0	-1.97723E+2	3.32723E+0	0.00000E+0	0.00000E+0	1.82894E+1	1.66639E+1	1.82903E+1	1.66641E+1
133	20/03/2023	18:53:00.554	0.00000E+0	0.00000E+0	2.59861E+2	4.26112E-1	0.00000E+0	0.00000E+0	2.50061E+1	1.00014E+1	2.50098E+1	9.99901E+0
134	20/03/2023	18:53:02.022	0.00000E+0	0.00000E+0	-2.52052E+2	-1.56953E+0	0.00000E+0	0.00000E+0	1.77343E+1	1.72620E+1	1.77333E+1	1.72601E+1
135	20/03/2023	18:53:03.562	0.00000E+0	0.00000E+0	2.32236E+2	1.57284E+0	0.00000E+0	0.00000E+0	2.45002E+1	1.05121E+1	2.45006E+1	1.05124E+1
136	20/03/2023	18:53:05.078	0.00000E+0	0.00000E+0	-1.60077E+2	-2.43228E+0	0.00000E+0	0.00000E+0	1.91317E+1	1.57670E+1	1.91331E+1	1.57675E+1
137	20/03/2023	18:53:06.595	0.00000E+0	0.00000E+0	2.91294E+1	3.45286E-1	0.00000E+0	0.00000E+0	2.14321E+1	1.35319E+1	2.14324E+1	1.35329E+1
138	20/03/2023	18:53:08.075	0.00000E+0	0.00000E+0	1.30110E+2	9.26550E-1	0.00000E+0	0.00000E+0	2.32891E+1	1.16743E+1	2.32902E+1	1.16730E+1
139	20/03/2023	18:53:09.558	0.00000E+0	0.00000E+0	-2.28258E+2	-2.99990E+0	0.00000E+0	0.00000E+0	1.80333E+1	1.69150E+1	1.80342E+1	1.69149E+1
140	20/03/2023	18:53:11.072	0.00000E+0	0.00000E+0	2.31456E+2	1.81703E+0	0.00000E+0	0.00000E+0	2.45095E+1	1.05079E+1	2.45094E+1	1.05071E+1
141	20/03/2023	18:53:12.587	0.00000E+0	0.00000E+0	-2.13736E+2	-3.42411E+0	0.00000E+0	0.00000E+0	1.83377E+1	1.66134E+1	1.83384E+1	1.66114E+1
142	20/03/2023	18:53:14.082	0.00000E+0	0.00000E+0	7.43740E+1	1.10336E+0	0.00000E+0	0.00000E+0	2.19142E+1	1.28924E+1	2.19129E+1	1.28930E+1
143	20/03/2023	18:53:15.562	0.00000E+0	0.00000E+0	1.56380E+2	1.73995E+0	0.00000E+0	0.00000E+0	2.38522E+1	1.11829E+1	2.38496E+1	1.11822E+1
144	20/03/2023	18:53:17.078	0.00000E+0	0.00000E+0	-2.25908E+2	-3.94283E+0	0.00000E+0	0.00000E+0	1.80402E+1	1.68508E+1	1.80393E+1	1.68507E+1
145	20/03/2023	18:53:18.618	0.00000E+0	0.00000E+0	2.28608E+2	1.73225E+0	0.00000E+0	0.00000E+0	2.44187E+1	1.05139E+1	2.44172E+1	1.05129E+1
146	20/03/2023	18:53:20.120	0.00000E+0	0.00000E+0	-2.30225E+2	-1.25586E+0	0.00000E+0	0.00000E+0	1.80452E+1	1.68619E+1	1.80456E+1	1.68616E+1
147	20/03/2023	18:53:21.627	0.00000E+0	0.00000E+0	1.13070E+2	-1.19309E+0	0.00000E+0	0.00000E+0	2.24063E+1	1.24338E+1	2.24061E+1	1.24355E+1
148	20/03/2023	18:53:23.073	0.00000E+0	0.00000E+0	9.73779E+1	-1.88779E+0	0.00000E+0	0.00000E+0	2.29130E+1	1.20505E+1	2.29119E+1	1.20497E+1
149	20/03/2023	18:53:24.552	0.00000E+0	0.00000E+0	-2.23731E+2	9.70065E-1	0.00000E+0	0.00000E+0	1.80966E+1	1.67801E+1	1.80966E+1	1.67823E+1
150	20/03/2023	18:53:26.031	0.00000E+0	0.00000E+0	2.32553E+2	1.38885E+0	0.00000E+0	0.00000E+0	2.45403E+1	1.04364E+1	2.45407E+1	1.04370E+1
151	20/03/2023	18:53:27.552	0.00000E+0	0.00000E+0	-1.88948E+2	-1.07544E+0	0.00000E+0	0.00000E+0	1.87272E+1	1.62350E+1	1.87261E+1	1.62384E+1
152	20/03/2023	18:53:29.067	0.00000E+0	0.00000E+0	-1.21147E+1	1.62650E+0	0.00000E+0	0.00000E+0	2.07203E+1	1.41915E+1	2.07208E+1	1.41897E+1
153	20/03/2023	18:53:30.530	0.00000E+0	0.00000E+0	2.23933E+2	-1.23181E+0	0.00000E+0	0.00000E+0	2.44483E+1	1.05313E+1	2.44452E+1	1.05314E+1
154	20/03/2023	18:53:32.022	0.00000E+0	0.00000E+0	-2.03129E+2	2.06666E+0	0.00000E+0	0.00000E+0	1.84226E+1	1.65855E+1	1.84228E+1	1.65861E+1
155	20/03/2023	18:53:33.516	0.00000E+0	0.00000E+0	1.65803E+2	-1.74914E+0	0.00000E+0	0.00000E+0	2.34329E+1	1.15619E+1	2.34325E+1	1.15609E+1
156	20/03/2023	18:53:35.021	0.00000E+0	0.00000E+0	4.57714E+1	-6.12402E-1	0.00000E+0	0.00000E+0	2.23542E+1	1.25800E+1	2.23550E+1	1.25796E+1
157	20/03/2023	18:53:36.502	0.00000E+0	0.00000E+0	-2.02970E+2	9.19716E-1	0.00000E+0	0.00000E+0	1.82710E+1	1.66380E+1	1.82700E+1	1.66366E+1
158	20/03/2023	18:53:38.014	0.00000E+0	0.00000E+0	2.17328E+2	1.47895E+0	0.00000E+0	0.00000E+0	2.43336E+1	1.06505E+1	2.43335E+1	1.06505E+1
159	20/03/2023	18:53:39.512	0.00000E+0	0.00000E+0	-2.32188E+2	-3.11292E+0	0.00000E+0	0.00000E+0	1.80135E+1	1.68761E+1	1.80125E+1	1.68766E+1
160	20/03/2023	18:53:41.012	0.00000E+0	0.00000E+0	8.67150E+1	-1.44072E+0	0.00000E+0	0.00000E+0	2.22771E+1	1.27303E+1	2.22760E+1	1.27288E+1
161	20/03/2023	18:53:42.479	0.00000E+0	0.00000E+0	1.80305E+2	1.60712E+0	0.00000E+0	0.00000E+0	2.40797E+1	1.09875E+1	2.40795E+1	1.09872E+1
162	20/03/2023	18:53:43.979	0.00000E+0	0.00000E+0	-2.43233E+2	-4.88574E+0	0.00000E+0	0.00000E+0	1.77825E+1	1.71560E+1	1.77838E+1	1.71560E+1
163	20/03/2023	18:53:45.416	0.00000E+0	0.00000E+0	2.10997E+2	1.94878E+0	0.00000E+0	0.00000E+0	2.42398E+1	1.07728E+1	2.42383E+1	1.07730E+1
164	20/03/2023	18:53:46.884	0.00000E+0	0.00000E+0	9.89499E+1	2.24512E+0	0.00000E+0	0.00000E+0	2.30132E+1	1.19898E+1	2.30139E+1	1.19904E+1
165	20/03/2023	18:53:48.371	0.00000E+0	0.00000E+0	-2.38374E+2	-6.47584E+0	0.00000E+0	0.00000E+0	1.77950E+1	1.70776E+1	1.77952E+1	1.70774E+1
166	20/03/2023	18:53:49.840	0.00000E+0	0.00000E+0	2.41856E+2	1.75485E+0	0.00000E+0	0.00000E+0	2.47082E+1	1.03581E+1	2.47086E+1	1.03583E+1
167	20/03/2023	18:53:51.341	0.00000E+0	0.00000E+0	-2.03964E+2	-4.09989E+0	0.00000E+0	0.00000E+0	1.84725E+1	1.64264E+1	1.84698E+1	1.64267E+1
168	20/03/2023	18:53:52.830	0.00000E+0	0.00000E+0	7.85345E+0	2.12863E+0	0.00000E+0	0.00000E+0	2.10357E+1	1.38973E+1	2.10369E+1	1.39002E+1
169	20/03/2023	18:53:54.317	0.00000E+0	0.00000E+0	2.24536E+2	2.92045E+0	0.00000E+0	0.00000E+0	2.45581E+1	1.04299E+1	2.45597E+1	1.04317E+1
170	20/03/2023	18:53:55.785	0.00000E+0	0.00000E+0	-2.22053E+2	-5.91287E+0	0.00000E+0	0.00000E+0	1.82240E+1	1.67876E+1	1.82252E+1	1.67878E+1
171	20/03/2023	18:53:57.294	0.00000E+0	0.00000E+0	1.25145E+2	-1.31463E-1	0.00000E+0	0.00000E+0	2.28458E+1	1.21483E+1	2.28457E+1	1.21472E+1
172	20/03/2023	18:53:58.811	0.00000E+0	0.00000E+0	1.42970E+2	-4.57657E-1	0.00000E+0	0.00000E+0	2.35493E+1	1.14857E+1	2.35502E+1	1.14865E+1
173	20/03/2023	18:54:00.293	0.00000E+0	0.00000E+0	-2.12563E+2	-2.85861E+0	0.00000E+0	0.00000E+0	1.82657E+1	1.66225E+1	1.82669E+1	1.66246E+1
174	20/03/2023	18:54:01.799	0.00000E+0	0.00000E+0	1.82899E+2	1.41245E+0	0.00000E+0	0.00000E+0	2.37181E+1	1.12169E+1	2.37199E+1	1.12174E+1
175	20/03/2023	18:54:03.274	0.00000E+0	0.00000E+0	9.28933E+1	1.25302E-1	0.00000E+0	0.00000E+0	2.29018E+1	1.20509E+1	2.29040E+1	1.20501E+1
176	20/03/2023	18:54:04.777	0.00000E+0	0.00000E+0	-1.74455E+2	1.79956E-1	0.00000E+0	0.00000E+0	1.85813E+1	1.62630E+1	1.85830E+1	1.62639E+1
177	20/03/2023	18:54:06.289	0.00000E+0	0.00000E+0	2.12306E+2	6.41997E-1	0.00000E+0	0.00000E+0	2.42439E+1	1.06866E+1	2.42470E+1	1.06851E+1
178	20/03/2023	18:54:07.787	0.00000E+0	0.00000E+0	-1.84255E+2	-1.03221E+0	0.00000E+0	0.00000E+0	1.87111E+1	1.61883E+1	1.87116E+1	1.61882E+1
179	20/03/2023	18:54:09.299	0.00000E+0	0.00000E+0	-6.40504E+1	-1.66340E+0	0.00000E+0	0.00000E+0	2.00183E+1	1.48964E+1	2.00189E+1	1.48957E+1
180	20/03/2023	18:54:10.808	0.00000E+0	0.00000E+0	2.20656E+2	2.61825E+0	0.00000E+0	0.00000E+0	2.43951E+1	1.05974E+1	2.43952E+1	1.05991E+1
181	20/03/2023	18:54:12.315	0.00000E+0	0.00000E+0	-2.06729E+2	-1.73038E+0	0.00000E+0	0.00000E+0	1.84778E+1	1.64162E+1	1.84786E+1	1.64155E+1
182	20/03/2023	18:54:13.799	0.00000E+0	0.00000E+0	9.53402E+0	7.20986E-1	0.00000E+0	0.00000E+0	2.11551E+1	1.37797E+1	2.11572E+1	1.37797E+1
183	20/03/2023	18:54:15.302	0.00000E+0	0.00000E+0	2.08302E+2	1.57224E+0	0.00000E+0	0.00000E+0	2.43376E+1	1.06862E+1	2.43371E+1	1.06845E+1
184	20/03/2023	18:54:16.774	0.00000E+0	0.00000E+0	-1.71610E+2	-1.54249E-1	0.00000E+0	0.00000E+0	1.88842E+1	1.60892E+1	1.88859E+1	1.60909E+1
185	20/03/2023	18:54:18.258	0.00000E+0	0.00000E+0	-5.71182E+1	5.64797E-1	0.00000E+0	0.00000E+0	2.01858E+1	1.47248E+1	2.01851E+1	1.47249E+1
186	20/03/2023	18:54:19.723	0.00000E+0	0.00000E+0	2.10973E+2	1.53198E+0	0.00000E+0	0.00000E+0	2.41873E+1	1.07652E+1	2.41855E+1	1.07631E+1
187	20/03/2023	18:54:21.248	0.00000E+0	0.00000E+0	-2.42382E+2	-5.23673E+0	0.00000E+0	0.00000E+0	1.79097E+1	1.70277E+1	1.79121E+1	1.70287E+1
188	20/03/2023	18:54:22.740	0.00000E+0	0.00000E+0	1.33269E+2	1.90323E+0	0.00000E+0	0.00000E+0	2.29605E+1	1.19929E+1	2.29599E+1	1.19935E+1
189	20/03/2023	18:54:24.224	0.00000E+0	0.00000E+0	5.69749E+1	-5.58765E-1	0.00000E+0	0.00000E+0	2.23621E+1	1.25865E+1	2.23637E+1	1.25841E+1
190	20/03/2023	18:54:25.699	0.00000E+0	0.00000E+0	-1.83138E+2	-1.29461E+0	0.00000E+0	0.00000E+0	1.85382E+1	1.63651E+1	1.85377E+1	1.63636E+1
191	20/03/2023	18:54:27.184	0.00000E+0	0.00000E+0	2.23961E+2	2.92047E+0	0.00000E+0	0.00000E+0	2.44084E+1	1.05963E+1	2.44103E+1	1.05956E+1
192	20/03/2023	18:54:28.663	0.00000E+0	0.00000E+0	-2.51468E+2	9.43626E-1	0.00000E+0	0.00000E+0	1.78041E+1	1.71205E+1	1.78049E+1	1.71186E+1
193	20/03/2023	18:54:30.163	0.00000E+0	0.00000E+0	9.64648E+1	-4.71223E-1	0.00000E+0	0.00000E+0	2.24293E+1	1.26083E+1	2.24299E+1	1.26091E+1
194	20/03/2023	18:54:31.667	0.00000E+0	0.00000E+0	1.22965E+2	-2.36528E+0	0.00000E+0	0.00000E+0	2.33489E+1	1.16348E+1	2.33487E+1	1.16332E+1
195	20/03/2023	18:54:33.171	0.00000E+0	0.00000E+0	-2.55591E+2	-1.14321E+0	0.00000E+0	0.00000E+0	1.76135E+1	1.72959E+1	1.76131E+1	1.72952E+1
196	20/03/2023	18:54:34.673	0.00000E+0	0.00000E+0	2.42065E+2	1.86490E+0	0.00000E+0	0.00000E+0	2.46866E+1	1.03592E+1	2.46887E+1	1.03578E+1
197	20/03/2023	18:54:36.160	0.00000E+0	0.00000E+0	-1.33828E+2	-1.79466E+0	0.00000E+0	0.00000E+0	1.95318E+1	1.53579E+1	1.95332E+1	1.53582E+1
198	20/03/2023	18:54:37.681	0.00000E+0	0.00000E+0	-1.68722E+2	-3.83045E-1	0.00000E+0	0.00000E+0	1.86357E+1	1.62360E+1	1.86345E+1	1.62374E+1
199	20/03/2023	18:54:39.147	0.00000E+0	0.00000E+0	2.54196E+2	2.45176E+0	0.00000E+0	0.00000E+0	2.48252E+1	1.02092E+1	2.48254E+1	1.02089E+1
200	20/03/2023	18:54:40.673	0.00000E+0	0.00000E+0	-1.96570E+2	-1.25923E+0	0.00000E+0	0.00000E+0	1.85017E+1	1.64226E+1	1.85032E+1	1.64234E+1
201	20/03/2023	18:54:42.161	0.00000E+0	0.00000E+0	5.38709E+0	7.90050E-1	0.00000E+0	0.00000E+0	2.10573E+1	1.39071E+1	2.10563E+1	1.39100E+1
202	20/03/2023	18:54:43.646	0.00000E+0	0.00000E+0	2.28642E+2	8.48699E-2	0.00000E+0	0.00000E+0	2.45751E+1	1.04187E+1	2.45761E+1	1.04167E+1
203	20/03/2023	18:54:45.145	0.00000E+0	0.00000E+0	-2.12718E+2	-3.45432E+0	0.00000E+0	0.00000E+0	1.82167E+1	1.66495E+1	1.82166E+1	1.66506E+1
204	20/03/2023	18:54:46.647	0.00000E+0	0.00000E+0	1.11608E+2	1.41476E+0	0.00000E+0	0.00000E+0	2.26393E+1	1.23767E+1	2.26397E+1	1.23754E+1
205	20/03/2023	18:54:48.116	0.00000E+0	0.00000E+0	1.27708E+2	-2.11645E+0	0.00000E+0	0.00000E+0	2.32941E+1	1.16915E+1	2.32953E+1	1.16927E+1
206	20/03/2023	18:54:49.671	0.00000E+0	0.00000E+0	-2.08722E+2	-1.80726E+0	0.00000E+0	0.00000E+0	1.82488E+1	1.66937E+1	1.82504E+1	1.66939E+1
207	20/03/2023	18:54:51.192	0.00000E+0	0.00000E+0	2.23886E+2	2.83685E-1	0.00000E+0	0.00000E+0	2.43553E+1	1.06226E+1	2.43529E+1	1.06212E+1
208	20/03/2023	18:54:52.659	0.00000E+0	0.00000E+0	-5.45109E+1	-1.80133E+0	0.00000E+0	0.00000E+0	2.07480E+1	1.41881E+1	2.07485E+1	1.41881E+1
209	20/03/2023	18:54:54.148	0.00000E+0	0.00000E+0	-1.92879E+2	-3.37588E+0	0.00000E+0	0.00000E+0	1.83245E+1	1.65408E+1	1.83235E+1	1.65399E+1
210	20/03/2023	18:54:55.651	0.00000E+0	0.00000E+0	2.08177E+2	-9.48002E-1	0.00000E+0	0.00000E+0	2.41994E+1	1.07846E+1	2.42003E+1	1.07861E+1
211	20/03/2023	18:54:57.128	0.00000E+0	0.00000E+0	-1.66277E+2	-1.87721E+0	0.00000E+0	0.00000E+0	1.89956E+1	1.59524E+1	1.89948E+1	1.59533E+1
212	20/03/2023	18:54:58.649	0.00000E+0	0.00000E+0	3.52714E+1	-2.42910E-2	0.00000E+0	0.00000E+0	2.16187E+1	1.32942E+1	2.16200E+1	1.32957E+1
213	20/03/2023	18:55:00.145	0.00000E+0	0.00000E+0	1.90187E+2	2.48268E+0	0.00000E+0	0.00000E+0	2.39733E+1	1.10005E+1	2.39731E+1	1.10010E+1
214	20/03/2023	18:55:01.639	0.00000E+0	0.00000E+0	-2.23219E+2	-3.96946E+0	0.00000E+0	0.00000E+0	1.80173E+1	1.68265E+1	1.80178E+1	1.68258E+1
215	20/03/2023	18:55:03.133	0.00000E+0	0.00000E+0	1.80237E+2	-6.44872E-1	0.00000E+0	0.00000E+0	2.36997E+1	1.12659E+1	2.36994E+1	1.12663E+1
216	20/03/2023	18:55:04.617	0.00000E+0	0.00000E+0	-1.71962E+1	8.63211E-2	0.00000E+0	0.00000E+0	2.13282E+1	1.36190E+1	2.13259E+1	1.36208E+1
217	20/03/2023	18:55:06.130	0.00000E+0	0.00000E+0	-1.98021E+2	-2.64714E+0	0.00000E+0	0.00000E+0	1.84140E+1	1.64955E+1	1.84158E+1	1.64952E+1
218	20/03/2023	18:55:07.599	0.00000E+0	0.00000E+0	2.18418E+2	2.33647E+0	0.00000E+0	0.00000E+0	2.43383E+1	1.06725E+1	2.43389E+1	1.06704E+1
219	20/03/2023	18:55:09.125	0.00000E+0	0.00000E+0	-1.88897E+2	-1.54145E+0	0.00000E+0	0.00000E+0	1.86330E+1	1.63044E+1	1.86330E+1	1.63030E+1
220	20/03/2023	18:55:10.592	0.00000E+0	0.00000E+0	-2.78638E+1	-1.86498E+0	0.00000E+0	0.00000E+0	2.04584E+1	1.44842E+1	2.04597E+1	1.44854E+1
221	20/03/2023	18:55:12.086	0.00000E+0	0.00000E+0	2.29235E+2	2.37989E+0	0.00000E+0	0.00000E+0	2.45479E+1	1.04261E+1	2.45485E+1	1.04270E+1
222	20/03/2023	18:55:13.565	0.00000E+0	0.00000E+0	-2.69981E+2	-1.09311E+0	0.00000E+0	0.00000E+0	1.74771E+1	1.74795E+1	1.74768E+1	1.74779E+1
223	20/03/2023	18:55:15.050	0.00000E+0	0.00000E+0	1.42362E+2	7.44690E-1	0.00000E+0	0.00000E+0	2.31451E+1	1.18427E+1	2.31441E+1	1.18411E+1
224	20/03/2023	18:55:16.590	0.00000E+0	0.00000E+0	1.94280E+2	3.60315E-1	0.00000E+0	0.00000E+0	2.41868E+1	1.08171E+1	2.41863E+1	1.08142E+1
225	20/03/2023	18:55:18.099	0.00000E+0	0.00000E+0	-2.28207E+2	-2.99503E+0	0.00000E+0	0.00000E+0	1.80481E+1	1.69011E+1	1.80490E+1	1.69027E+1
226	20/03/2023	18:55:19.581	0.00000E+0	0.00000E+0	2.24742E+2	-8.82474E-1	0.00000E+0	0.00000E+0	2.44307E+1	1.05695E+1	2.44314E+1	1.05722E+1
227	20/03/2023	18:55:21.078	0.00000E+0	0.00000E+0	-1.97384E+2	4.06785E-1	0.00000E+0	0.00000E+0	1.84793E+1	1.64638E+1	1.84777E+1	1.64625E+1
228	20/03/2023	18:55:22.565	0.00000E+0	0.00000E+0	1.88235E+2	2.91900E+0	0.00000E+0	0.00000E+0	2.38774E+1	1.11116E+1	2.38763E+1	1.11105E+1
229	20/03/2023	18:55:24.037	0.00000E+0	0.00000E+0	-2.24544E+2	4.64243E+0	0.00000E+0	0.00000E+0	1.81073E+1	1.68063E+1	1.81086E+1	1.68082E+1
230	20/03/2023	18:55:25.556	0.00000E+0	0.00000E+0	1.91317E+2	3.23368E+0	0.00000E+0	0.00000E+0	2.39513E+1	1.10542E+1	2.39514E+1	1.10533E+1
231	20/03/2023	18:55:27.042	0.00000E+0	0.00000E+0	-2.32325E+2	-2.85369E+0	0.00000E+0	0.00000E+0	1.79215E+1	1.69285E+1	1.79193E+1	1.69285E+1
232	20/03/2023	18:55:28.522	0.00000E+0	0.00000E+0	2.54773E+2	1.79462E+0	0.00000E+0	0.00000E+0	2.48340E+1	1.01380E+1	2.48356E+1	1.01378E+1
233	20/03/2023	18:55:29.978	0.00000E+0	0.00000E+0	-2.21254E+2	-2.20896E+0	0.00000E+0	0.00000E+0	1.81081E+1	1.67394E+1	1.81079E+1	1.67388E+1
234	20/03/2023	18:55:31.489	0.00000E+0	0.00000E+0	2.24096E+2	-1.13598E+0	0.00000E+0	0.00000E+0	2.43903E+1	1.06195E+1	2.43940E+1	1.06203E+1
235	20/03/2023	18:55:32.984	0.00000E+0	0.00000E+0	-2.11762E+2	-1.12148E+0	0.00000E+0	0.00000E+0	1.82346E+1	1.66783E+1	1.82364E+1	1.66750E+1
236	20/03/2023	18:55:34.446	0.00000E+0	0.00000E+0	2.27964E+2	2.22477E+0	0.00000E+0	0.00000E+0	2.43907E+1	1.05583E+1	2.43905E+1	1.05613E+1
237	20/03/2023	18:55:35.951	0.00000E+0	0.00000E+0	-2.36718E+2	-1.10495E+0	0.00000E+0	0.00000E+0	1.78916E+1	1.69549E+1	1.78915E+1	1.69575E+1
238	20/03/2023	18:55:37.477	0.00000E+0	0.00000E+0	2.31150E+2	1.43791E+0	0.00000E+0	0.00000E+0	2.44654E+1	1.05195E+1	2.44671E+1	1.05204E+1
239	20/03/2023	18:55:38.925	0.00000E+0	0.00000E+0	-2.02410E+2	-3.67068E+0	0.00000E+0	0.00000E+0	1.84588E+1	1.65289E+1	1.84593E+1	1.65286E+1
240	20/03/2023	18:55:40.396	0.00000E+0	0.00000E+0	2.05299E+2	-2.04545E-2	0.00000E+0	0.00000E+0	2.40535E+1	1.08652E+1	2.40530E+1	1.08638E+1
241	20/03/2023	18:55:41.908	0.00000E+0	0.00000E+0	-2.00223E+2	2.09596E+0	0.00000E+0	0.00000E+0	1.84765E+1	1.64736E+1	1.84757E+1	1.64748E+1
242	20/03/2023	18:55:43.452	0.00000E+0	0.00000E+0	1.63581E+2	6.01235E-1	0.00000E+0	0.00000E+0	2.34215E+1	1.15603E+1	2.34205E+1	1.15606E+1
