#Iteration	Date	Time	Chirp	Phase	RamanAxis	RatioMean	RatioStdDev
1	02/09/2022	14:14:31.391	0.00000000E+0	-3.14159265E+1	5.00000000E+0	2.75851802E-1	0.00000000E+0
2	02/09/2022	14:14:32.761	0.00000000E+0	-3.12065382E+1	5.00000000E+0	2.91339935E-1	0.00000000E+0
3	02/09/2022	14:14:34.259	0.00000000E+0	-3.09971498E+1	5.00000000E+0	3.07732515E-1	0.00000000E+0
4	02/09/2022	14:14:35.633	0.00000000E+0	-3.07877614E+1	5.00000000E+0	3.36288926E-1	0.00000000E+0
5	02/09/2022	14:14:37.075	0.00000000E+0	-3.05779895E+1	5.00000000E+0	3.59673279E-1	0.00000000E+0
6	02/09/2022	14:14:38.559	0.00000000E+0	-3.03686012E+1	5.00000000E+0	3.99630006E-1	0.00000000E+0
7	02/09/2022	14:14:39.947	0.00000000E+0	-3.01592128E+1	5.00000000E+0	4.32305444E-1	0.00000000E+0
8	02/09/2022	14:14:41.435	0.00000000E+0	-2.99498244E+1	5.00000000E+0	4.78166833E-1	0.00000000E+0
9	02/09/2022	14:14:42.942	0.00000000E+0	-2.97404360E+1	5.00000000E+0	5.01953498E-1	0.00000000E+0
10	02/09/2022	14:14:44.367	0.00000000E+0	-2.95310476E+1	5.00000000E+0	5.49028580E-1	0.00000000E+0
11	02/09/2022	14:14:45.924	0.00000000E+0	-2.93216593E+1	5.00000000E+0	5.75002299E-1	0.00000000E+0
12	02/09/2022	14:14:47.687	0.00000000E+0	-2.91122709E+1	5.00000000E+0	6.03212446E-1	0.00000000E+0
13	02/09/2022	14:14:49.070	0.00000000E+0	-2.89024990E+1	5.00000000E+0	6.15602452E-1	0.00000000E+0
14	02/09/2022	14:14:50.599	0.00000000E+0	-2.86931106E+1	5.00000000E+0	6.23054520E-1	0.00000000E+0
15	02/09/2022	14:14:52.002	0.00000000E+0	-2.84837223E+1	5.00000000E+0	6.30083135E-1	0.00000000E+0
16	02/09/2022	14:14:53.507	0.00000000E+0	-2.82743339E+1	5.00000000E+0	6.27807925E-1	0.00000000E+0
17	02/09/2022	14:14:54.892	0.00000000E+0	-2.80649455E+1	5.00000000E+0	6.15551758E-1	0.00000000E+0
18	02/09/2022	14:14:56.320	0.00000000E+0	-2.78555571E+1	5.00000000E+0	5.96368190E-1	0.00000000E+0
19	02/09/2022	14:14:57.922	0.00000000E+0	-2.76461687E+1	5.00000000E+0	5.74508914E-1	0.00000000E+0
20	02/09/2022	14:14:59.313	0.00000000E+0	-2.74363969E+1	5.00000000E+0	5.44472753E-1	0.00000000E+0
21	02/09/2022	14:15:00.756	0.00000000E+0	-2.72270085E+1	5.00000000E+0	5.03776938E-1	0.00000000E+0
22	02/09/2022	14:15:02.152	0.00000000E+0	-2.70176201E+1	5.00000000E+0	4.70135109E-1	0.00000000E+0
23	02/09/2022	14:15:03.598	0.00000000E+0	-2.68082317E+1	5.00000000E+0	4.36828835E-1	0.00000000E+0
24	02/09/2022	14:15:05.113	0.00000000E+0	-2.65988434E+1	5.00000000E+0	4.03193570E-1	0.00000000E+0
25	02/09/2022	14:15:06.558	0.00000000E+0	-2.63894550E+1	5.00000000E+0	3.65536683E-1	0.00000000E+0
26	02/09/2022	14:15:08.014	0.00000000E+0	-2.61800666E+1	5.00000000E+0	3.43669239E-1	0.00000000E+0
27	02/09/2022	14:15:09.556	0.00000000E+0	-2.59706782E+1	5.00000000E+0	3.14713739E-1	0.00000000E+0
28	02/09/2022	14:15:10.952	0.00000000E+0	-2.57609064E+1	5.00000000E+0	2.95313328E-1	0.00000000E+0
29	02/09/2022	14:15:12.487	0.00000000E+0	-2.55515180E+1	5.00000000E+0	2.84507453E-1	0.00000000E+0
30	02/09/2022	14:15:13.876	0.00000000E+0	-2.53421296E+1	5.00000000E+0	2.88094823E-1	0.00000000E+0
31	02/09/2022	14:15:15.339	0.00000000E+0	-2.51327412E+1	5.00000000E+0	2.85049553E-1	0.00000000E+0
32	02/09/2022	14:15:16.842	0.00000000E+0	-2.49233529E+1	5.00000000E+0	2.85645962E-1	0.00000000E+0
33	02/09/2022	14:15:18.286	0.00000000E+0	-2.47139645E+1	5.00000000E+0	3.05552326E-1	0.00000000E+0
34	02/09/2022	14:15:19.759	0.00000000E+0	-2.45045761E+1	5.00000000E+0	3.38335616E-1	0.00000000E+0
35	02/09/2022	14:15:21.235	0.00000000E+0	-2.42948042E+1	5.00000000E+0	3.62610315E-1	0.00000000E+0
36	02/09/2022	14:15:22.627	0.00000000E+0	-2.40854158E+1	5.00000000E+0	4.06671058E-1	0.00000000E+0
37	02/09/2022	14:15:24.147	0.00000000E+0	-2.38760275E+1	5.00000000E+0	4.29098538E-1	0.00000000E+0
38	02/09/2022	14:15:25.543	0.00000000E+0	-2.36666391E+1	5.00000000E+0	4.81017995E-1	0.00000000E+0
39	02/09/2022	14:15:26.926	0.00000000E+0	-2.34572507E+1	5.00000000E+0	4.97287220E-1	0.00000000E+0
40	02/09/2022	14:15:28.421	0.00000000E+0	-2.32478623E+1	5.00000000E+0	5.45275500E-1	0.00000000E+0
41	02/09/2022	14:15:29.815	0.00000000E+0	-2.30384740E+1	5.00000000E+0	5.68123876E-1	0.00000000E+0
42	02/09/2022	14:15:31.289	0.00000000E+0	-2.28290856E+1	5.00000000E+0	6.06608061E-1	0.00000000E+0
43	02/09/2022	14:15:32.744	0.00000000E+0	-2.26193137E+1	5.00000000E+0	6.21349883E-1	0.00000000E+0
44	02/09/2022	14:15:34.120	0.00000000E+0	-2.24099253E+1	5.00000000E+0	6.34093030E-1	0.00000000E+0
45	02/09/2022	14:15:35.597	0.00000000E+0	-2.22005370E+1	5.00000000E+0	6.39006138E-1	0.00000000E+0
46	02/09/2022	14:15:36.992	0.00000000E+0	-2.19911486E+1	5.00000000E+0	6.32734061E-1	0.00000000E+0
47	02/09/2022	14:15:38.432	0.00000000E+0	-2.17817602E+1	5.00000000E+0	6.20703526E-1	0.00000000E+0
48	02/09/2022	14:15:39.922	0.00000000E+0	-2.15723718E+1	5.00000000E+0	6.04463758E-1	0.00000000E+0
49	02/09/2022	14:15:41.296	0.00000000E+0	-2.13629834E+1	5.00000000E+0	5.73840604E-1	0.00000000E+0
50	02/09/2022	14:15:42.753	0.00000000E+0	-2.11532116E+1	5.00000000E+0	5.48469481E-1	0.00000000E+0
51	02/09/2022	14:15:44.146	0.00000000E+0	-2.09438232E+1	5.00000000E+0	5.14574022E-1	0.00000000E+0
52	02/09/2022	14:15:45.528	0.00000000E+0	-2.07344348E+1	5.00000000E+0	4.73970830E-1	0.00000000E+0
53	02/09/2022	14:15:47.087	0.00000000E+0	-2.05250464E+1	5.00000000E+0	4.48230342E-1	0.00000000E+0
54	02/09/2022	14:15:48.488	0.00000000E+0	-2.03156581E+1	5.00000000E+0	3.96932537E-1	0.00000000E+0
55	02/09/2022	14:15:49.930	0.00000000E+0	-2.01062697E+1	5.00000000E+0	3.67901048E-1	0.00000000E+0
56	02/09/2022	14:15:51.319	0.00000000E+0	-1.98968813E+1	5.00000000E+0	3.41575135E-1	0.00000000E+0
57	02/09/2022	14:15:52.703	0.00000000E+0	-1.96874929E+1	5.00000000E+0	3.15608502E-1	0.00000000E+0
58	02/09/2022	14:15:54.214	0.00000000E+0	-1.94777211E+1	5.00000000E+0	2.91337325E-1	0.00000000E+0
59	02/09/2022	14:15:55.610	0.00000000E+0	-1.92683327E+1	5.00000000E+0	2.81888917E-1	0.00000000E+0
60	02/09/2022	14:15:57.061	0.00000000E+0	-1.90589443E+1	5.00000000E+0	2.78271119E-1	0.00000000E+0
61	02/09/2022	14:15:58.548	0.00000000E+0	-1.88495559E+1	5.00000000E+0	2.78533198E-1	0.00000000E+0
62	02/09/2022	14:15:59.936	0.00000000E+0	-1.86401675E+1	5.00000000E+0	3.04862138E-1	0.00000000E+0
63	02/09/2022	14:16:01.464	0.00000000E+0	-1.84307792E+1	5.00000000E+0	3.19888108E-1	0.00000000E+0
64	02/09/2022	14:16:02.831	0.00000000E+0	-1.82213908E+1	5.00000000E+0	3.30819849E-1	0.00000000E+0
65	02/09/2022	14:16:04.215	0.00000000E+0	-1.80116189E+1	5.00000000E+0	3.62489779E-1	0.00000000E+0
66	02/09/2022	14:16:05.789	0.00000000E+0	-1.78022305E+1	5.00000000E+0	4.07225825E-1	0.00000000E+0
67	02/09/2022	14:16:07.176	0.00000000E+0	-1.75928422E+1	5.00000000E+0	4.34006017E-1	0.00000000E+0
68	02/09/2022	14:16:08.611	0.00000000E+0	-1.73834538E+1	5.00000000E+0	4.76275247E-1	0.00000000E+0
69	02/09/2022	14:16:10.161	0.00000000E+0	-1.71740654E+1	5.00000000E+0	5.13995719E-1	0.00000000E+0
70	02/09/2022	14:16:11.549	0.00000000E+0	-1.69646770E+1	5.00000000E+0	5.49532941E-1	0.00000000E+0
71	02/09/2022	14:16:12.996	0.00000000E+0	-1.67552887E+1	5.00000000E+0	5.71715846E-1	0.00000000E+0
72	02/09/2022	14:16:14.397	0.00000000E+0	-1.65459003E+1	5.00000000E+0	5.98352838E-1	0.00000000E+0
73	02/09/2022	14:16:15.783	0.00000000E+0	-1.63361284E+1	5.00000000E+0	6.16063075E-1	0.00000000E+0
74	02/09/2022	14:16:17.231	0.00000000E+0	-1.61267400E+1	5.00000000E+0	6.23627165E-1	0.00000000E+0
75	02/09/2022	14:16:18.617	0.00000000E+0	-1.59173516E+1	5.00000000E+0	6.32947340E-1	0.00000000E+0
76	02/09/2022	14:16:20.055	0.00000000E+0	-1.57079633E+1	5.00000000E+0	6.22504277E-1	0.00000000E+0
77	02/09/2022	14:16:21.483	0.00000000E+0	-1.54985749E+1	5.00000000E+0	6.10198638E-1	0.00000000E+0
78	02/09/2022	14:16:22.877	0.00000000E+0	-1.52891865E+1	5.00000000E+0	6.04547926E-1	0.00000000E+0
79	02/09/2022	14:16:24.395	0.00000000E+0	-1.50797981E+1	5.00000000E+0	5.71277439E-1	0.00000000E+0
80	02/09/2022	14:16:25.777	0.00000000E+0	-1.48700263E+1	5.00000000E+0	5.35697008E-1	0.00000000E+0
81	02/09/2022	14:16:27.216	0.00000000E+0	-1.46606379E+1	5.00000000E+0	5.05004658E-1	0.00000000E+0
82	02/09/2022	14:16:28.704	0.00000000E+0	-1.44512495E+1	5.00000000E+0	4.73273740E-1	0.00000000E+0
83	02/09/2022	14:16:30.088	0.00000000E+0	-1.42418611E+1	5.00000000E+0	4.37447969E-1	0.00000000E+0
84	02/09/2022	14:16:31.646	0.00000000E+0	-1.40324728E+1	5.00000000E+0	4.09392723E-1	0.00000000E+0
85	02/09/2022	14:16:33.038	0.00000000E+0	-1.38230844E+1	5.00000000E+0	3.71619567E-1	0.00000000E+0
86	02/09/2022	14:16:34.427	0.00000000E+0	-1.36136960E+1	5.00000000E+0	3.40518712E-1	0.00000000E+0
87	02/09/2022	14:16:35.921	0.00000000E+0	-1.34043076E+1	5.00000000E+0	3.13234006E-1	0.00000000E+0
88	02/09/2022	14:16:37.304	0.00000000E+0	-1.31945357E+1	5.00000000E+0	2.91726970E-1	0.00000000E+0
89	02/09/2022	14:16:38.696	0.00000000E+0	-1.29851474E+1	5.00000000E+0	2.83984881E-1	0.00000000E+0
90	02/09/2022	14:16:40.198	0.00000000E+0	-1.27757590E+1	5.00000000E+0	2.84019457E-1	0.00000000E+0
91	02/09/2022	14:16:41.578	0.00000000E+0	-1.25663706E+1	5.00000000E+0	2.76450056E-1	0.00000000E+0
92	02/09/2022	14:16:43.088	0.00000000E+0	-1.23569822E+1	5.00000000E+0	2.94293894E-1	0.00000000E+0
93	02/09/2022	14:16:44.470	0.00000000E+0	-1.21475939E+1	5.00000000E+0	3.15911623E-1	0.00000000E+0
94	02/09/2022	14:16:45.864	0.00000000E+0	-1.19382055E+1	5.00000000E+0	3.38409795E-1	0.00000000E+0
95	02/09/2022	14:16:47.356	0.00000000E+0	-1.17284336E+1	5.00000000E+0	3.62976811E-1	0.00000000E+0
96	02/09/2022	14:16:48.757	0.00000000E+0	-1.15190452E+1	5.00000000E+0	4.00282650E-1	0.00000000E+0
97	02/09/2022	14:16:50.200	0.00000000E+0	-1.13096569E+1	5.00000000E+0	4.34595414E-1	0.00000000E+0
98	02/09/2022	14:16:51.630	0.00000000E+0	-1.11002685E+1	5.00000000E+0	4.89070451E-1	0.00000000E+0
99	02/09/2022	14:16:53.013	0.00000000E+0	-1.08908801E+1	5.00000000E+0	5.22594712E-1	0.00000000E+0
100	02/09/2022	14:16:54.538	0.00000000E+0	-1.06814917E+1	5.00000000E+0	5.49029975E-1	0.00000000E+0
101	02/09/2022	14:16:55.918	0.00000000E+0	-1.04721033E+1	5.00000000E+0	5.68119677E-1	0.00000000E+0
102	02/09/2022	14:16:57.366	0.00000000E+0	-1.02627150E+1	5.00000000E+0	6.03971341E-1	0.00000000E+0
103	02/09/2022	14:16:58.856	0.00000000E+0	-1.00529431E+1	5.00000000E+0	6.15414519E-1	0.00000000E+0
104	02/09/2022	14:17:00.292	0.00000000E+0	-9.84355472E+0	5.00000000E+0	6.28191136E-1	0.00000000E+0
105	02/09/2022	14:17:01.758	0.00000000E+0	-9.63416634E+0	5.00000000E+0	6.33382682E-1	0.00000000E+0
106	02/09/2022	14:17:03.140	0.00000000E+0	-9.42477796E+0	5.00000000E+0	6.31531683E-1	0.00000000E+0
107	02/09/2022	14:17:04.521	0.00000000E+0	-9.21538958E+0	5.00000000E+0	6.21762511E-1	0.00000000E+0
108	02/09/2022	14:17:06.033	0.00000000E+0	-9.00600121E+0	5.00000000E+0	5.94910566E-1	0.00000000E+0
109	02/09/2022	14:17:07.428	0.00000000E+0	-8.79661283E+0	5.00000000E+0	5.85118105E-1	0.00000000E+0
110	02/09/2022	14:17:08.863	0.00000000E+0	-8.58684096E+0	5.00000000E+0	5.52078676E-1	0.00000000E+0
111	02/09/2022	14:17:10.277	0.00000000E+0	-8.37745258E+0	5.00000000E+0	5.20799224E-1	0.00000000E+0
112	02/09/2022	14:17:11.655	0.00000000E+0	-8.16806420E+0	5.00000000E+0	4.76826110E-1	0.00000000E+0
113	02/09/2022	14:17:13.165	0.00000000E+0	-7.95867582E+0	5.00000000E+0	4.39558153E-1	0.00000000E+0
114	02/09/2022	14:17:14.557	0.00000000E+0	-7.74928745E+0	5.00000000E+0	4.15097616E-1	0.00000000E+0
115	02/09/2022	14:17:15.936	0.00000000E+0	-7.53989907E+0	5.00000000E+0	3.74994650E-1	0.00000000E+0
116	02/09/2022	14:17:17.472	0.00000000E+0	-7.33051069E+0	5.00000000E+0	3.26344857E-1	0.00000000E+0
117	02/09/2022	14:17:18.877	0.00000000E+0	-7.12112231E+0	5.00000000E+0	3.07864419E-1	0.00000000E+0
118	02/09/2022	14:17:20.356	0.00000000E+0	-6.91135044E+0	5.00000000E+0	2.96956777E-1	0.00000000E+0
119	02/09/2022	14:17:21.770	0.00000000E+0	-6.70196206E+0	5.00000000E+0	2.81329548E-1	0.00000000E+0
120	02/09/2022	14:17:23.169	0.00000000E+0	-6.49257368E+0	5.00000000E+0	2.82326397E-1	0.00000000E+0
121	02/09/2022	14:17:24.646	0.00000000E+0	-6.28318531E+0	5.00000000E+0	2.86177689E-1	0.00000000E+0
122	02/09/2022	14:17:26.025	0.00000000E+0	-6.07379693E+0	5.00000000E+0	2.92939516E-1	0.00000000E+0
123	02/09/2022	14:17:27.441	0.00000000E+0	-5.86440855E+0	5.00000000E+0	3.20729165E-1	0.00000000E+0
124	02/09/2022	14:17:28.949	0.00000000E+0	-5.65502017E+0	5.00000000E+0	3.43897260E-1	0.00000000E+0
125	02/09/2022	14:17:30.349	0.00000000E+0	-5.44524830E+0	5.00000000E+0	3.61159037E-1	0.00000000E+0
126	02/09/2022	14:17:31.867	0.00000000E+0	-5.23585992E+0	5.00000000E+0	4.05308167E-1	0.00000000E+0
127	02/09/2022	14:17:33.247	0.00000000E+0	-5.02647155E+0	5.00000000E+0	4.25367876E-1	0.00000000E+0
128	02/09/2022	14:17:34.644	0.00000000E+0	-4.81708317E+0	5.00000000E+0	4.66817950E-1	0.00000000E+0
129	02/09/2022	14:17:36.110	0.00000000E+0	-4.60769479E+0	5.00000000E+0	5.09548649E-1	0.00000000E+0
130	02/09/2022	14:17:37.496	0.00000000E+0	-4.39830641E+0	5.00000000E+0	5.42984667E-1	0.00000000E+0
131	02/09/2022	14:17:38.928	0.00000000E+0	-4.18891804E+0	5.00000000E+0	5.72885086E-1	0.00000000E+0
132	02/09/2022	14:17:40.328	0.00000000E+0	-3.97952966E+0	5.00000000E+0	5.94250337E-1	0.00000000E+0
133	02/09/2022	14:17:41.710	0.00000000E+0	-3.76975779E+0	5.00000000E+0	6.16048610E-1	0.00000000E+0
134	02/09/2022	14:17:43.235	0.00000000E+0	-3.56036941E+0	5.00000000E+0	6.26687856E-1	0.00000000E+0
135	02/09/2022	14:17:44.641	0.00000000E+0	-3.35098103E+0	5.00000000E+0	6.31149799E-1	0.00000000E+0
136	02/09/2022	14:17:46.041	0.00000000E+0	-3.14159265E+0	5.00000000E+0	6.21413710E-1	0.00000000E+0
137	02/09/2022	14:17:47.532	0.00000000E+0	-2.93220428E+0	5.00000000E+0	6.10214761E-1	0.00000000E+0
138	02/09/2022	14:17:48.919	0.00000000E+0	-2.72281590E+0	5.00000000E+0	5.92593518E-1	0.00000000E+0
139	02/09/2022	14:17:50.429	0.00000000E+0	-2.51342752E+0	5.00000000E+0	5.64948039E-1	0.00000000E+0
140	02/09/2022	14:17:51.812	0.00000000E+0	-2.30365565E+0	5.00000000E+0	5.42159699E-1	0.00000000E+0
141	02/09/2022	14:17:53.183	0.00000000E+0	-2.09426727E+0	5.00000000E+0	5.14592876E-1	0.00000000E+0
142	02/09/2022	14:17:54.714	0.00000000E+0	-1.88487889E+0	5.00000000E+0	4.74247905E-1	0.00000000E+0
143	02/09/2022	14:17:56.101	0.00000000E+0	-1.67549052E+0	5.00000000E+0	4.46335675E-1	0.00000000E+0
144	02/09/2022	14:17:57.570	0.00000000E+0	-1.46610214E+0	5.00000000E+0	3.97081932E-1	0.00000000E+0
145	02/09/2022	14:17:59.051	0.00000000E+0	-1.25671376E+0	5.00000000E+0	3.72005903E-1	0.00000000E+0
146	02/09/2022	14:18:00.439	0.00000000E+0	-1.04732538E+0	5.00000000E+0	3.36127490E-1	0.00000000E+0
147	02/09/2022	14:18:01.974	0.00000000E+0	-8.37937005E-1	5.00000000E+0	3.10806105E-1	0.00000000E+0
148	02/09/2022	14:18:03.388	0.00000000E+0	-6.28165133E-1	5.00000000E+0	3.03121497E-1	0.00000000E+0
149	02/09/2022	14:18:04.769	0.00000000E+0	-4.18776755E-1	5.00000000E+0	2.82445142E-1	0.00000000E+0
150	02/09/2022	14:18:06.257	0.00000000E+0	-2.09388378E-1	5.00000000E+0	2.80515524E-1	0.00000000E+0
151	02/09/2022	14:18:07.638	0.00000000E+0	0.00000000E+0	5.00000000E+0	2.85941341E-1	0.00000000E+0
152	02/09/2022	14:18:09.113	0.00000000E+0	2.09388378E-1	5.00000000E+0	2.96591733E-1	0.00000000E+0
153	02/09/2022	14:18:10.594	0.00000000E+0	4.18776755E-1	5.00000000E+0	3.16402549E-1	0.00000000E+0
154	02/09/2022	14:18:11.982	0.00000000E+0	6.28165133E-1	5.00000000E+0	3.33878301E-1	0.00000000E+0
155	02/09/2022	14:18:13.474	0.00000000E+0	8.37937005E-1	5.00000000E+0	3.66920913E-1	0.00000000E+0
156	02/09/2022	14:18:14.862	0.00000000E+0	1.04732538E+0	5.00000000E+0	3.97010743E-1	0.00000000E+0
157	02/09/2022	14:18:16.345	0.00000000E+0	1.25671376E+0	5.00000000E+0	4.39414447E-1	0.00000000E+0
158	02/09/2022	14:18:17.844	0.00000000E+0	1.46610214E+0	5.00000000E+0	4.80807326E-1	0.00000000E+0
159	02/09/2022	14:18:19.251	0.00000000E+0	1.67549052E+0	5.00000000E+0	5.07872238E-1	0.00000000E+0
160	02/09/2022	14:18:20.798	0.00000000E+0	1.88487889E+0	5.00000000E+0	5.31209807E-1	0.00000000E+0
161	02/09/2022	14:18:22.185	0.00000000E+0	2.09426727E+0	5.00000000E+0	5.83598583E-1	0.00000000E+0
162	02/09/2022	14:18:23.587	0.00000000E+0	2.30365565E+0	5.00000000E+0	5.99156424E-1	0.00000000E+0
163	02/09/2022	14:18:25.101	0.00000000E+0	2.51342752E+0	5.00000000E+0	6.23888370E-1	0.00000000E+0
164	02/09/2022	14:18:26.486	0.00000000E+0	2.72281590E+0	5.00000000E+0	6.28352235E-1	0.00000000E+0
165	02/09/2022	14:18:27.953	0.00000000E+0	2.93220428E+0	5.00000000E+0	6.32434384E-1	0.00000000E+0
166	02/09/2022	14:18:29.332	0.00000000E+0	3.14159265E+0	5.00000000E+0	6.26846540E-1	0.00000000E+0
167	02/09/2022	14:18:30.719	0.00000000E+0	3.35098103E+0	5.00000000E+0	6.16179028E-1	0.00000000E+0
168	02/09/2022	14:18:32.221	0.00000000E+0	3.56036941E+0	5.00000000E+0	5.93687951E-1	0.00000000E+0
169	02/09/2022	14:18:33.603	0.00000000E+0	3.76975779E+0	5.00000000E+0	5.69933948E-1	0.00000000E+0
170	02/09/2022	14:18:35.040	0.00000000E+0	3.97952966E+0	5.00000000E+0	5.32360284E-1	0.00000000E+0
171	02/09/2022	14:18:36.529	0.00000000E+0	4.18891804E+0	5.00000000E+0	5.01518305E-1	0.00000000E+0
172	02/09/2022	14:18:37.932	0.00000000E+0	4.39830641E+0	5.00000000E+0	4.64950205E-1	0.00000000E+0
173	02/09/2022	14:18:39.453	0.00000000E+0	4.60769479E+0	5.00000000E+0	4.40268802E-1	0.00000000E+0
174	02/09/2022	14:18:40.865	0.00000000E+0	4.81708317E+0	5.00000000E+0	3.90572110E-1	0.00000000E+0
175	02/09/2022	14:18:42.253	0.00000000E+0	5.02647155E+0	5.00000000E+0	3.70053557E-1	0.00000000E+0
176	02/09/2022	14:18:43.730	0.00000000E+0	5.23585992E+0	5.00000000E+0	3.35621223E-1	0.00000000E+0
177	02/09/2022	14:18:45.116	0.00000000E+0	5.44524830E+0	5.00000000E+0	3.13200248E-1	0.00000000E+0
178	02/09/2022	14:18:46.497	0.00000000E+0	5.65502017E+0	5.00000000E+0	2.92203564E-1	0.00000000E+0
179	02/09/2022	14:18:47.983	0.00000000E+0	5.86440855E+0	5.00000000E+0	2.86706276E-1	0.00000000E+0
180	02/09/2022	14:18:49.387	0.00000000E+0	6.07379693E+0	5.00000000E+0	2.80643725E-1	0.00000000E+0
181	02/09/2022	14:18:50.937	0.00000000E+0	6.28318531E+0	5.00000000E+0	2.85470091E-1	0.00000000E+0
182	02/09/2022	14:18:52.316	0.00000000E+0	6.49257368E+0	5.00000000E+0	2.95527527E-1	0.00000000E+0
183	02/09/2022	14:18:53.698	0.00000000E+0	6.70196206E+0	5.00000000E+0	3.10497969E-1	0.00000000E+0
184	02/09/2022	14:18:55.185	0.00000000E+0	6.91135044E+0	5.00000000E+0	3.39217766E-1	0.00000000E+0
185	02/09/2022	14:18:56.581	0.00000000E+0	7.12112231E+0	5.00000000E+0	3.64208109E-1	0.00000000E+0
186	02/09/2022	14:18:58.005	0.00000000E+0	7.33051069E+0	5.00000000E+0	4.15029274E-1	0.00000000E+0
187	02/09/2022	14:18:59.399	0.00000000E+0	7.53989907E+0	5.00000000E+0	4.30628192E-1	0.00000000E+0
188	02/09/2022	14:19:00.778	0.00000000E+0	7.74928745E+0	5.00000000E+0	4.83921287E-1	0.00000000E+0
189	02/09/2022	14:19:02.299	0.00000000E+0	7.95867582E+0	5.00000000E+0	5.06091079E-1	0.00000000E+0
190	02/09/2022	14:19:03.679	0.00000000E+0	8.16806420E+0	5.00000000E+0	5.41061787E-1	0.00000000E+0
191	02/09/2022	14:19:05.115	0.00000000E+0	8.37745258E+0	5.00000000E+0	5.74638624E-1	0.00000000E+0
192	02/09/2022	14:19:06.643	0.00000000E+0	8.58684096E+0	5.00000000E+0	6.00286728E-1	0.00000000E+0
193	02/09/2022	14:19:08.024	0.00000000E+0	8.79661283E+0	5.00000000E+0	6.14904205E-1	0.00000000E+0
194	02/09/2022	14:19:09.491	0.00000000E+0	9.00600121E+0	5.00000000E+0	6.28386285E-1	0.00000000E+0
195	02/09/2022	14:19:10.884	0.00000000E+0	9.21538958E+0	5.00000000E+0	6.30916472E-1	0.00000000E+0
196	02/09/2022	14:19:12.268	0.00000000E+0	9.42477796E+0	5.00000000E+0	6.32362094E-1	0.00000000E+0
197	02/09/2022	14:19:13.726	0.00000000E+0	9.63416634E+0	5.00000000E+0	6.14989297E-1	0.00000000E+0
198	02/09/2022	14:19:15.131	0.00000000E+0	9.84355472E+0	5.00000000E+0	5.98963648E-1	0.00000000E+0
199	02/09/2022	14:19:16.507	0.00000000E+0	1.00529431E+1	5.00000000E+0	5.76225586E-1	0.00000000E+0
200	02/09/2022	14:19:17.996	0.00000000E+0	1.02627150E+1	5.00000000E+0	5.40935022E-1	0.00000000E+0
201	02/09/2022	14:19:19.414	0.00000000E+0	1.04721033E+1	5.00000000E+0	5.03316972E-1	0.00000000E+0
202	02/09/2022	14:19:20.918	0.00000000E+0	1.06814917E+1	5.00000000E+0	4.72935621E-1	0.00000000E+0
203	02/09/2022	14:19:22.312	0.00000000E+0	1.08908801E+1	5.00000000E+0	4.39686808E-1	0.00000000E+0
204	02/09/2022	14:19:23.696	0.00000000E+0	1.11002685E+1	5.00000000E+0	4.01389926E-1	0.00000000E+0
205	02/09/2022	14:19:25.189	0.00000000E+0	1.13096569E+1	5.00000000E+0	3.67012679E-1	0.00000000E+0
206	02/09/2022	14:19:26.570	0.00000000E+0	1.15190452E+1	5.00000000E+0	3.40522447E-1	0.00000000E+0
207	02/09/2022	14:19:28.117	0.00000000E+0	1.17284336E+1	5.00000000E+0	3.16634265E-1	0.00000000E+0
208	02/09/2022	14:19:29.505	0.00000000E+0	1.19382055E+1	5.00000000E+0	3.02042800E-1	0.00000000E+0
209	02/09/2022	14:19:30.896	0.00000000E+0	1.21475939E+1	5.00000000E+0	2.84375480E-1	0.00000000E+0
210	02/09/2022	14:19:32.367	0.00000000E+0	1.23569822E+1	5.00000000E+0	2.80798631E-1	0.00000000E+0
211	02/09/2022	14:19:33.759	0.00000000E+0	1.25663706E+1	5.00000000E+0	2.84190670E-1	0.00000000E+0
212	02/09/2022	14:19:35.198	0.00000000E+0	1.27757590E+1	5.00000000E+0	2.97367722E-1	0.00000000E+0
213	02/09/2022	14:19:36.710	0.00000000E+0	1.29851474E+1	5.00000000E+0	3.17750330E-1	0.00000000E+0
214	02/09/2022	14:19:38.096	0.00000000E+0	1.31945357E+1	5.00000000E+0	3.41943850E-1	0.00000000E+0
215	02/09/2022	14:19:39.568	0.00000000E+0	1.34043076E+1	5.00000000E+0	3.68789856E-1	0.00000000E+0
216	02/09/2022	14:19:40.945	0.00000000E+0	1.36136960E+1	5.00000000E+0	4.05418224E-1	0.00000000E+0
217	02/09/2022	14:19:42.381	0.00000000E+0	1.38230844E+1	5.00000000E+0	4.35204224E-1	0.00000000E+0
218	02/09/2022	14:19:43.910	0.00000000E+0	1.40324728E+1	5.00000000E+0	4.82763388E-1	0.00000000E+0
219	02/09/2022	14:19:45.309	0.00000000E+0	1.42418611E+1	5.00000000E+0	5.09692055E-1	0.00000000E+0
220	02/09/2022	14:19:46.737	0.00000000E+0	1.44512495E+1	5.00000000E+0	5.44747354E-1	0.00000000E+0
221	02/09/2022	14:19:48.141	0.00000000E+0	1.46606379E+1	5.00000000E+0	5.79097072E-1	0.00000000E+0
222	02/09/2022	14:19:49.541	0.00000000E+0	1.48700263E+1	5.00000000E+0	5.94104910E-1	0.00000000E+0
223	02/09/2022	14:19:51.079	0.00000000E+0	1.50797981E+1	5.00000000E+0	6.17410278E-1	0.00000000E+0
224	02/09/2022	14:19:52.459	0.00000000E+0	1.52891865E+1	5.00000000E+0	6.10907783E-1	0.00000000E+0
225	02/09/2022	14:19:53.909	0.00000000E+0	1.54985749E+1	5.00000000E+0	6.28228489E-1	0.00000000E+0
226	02/09/2022	14:19:55.407	0.00000000E+0	1.57079633E+1	5.00000000E+0	6.19211405E-1	0.00000000E+0
227	02/09/2022	14:19:56.789	0.00000000E+0	1.59173516E+1	5.00000000E+0	6.22402735E-1	0.00000000E+0
228	02/09/2022	14:19:58.269	0.00000000E+0	1.61267400E+1	5.00000000E+0	5.85466983E-1	0.00000000E+0
229	02/09/2022	14:19:59.664	0.00000000E+0	1.63361284E+1	5.00000000E+0	5.73418008E-1	0.00000000E+0
230	02/09/2022	14:20:01.047	0.00000000E+0	1.65459003E+1	5.00000000E+0	5.47021957E-1	0.00000000E+0
231	02/09/2022	14:20:02.499	0.00000000E+0	1.67552887E+1	5.00000000E+0	5.16023779E-1	0.00000000E+0
232	02/09/2022	14:20:03.871	0.00000000E+0	1.69646770E+1	5.00000000E+0	4.76243715E-1	0.00000000E+0
233	02/09/2022	14:20:05.330	0.00000000E+0	1.71740654E+1	5.00000000E+0	4.44129764E-1	0.00000000E+0
234	02/09/2022	14:20:06.817	0.00000000E+0	1.73834538E+1	5.00000000E+0	4.07722578E-1	0.00000000E+0
235	02/09/2022	14:20:08.198	0.00000000E+0	1.75928422E+1	5.00000000E+0	3.72043183E-1	0.00000000E+0
236	02/09/2022	14:20:09.699	0.00000000E+0	1.78022305E+1	5.00000000E+0	3.36306110E-1	0.00000000E+0
237	02/09/2022	14:20:11.100	0.00000000E+0	1.80116189E+1	5.00000000E+0	3.13411855E-1	0.00000000E+0
238	02/09/2022	14:20:12.468	0.00000000E+0	1.82213908E+1	5.00000000E+0	3.06069540E-1	0.00000000E+0
239	02/09/2022	14:20:13.923	0.00000000E+0	1.84307792E+1	5.00000000E+0	2.88338902E-1	0.00000000E+0
240	02/09/2022	14:20:15.305	0.00000000E+0	1.86401675E+1	5.00000000E+0	2.79439604E-1	0.00000000E+0
241	02/09/2022	14:20:16.757	0.00000000E+0	1.88495559E+1	5.00000000E+0	2.87726882E-1	0.00000000E+0
242	02/09/2022	14:20:18.151	0.00000000E+0	1.90589443E+1	5.00000000E+0	2.96508584E-1	0.00000000E+0
243	02/09/2022	14:20:19.532	0.00000000E+0	1.92683327E+1	5.00000000E+0	3.16381889E-1	0.00000000E+0
244	02/09/2022	14:20:21.064	0.00000000E+0	1.94777211E+1	5.00000000E+0	3.42837463E-1	0.00000000E+0
245	02/09/2022	14:20:22.451	0.00000000E+0	1.96874929E+1	5.00000000E+0	3.70684898E-1	0.00000000E+0
246	02/09/2022	14:20:23.859	0.00000000E+0	1.98968813E+1	5.00000000E+0	3.93806986E-1	0.00000000E+0
247	02/09/2022	14:20:25.360	0.00000000E+0	2.01062697E+1	5.00000000E+0	4.32668867E-1	0.00000000E+0
248	02/09/2022	14:20:26.780	0.00000000E+0	2.03156581E+1	5.00000000E+0	4.76835205E-1	0.00000000E+0
249	02/09/2022	14:20:28.304	0.00000000E+0	2.05250464E+1	5.00000000E+0	5.08310370E-1	0.00000000E+0
250	02/09/2022	14:20:29.687	0.00000000E+0	2.07344348E+1	5.00000000E+0	5.40170736E-1	0.00000000E+0
251	02/09/2022	14:20:31.067	0.00000000E+0	2.09438232E+1	5.00000000E+0	5.62301372E-1	0.00000000E+0
252	02/09/2022	14:20:32.523	0.00000000E+0	2.11532116E+1	5.00000000E+0	6.03686126E-1	0.00000000E+0
253	02/09/2022	14:20:33.914	0.00000000E+0	2.13629834E+1	5.00000000E+0	6.14432427E-1	0.00000000E+0
254	02/09/2022	14:20:35.357	0.00000000E+0	2.15723718E+1	5.00000000E+0	6.29605039E-1	0.00000000E+0
255	02/09/2022	14:20:36.865	0.00000000E+0	2.17817602E+1	5.00000000E+0	6.29352644E-1	0.00000000E+0
256	02/09/2022	14:20:38.259	0.00000000E+0	2.19911486E+1	5.00000000E+0	6.24752436E-1	0.00000000E+0
257	02/09/2022	14:20:39.805	0.00000000E+0	2.22005370E+1	5.00000000E+0	6.15647965E-1	0.00000000E+0
258	02/09/2022	14:20:41.185	0.00000000E+0	2.24099253E+1	5.00000000E+0	5.98621608E-1	0.00000000E+0
259	02/09/2022	14:20:42.561	0.00000000E+0	2.26193137E+1	5.00000000E+0	5.77307622E-1	0.00000000E+0
260	02/09/2022	14:20:44.031	0.00000000E+0	2.28290856E+1	5.00000000E+0	5.48342925E-1	0.00000000E+0
261	02/09/2022	14:20:45.414	0.00000000E+0	2.30384740E+1	5.00000000E+0	5.29127490E-1	0.00000000E+0
262	02/09/2022	14:20:46.898	0.00000000E+0	2.32478623E+1	5.00000000E+0	4.74658681E-1	0.00000000E+0
263	02/09/2022	14:20:48.326	0.00000000E+0	2.34572507E+1	5.00000000E+0	4.46878414E-1	0.00000000E+0
264	02/09/2022	14:20:49.723	0.00000000E+0	2.36666391E+1	5.00000000E+0	3.92988745E-1	0.00000000E+0
265	02/09/2022	14:20:51.262	0.00000000E+0	2.38760275E+1	5.00000000E+0	3.69772062E-1	0.00000000E+0
266	02/09/2022	14:20:52.635	0.00000000E+0	2.40854158E+1	5.00000000E+0	3.43171507E-1	0.00000000E+0
267	02/09/2022	14:20:54.081	0.00000000E+0	2.42948042E+1	5.00000000E+0	3.08438776E-1	0.00000000E+0
268	02/09/2022	14:20:55.572	0.00000000E+0	2.45045761E+1	5.00000000E+0	2.91565406E-1	0.00000000E+0
269	02/09/2022	14:20:56.967	0.00000000E+0	2.47139645E+1	5.00000000E+0	2.86744101E-1	0.00000000E+0
270	02/09/2022	14:20:58.397	0.00000000E+0	2.49233529E+1	5.00000000E+0	2.82141200E-1	0.00000000E+0
271	02/09/2022	14:20:59.777	0.00000000E+0	2.51327412E+1	5.00000000E+0	2.81565881E-1	0.00000000E+0
272	02/09/2022	14:21:01.162	0.00000000E+0	2.53421296E+1	5.00000000E+0	2.96271382E-1	0.00000000E+0
273	02/09/2022	14:21:02.715	0.00000000E+0	2.55515180E+1	5.00000000E+0	3.11803680E-1	0.00000000E+0
274	02/09/2022	14:21:04.097	0.00000000E+0	2.57609064E+1	5.00000000E+0	3.36262455E-1	0.00000000E+0
275	02/09/2022	14:21:05.584	0.00000000E+0	2.59706782E+1	5.00000000E+0	3.63626340E-1	0.00000000E+0
276	02/09/2022	14:21:07.026	0.00000000E+0	2.61800666E+1	5.00000000E+0	4.09007061E-1	0.00000000E+0
277	02/09/2022	14:21:08.443	0.00000000E+0	2.63894550E+1	5.00000000E+0	4.44014985E-1	0.00000000E+0
278	02/09/2022	14:21:09.984	0.00000000E+0	2.65988434E+1	5.00000000E+0	4.73557347E-1	0.00000000E+0
279	02/09/2022	14:21:11.365	0.00000000E+0	2.68082317E+1	5.00000000E+0	5.06770861E-1	0.00000000E+0
280	02/09/2022	14:21:12.804	0.00000000E+0	2.70176201E+1	5.00000000E+0	5.38534306E-1	0.00000000E+0
281	02/09/2022	14:21:14.304	0.00000000E+0	2.72270085E+1	5.00000000E+0	5.72879385E-1	0.00000000E+0
282	02/09/2022	14:21:15.685	0.00000000E+0	2.74363969E+1	5.00000000E+0	5.93652557E-1	0.00000000E+0
283	02/09/2022	14:21:17.179	0.00000000E+0	2.76461687E+1	5.00000000E+0	6.14023769E-1	0.00000000E+0
284	02/09/2022	14:21:18.597	0.00000000E+0	2.78555571E+1	5.00000000E+0	6.26866006E-1	0.00000000E+0
285	02/09/2022	14:21:19.987	0.00000000E+0	2.80649455E+1	5.00000000E+0	6.27596304E-1	0.00000000E+0
286	02/09/2022	14:21:21.514	0.00000000E+0	2.82743339E+1	5.00000000E+0	6.31400697E-1	0.00000000E+0
287	02/09/2022	14:21:22.906	0.00000000E+0	2.84837223E+1	5.00000000E+0	6.05617348E-1	0.00000000E+0
288	02/09/2022	14:21:24.306	0.00000000E+0	2.86931106E+1	5.00000000E+0	5.87324152E-1	0.00000000E+0
289	02/09/2022	14:21:25.818	0.00000000E+0	2.89024990E+1	5.00000000E+0	5.71709771E-1	0.00000000E+0
290	02/09/2022	14:21:27.208	0.00000000E+0	2.91122709E+1	5.00000000E+0	5.52549822E-1	0.00000000E+0
291	02/09/2022	14:21:28.679	0.00000000E+0	2.93216593E+1	5.00000000E+0	5.21511426E-1	0.00000000E+0
292	02/09/2022	14:21:30.068	0.00000000E+0	2.95310476E+1	5.00000000E+0	4.77047193E-1	0.00000000E+0
293	02/09/2022	14:21:31.477	0.00000000E+0	2.97404360E+1	5.00000000E+0	4.44846137E-1	0.00000000E+0
294	02/09/2022	14:21:33.030	0.00000000E+0	2.99498244E+1	5.00000000E+0	4.09491780E-1	0.00000000E+0
295	02/09/2022	14:21:34.408	0.00000000E+0	3.01592128E+1	5.00000000E+0	3.78831000E-1	0.00000000E+0
296	02/09/2022	14:21:35.834	0.00000000E+0	3.03686012E+1	5.00000000E+0	3.42544190E-1	0.00000000E+0
297	02/09/2022	14:21:37.180	0.00000000E+0	3.05779895E+1	5.00000000E+0	3.18091265E-1	0.00000000E+0
298	02/09/2022	14:21:38.582	0.00000000E+0	3.07877614E+1	5.00000000E+0	2.96554312E-1	0.00000000E+0
299	02/09/2022	14:21:40.097	0.00000000E+0	3.09971498E+1	5.00000000E+0	2.87381324E-1	0.00000000E+0
300	02/09/2022	14:21:41.484	0.00000000E+0	3.12065382E+1	5.00000000E+0	2.80512853E-1	0.00000000E+0
301	02/09/2022	14:21:42.918	0.00000000E+0	3.14159265E+1	5.00000000E+0	2.79041354E-1	0.00000000E+0
