#Iteration	Date	Time	Chirp	Phase	RamanAxis	RTPhase	NFringe	Ratio
1	02/09/2022	14:14:31.391	0.00000000E+0	-3.14159265E+1	5.00000000E+0	2.19551000E+0	-6.30000000E+2	2.75851802E-1
2	02/09/2022	14:14:32.761	0.00000000E+0	-3.12065382E+1	5.00000000E+0	2.40067993E+0	-6.30000000E+2	2.91339935E-1
3	02/09/2022	14:14:34.259	0.00000000E+0	-3.09971498E+1	5.00000000E+0	2.31631099E-1	-6.30000000E+2	3.07732515E-1
4	02/09/2022	14:14:35.633	0.00000000E+0	-3.07877614E+1	5.00000000E+0	2.17518476E+0	-6.30000000E+2	3.36288926E-1
5	02/09/2022	14:14:37.075	0.00000000E+0	-3.05779895E+1	5.00000000E+0	5.69336969E+0	-6.31000000E+2	3.59673279E-1
6	02/09/2022	14:14:38.559	0.00000000E+0	-3.03686012E+1	5.00000000E+0	4.02785005E+0	-6.30000000E+2	3.99630006E-1
7	02/09/2022	14:14:39.947	0.00000000E+0	-3.01592128E+1	5.00000000E+0	2.90037417E+0	-6.30000000E+2	4.32305444E-1
8	02/09/2022	14:14:41.435	0.00000000E+0	-2.99498244E+1	5.00000000E+0	4.39945690E+0	-6.30000000E+2	4.78166833E-1
9	02/09/2022	14:14:42.942	0.00000000E+0	-2.97404360E+1	5.00000000E+0	3.91011703E+0	-6.30000000E+2	5.01953498E-1
10	02/09/2022	14:14:44.367	0.00000000E+0	-2.95310476E+1	5.00000000E+0	4.37606369E+0	-6.30000000E+2	5.49028580E-1
11	02/09/2022	14:14:45.924	0.00000000E+0	-2.93216593E+1	5.00000000E+0	1.91670899E+0	-6.30000000E+2	5.75002299E-1
12	02/09/2022	14:14:47.687	0.00000000E+0	-2.91122709E+1	5.00000000E+0	3.71683545E+0	-6.30000000E+2	6.03212446E-1
13	02/09/2022	14:14:49.070	0.00000000E+0	-2.89024990E+1	5.00000000E+0	1.41931572E+0	-6.30000000E+2	6.15602452E-1
14	02/09/2022	14:14:50.599	0.00000000E+0	-2.86931106E+1	5.00000000E+0	1.50253418E+0	-6.30000000E+2	6.23054520E-1
15	02/09/2022	14:14:52.002	0.00000000E+0	-2.84837223E+1	5.00000000E+0	4.53598119E+0	-6.31000000E+2	6.30083135E-1
16	02/09/2022	14:14:53.507	0.00000000E+0	-2.82743339E+1	5.00000000E+0	4.11643744E+0	-6.31000000E+2	6.27807925E-1
17	02/09/2022	14:14:54.892	0.00000000E+0	-2.80649455E+1	5.00000000E+0	3.81846168E+0	-6.30000000E+2	6.15551758E-1
18	02/09/2022	14:14:56.320	0.00000000E+0	-2.78555571E+1	5.00000000E+0	3.58299563E+0	-6.30000000E+2	5.96368190E-1
19	02/09/2022	14:14:57.922	0.00000000E+0	-2.76461687E+1	5.00000000E+0	1.25556327E+0	-6.30000000E+2	5.74508914E-1
20	02/09/2022	14:14:59.313	0.00000000E+0	-2.74363969E+1	5.00000000E+0	9.74844791E-1	-6.30000000E+2	5.44472753E-1
21	02/09/2022	14:15:00.756	0.00000000E+0	-2.72270085E+1	5.00000000E+0	6.12595228E+0	-6.31000000E+2	5.03776938E-1
22	02/09/2022	14:15:02.152	0.00000000E+0	-2.70176201E+1	5.00000000E+0	4.87920939E+0	-6.30000000E+2	4.70135109E-1
23	02/09/2022	14:15:03.598	0.00000000E+0	-2.68082317E+1	5.00000000E+0	5.33058324E-2	-6.30000000E+2	4.36828835E-1
24	02/09/2022	14:15:05.113	0.00000000E+0	-2.65988434E+1	5.00000000E+0	5.12387933E+0	-6.30000000E+2	4.03193570E-1
25	02/09/2022	14:15:06.558	0.00000000E+0	-2.63894550E+1	5.00000000E+0	5.62664153E+0	-6.31000000E+2	3.65536683E-1
26	02/09/2022	14:15:08.014	0.00000000E+0	-2.61800666E+1	5.00000000E+0	4.95015600E+0	-6.31000000E+2	3.43669239E-1
27	02/09/2022	14:15:09.556	0.00000000E+0	-2.59706782E+1	5.00000000E+0	5.97485517E-1	-6.30000000E+2	3.14713739E-1
28	02/09/2022	14:15:10.952	0.00000000E+0	-2.57609064E+1	5.00000000E+0	4.00215588E+0	-6.30000000E+2	2.95313328E-1
29	02/09/2022	14:15:12.487	0.00000000E+0	-2.55515180E+1	5.00000000E+0	5.21630167E+0	-6.31000000E+2	2.84507453E-1
30	02/09/2022	14:15:13.876	0.00000000E+0	-2.53421296E+1	5.00000000E+0	6.12058334E+0	-6.30000000E+2	2.88094823E-1
31	02/09/2022	14:15:15.339	0.00000000E+0	-2.51327412E+1	5.00000000E+0	5.36087936E+0	-6.30000000E+2	2.85049553E-1
32	02/09/2022	14:15:16.842	0.00000000E+0	-2.49233529E+1	5.00000000E+0	4.85351521E+0	-6.30000000E+2	2.85645962E-1
33	02/09/2022	14:15:18.286	0.00000000E+0	-2.47139645E+1	5.00000000E+0	4.61804916E+0	-6.31000000E+2	3.05552326E-1
34	02/09/2022	14:15:19.759	0.00000000E+0	-2.45045761E+1	5.00000000E+0	4.42591807E+0	-6.30000000E+2	3.38335616E-1
35	02/09/2022	14:15:21.235	0.00000000E+0	-2.42948042E+1	5.00000000E+0	3.08253439E+0	-6.30000000E+2	3.62610315E-1
36	02/09/2022	14:15:22.627	0.00000000E+0	-2.40854158E+1	5.00000000E+0	1.06036422E+0	-6.30000000E+2	4.06671058E-1
37	02/09/2022	14:15:24.147	0.00000000E+0	-2.38760275E+1	5.00000000E+0	3.20601985E-1	-6.29000000E+2	4.29098538E-1
38	02/09/2022	14:15:25.543	0.00000000E+0	-2.36666391E+1	5.00000000E+0	6.13170470E+0	-6.31000000E+2	4.81017995E-1
39	02/09/2022	14:15:26.926	0.00000000E+0	-2.34572507E+1	5.00000000E+0	5.66192309E+0	-6.30000000E+2	4.97287220E-1
40	02/09/2022	14:15:28.421	0.00000000E+0	-2.32478623E+1	5.00000000E+0	2.74045668E+0	-6.30000000E+2	5.45275500E-1
41	02/09/2022	14:15:29.815	0.00000000E+0	-2.30384740E+1	5.00000000E+0	6.03276294E+0	-6.31000000E+2	5.68123876E-1
42	02/09/2022	14:15:31.289	0.00000000E+0	-2.28290856E+1	5.00000000E+0	5.09550068E+0	-6.31000000E+2	6.06608061E-1
43	02/09/2022	14:15:32.744	0.00000000E+0	-2.26193137E+1	5.00000000E+0	4.77144724E+0	-6.31000000E+2	6.21349883E-1
44	02/09/2022	14:15:34.120	0.00000000E+0	-2.24099253E+1	5.00000000E+0	8.41388462E-1	-6.30000000E+2	6.34093030E-1
45	02/09/2022	14:15:35.597	0.00000000E+0	-2.22005370E+1	5.00000000E+0	4.74383559E+0	-6.30000000E+2	6.39006138E-1
46	02/09/2022	14:15:36.992	0.00000000E+0	-2.19911486E+1	5.00000000E+0	4.68362684E+0	-6.31000000E+2	6.32734061E-1
47	02/09/2022	14:15:38.432	0.00000000E+0	-2.17817602E+1	5.00000000E+0	4.56551032E+0	-6.30000000E+2	6.20703526E-1
48	02/09/2022	14:15:39.922	0.00000000E+0	-2.15723718E+1	5.00000000E+0	2.56213141E+0	-6.30000000E+2	6.04463758E-1
49	02/09/2022	14:15:41.296	0.00000000E+0	-2.13629834E+1	5.00000000E+0	5.87284545E+0	-6.30000000E+2	5.73840604E-1
50	02/09/2022	14:15:42.753	0.00000000E+0	-2.11532116E+1	5.00000000E+0	4.41709768E+0	-6.30000000E+2	5.48469481E-1
51	02/09/2022	14:15:44.146	0.00000000E+0	-2.09438232E+1	5.00000000E+0	4.39370447E+0	-6.31000000E+2	5.14574022E-1
52	02/09/2022	14:15:45.528	0.00000000E+0	-2.07344348E+1	5.00000000E+0	6.01320469E-1	-6.30000000E+2	4.73970830E-1
53	02/09/2022	14:15:47.087	0.00000000E+0	-2.05250464E+1	5.00000000E+0	4.89454920E+0	-6.30000000E+2	4.48230342E-1
54	02/09/2022	14:15:48.488	0.00000000E+0	-2.03156581E+1	5.00000000E+0	5.37008324E+0	-6.31000000E+2	3.96932537E-1
55	02/09/2022	14:15:49.930	0.00000000E+0	-2.01062697E+1	5.00000000E+0	2.29982070E+0	-6.30000000E+2	3.67901048E-1
56	02/09/2022	14:15:51.319	0.00000000E+0	-1.98968813E+1	5.00000000E+0	5.90352506E+0	-6.31000000E+2	3.41575135E-1
57	02/09/2022	14:15:52.703	0.00000000E+0	-1.96874929E+1	5.00000000E+0	4.85313172E+0	-6.30000000E+2	3.15608502E-1
58	02/09/2022	14:15:54.214	0.00000000E+0	-1.94777211E+1	5.00000000E+0	5.12042787E+0	-6.30000000E+2	2.91337325E-1
59	02/09/2022	14:15:55.610	0.00000000E+0	-1.92683327E+1	5.00000000E+0	1.41164582E+0	-6.30000000E+2	2.81888917E-1
60	02/09/2022	14:15:57.061	0.00000000E+0	-1.90589443E+1	5.00000000E+0	3.91663645E+0	-6.31000000E+2	2.78271119E-1
61	02/09/2022	14:15:58.548	0.00000000E+0	-1.88495559E+1	5.00000000E+0	4.44202487E+0	-6.30000000E+2	2.78533198E-1
62	02/09/2022	14:15:59.936	0.00000000E+0	-1.86401675E+1	5.00000000E+0	4.29207824E+0	-6.31000000E+2	3.04862138E-1
63	02/09/2022	14:16:01.464	0.00000000E+0	-1.84307792E+1	5.00000000E+0	5.46212209E+0	-6.30000000E+2	3.19888108E-1
64	02/09/2022	14:16:02.831	0.00000000E+0	-1.82213908E+1	5.00000000E+0	5.71637941E+0	-6.30000000E+2	3.30819849E-1
65	02/09/2022	14:16:04.215	0.00000000E+0	-1.80116189E+1	5.00000000E+0	7.94218553E-1	-6.30000000E+2	3.62489779E-1
66	02/09/2022	14:16:05.789	0.00000000E+0	-1.78022305E+1	5.00000000E+0	3.93351024E+0	-6.30000000E+2	4.07225825E-1
67	02/09/2022	14:16:07.176	0.00000000E+0	-1.75928422E+1	5.00000000E+0	4.08882579E+0	-6.30000000E+2	4.34006017E-1
68	02/09/2022	14:16:08.611	0.00000000E+0	-1.73834538E+1	5.00000000E+0	5.60209784E+0	-6.31000000E+2	4.76275247E-1
69	02/09/2022	14:16:10.161	0.00000000E+0	-1.71740654E+1	5.00000000E+0	2.42368964E-1	-6.30000000E+2	5.13995719E-1
70	02/09/2022	14:16:11.549	0.00000000E+0	-1.69646770E+1	5.00000000E+0	5.13615117E+0	-6.30000000E+2	5.49532941E-1
71	02/09/2022	14:16:12.996	0.00000000E+0	-1.67552887E+1	5.00000000E+0	2.75656348E+0	-6.30000000E+2	5.71715846E-1
72	02/09/2022	14:16:14.397	0.00000000E+0	-1.65459003E+1	5.00000000E+0	4.62686955E+0	-6.31000000E+2	5.98352838E-1
73	02/09/2022	14:16:15.783	0.00000000E+0	-1.63361284E+1	5.00000000E+0	4.00522384E+0	-6.30000000E+2	6.16063075E-1
74	02/09/2022	14:16:17.231	0.00000000E+0	-1.61267400E+1	5.00000000E+0	5.80841825E+0	-6.31000000E+2	6.23627165E-1
75	02/09/2022	14:16:18.617	0.00000000E+0	-1.59173516E+1	5.00000000E+0	5.79998136E+0	-6.30000000E+2	6.32947340E-1
76	02/09/2022	14:16:20.055	0.00000000E+0	-1.57079633E+1	5.00000000E+0	4.05891316E+0	-6.31000000E+2	6.22504277E-1
77	02/09/2022	14:16:21.483	0.00000000E+0	-1.54985749E+1	5.00000000E+0	2.49923820E+0	-6.30000000E+2	6.10198638E-1
78	02/09/2022	14:16:22.877	0.00000000E+0	-1.52891865E+1	5.00000000E+0	3.92315587E-1	-6.30000000E+2	6.04547926E-1
79	02/09/2022	14:16:24.395	0.00000000E+0	-1.50797981E+1	5.00000000E+0	4.77183074E+0	-6.31000000E+2	5.71277439E-1
80	02/09/2022	14:16:25.777	0.00000000E+0	-1.48700263E+1	5.00000000E+0	4.54786954E+0	-6.30000000E+2	5.35697008E-1
81	02/09/2022	14:16:27.216	0.00000000E+0	-1.46606379E+1	5.00000000E+0	4.69589869E+0	-6.31000000E+2	5.05004658E-1
82	02/09/2022	14:16:28.704	0.00000000E+0	-1.44512495E+1	5.00000000E+0	5.12119486E+0	-6.30000000E+2	4.73273740E-1
83	02/09/2022	14:16:30.088	0.00000000E+0	-1.42418611E+1	5.00000000E+0	4.43934040E+0	-6.31000000E+2	4.37447969E-1
84	02/09/2022	14:16:31.646	0.00000000E+0	-1.40324728E+1	5.00000000E+0	5.37046674E+0	-6.31000000E+2	4.09392723E-1
85	02/09/2022	14:16:33.038	0.00000000E+0	-1.38230844E+1	5.00000000E+0	4.68132587E+0	-6.30000000E+2	3.71619567E-1
86	02/09/2022	14:16:34.427	0.00000000E+0	-1.36136960E+1	5.00000000E+0	3.99717044E+0	-6.31000000E+2	3.40518712E-1
87	02/09/2022	14:16:35.921	0.00000000E+0	-1.34043076E+1	5.00000000E+0	1.39323805E+0	-6.30000000E+2	3.13234006E-1
88	02/09/2022	14:16:37.304	0.00000000E+0	-1.31945357E+1	5.00000000E+0	5.64543279E+0	-6.31000000E+2	2.91726970E-1
89	02/09/2022	14:16:38.696	0.00000000E+0	-1.29851474E+1	5.00000000E+0	4.79905889E+0	-6.30000000E+2	2.83984881E-1
90	02/09/2022	14:16:40.198	0.00000000E+0	-1.27757590E+1	5.00000000E+0	5.77352019E+0	-6.30000000E+2	2.84019457E-1
91	02/09/2022	14:16:41.578	0.00000000E+0	-1.25663706E+1	5.00000000E+0	2.72971881E+0	-6.30000000E+2	2.76450056E-1
92	02/09/2022	14:16:43.088	0.00000000E+0	-1.23569822E+1	5.00000000E+0	6.19536491E+0	-6.31000000E+2	2.94293894E-1
93	02/09/2022	14:16:44.470	0.00000000E+0	-1.21475939E+1	5.00000000E+0	5.14458807E+0	-6.31000000E+2	3.15911623E-1
94	02/09/2022	14:16:45.864	0.00000000E+0	-1.19382055E+1	5.00000000E+0	5.14152011E+0	-6.30000000E+2	3.38409795E-1
95	02/09/2022	14:16:47.356	0.00000000E+0	-1.17284336E+1	5.00000000E+0	5.10432107E+0	-6.30000000E+2	3.62976811E-1
96	02/09/2022	14:16:48.757	0.00000000E+0	-1.15190452E+1	5.00000000E+0	4.90873852E-2	-6.30000000E+2	4.00282650E-1
97	02/09/2022	14:16:50.200	0.00000000E+0	-1.13096569E+1	5.00000000E+0	2.80373339E+0	-6.30000000E+2	4.34595414E-1
98	02/09/2022	14:16:51.630	0.00000000E+0	-1.11002685E+1	5.00000000E+0	4.21116076E+0	-6.31000000E+2	4.89070451E-1
99	02/09/2022	14:16:53.013	0.00000000E+0	-1.08908801E+1	5.00000000E+0	3.85374323E+0	-6.30000000E+2	5.22594712E-1
100	02/09/2022	14:16:54.538	0.00000000E+0	-1.06814917E+1	5.00000000E+0	7.63155442E-1	-6.30000000E+2	5.49029975E-1
101	02/09/2022	14:16:55.918	0.00000000E+0	-1.04721033E+1	5.00000000E+0	5.76163184E+0	-6.31000000E+2	5.68119677E-1
102	02/09/2022	14:16:57.366	0.00000000E+0	-1.02627150E+1	5.00000000E+0	8.88558371E-1	-6.30000000E+2	6.03971341E-1
103	02/09/2022	14:16:58.856	0.00000000E+0	-1.00529431E+1	5.00000000E+0	4.50491808E+0	-6.30000000E+2	6.15414519E-1
104	02/09/2022	14:17:00.292	0.00000000E+0	-9.84355472E+0	5.00000000E+0	4.71699092E-2	-6.30000000E+2	6.28191136E-1
105	02/09/2022	14:17:01.758	0.00000000E+0	-9.63416634E+0	5.00000000E+0	3.95153451E+0	-6.31000000E+2	6.33382682E-1
106	02/09/2022	14:17:03.140	0.00000000E+0	-9.42477796E+0	5.00000000E+0	3.16345188E+0	-6.30000000E+2	6.31531683E-1
107	02/09/2022	14:17:04.521	0.00000000E+0	-9.21538958E+0	5.00000000E+0	4.92906377E+0	-6.30000000E+2	6.21762511E-1
108	02/09/2022	14:17:06.033	0.00000000E+0	-9.00600121E+0	5.00000000E+0	1.55660700E+0	-6.30000000E+2	5.94910566E-1
109	02/09/2022	14:17:07.428	0.00000000E+0	-8.79661283E+0	5.00000000E+0	3.64243738E+0	-6.30000000E+2	5.85118105E-1
110	02/09/2022	14:17:08.863	0.00000000E+0	-8.58684096E+0	5.00000000E+0	2.20126243E-1	-6.30000000E+2	5.52078676E-1
111	02/09/2022	14:17:10.277	0.00000000E+0	-8.37745258E+0	5.00000000E+0	5.89048623E-1	-6.30000000E+2	5.20799224E-1
112	02/09/2022	14:17:11.655	0.00000000E+0	-8.16806420E+0	5.00000000E+0	5.05561718E+0	-6.31000000E+2	4.76826110E-1
113	02/09/2022	14:17:13.165	0.00000000E+0	-7.95867582E+0	5.00000000E+0	5.49548617E+0	-6.31000000E+2	4.39558153E-1
114	02/09/2022	14:17:14.557	0.00000000E+0	-7.74928745E+0	5.00000000E+0	3.78126264E+0	-6.30000000E+2	4.15097616E-1
115	02/09/2022	14:17:15.936	0.00000000E+0	-7.53989907E+0	5.00000000E+0	8.10708846E-1	-6.30000000E+2	3.74994650E-1
116	02/09/2022	14:17:17.472	0.00000000E+0	-7.33051069E+0	5.00000000E+0	4.28018989E+0	-6.30000000E+2	3.26344857E-1
117	02/09/2022	14:17:18.877	0.00000000E+0	-7.12112231E+0	5.00000000E+0	3.01734021E+0	-6.30000000E+2	3.07864419E-1
118	02/09/2022	14:17:20.356	0.00000000E+0	-6.91135044E+0	5.00000000E+0	2.67449550E+0	-6.30000000E+2	2.96956777E-1
119	02/09/2022	14:17:21.770	0.00000000E+0	-6.70196206E+0	5.00000000E+0	3.31761695E+0	-6.30000000E+2	2.81329548E-1
120	02/09/2022	14:17:23.169	0.00000000E+0	-6.49257368E+0	5.00000000E+0	4.73846665E+0	-6.30000000E+2	2.82326397E-1
121	02/09/2022	14:17:24.646	0.00000000E+0	-6.28318531E+0	5.00000000E+0	2.06780610E+0	-6.30000000E+2	2.86177689E-1
122	02/09/2022	14:17:26.025	0.00000000E+0	-6.07379693E+0	5.00000000E+0	4.73539869E+0	-6.31000000E+2	2.92939516E-1
123	02/09/2022	14:17:27.441	0.00000000E+0	-5.86440855E+0	5.00000000E+0	4.59312197E+0	-6.31000000E+2	3.20729165E-1
124	02/09/2022	14:17:28.949	0.00000000E+0	-5.65502017E+0	5.00000000E+0	4.38603457E+0	-6.31000000E+2	3.43897260E-1
125	02/09/2022	14:17:30.349	0.00000000E+0	-5.44524830E+0	5.00000000E+0	1.30158270E+0	-6.30000000E+2	3.61159037E-1
126	02/09/2022	14:17:31.867	0.00000000E+0	-5.23585992E+0	5.00000000E+0	3.91088402E+0	-6.31000000E+2	4.05308167E-1
127	02/09/2022	14:17:33.247	0.00000000E+0	-5.02647155E+0	5.00000000E+0	1.85956821E+0	-6.30000000E+2	4.25367876E-1
128	02/09/2022	14:17:34.644	0.00000000E+0	-4.81708317E+0	5.00000000E+0	5.96066585E+0	-6.31000000E+2	4.66817950E-1
129	02/09/2022	14:17:36.110	0.00000000E+0	-4.60769479E+0	5.00000000E+0	4.78141812E+0	-6.31000000E+2	5.09548649E-1
130	02/09/2022	14:17:37.496	0.00000000E+0	-4.39830641E+0	5.00000000E+0	4.88112687E+0	-6.30000000E+2	5.42984667E-1
131	02/09/2022	14:17:38.928	0.00000000E+0	-4.18891804E+0	5.00000000E+0	1.73991771E+0	-6.30000000E+2	5.72885086E-1
132	02/09/2022	14:17:40.328	0.00000000E+0	-3.97952966E+0	5.00000000E+0	4.64297635E+0	-6.30000000E+2	5.94250337E-1
133	02/09/2022	14:17:41.710	0.00000000E+0	-3.76975779E+0	5.00000000E+0	1.21798075E+0	-6.30000000E+2	6.16048610E-1
134	02/09/2022	14:17:43.235	0.00000000E+0	-3.56036941E+0	5.00000000E+0	5.32713178E+0	-6.31000000E+2	6.26687856E-1
135	02/09/2022	14:17:44.641	0.00000000E+0	-3.35098103E+0	5.00000000E+0	5.92269982E+0	-6.31000000E+2	6.31149799E-1
136	02/09/2022	14:17:46.041	0.00000000E+0	-3.14159265E+0	5.00000000E+0	2.99893244E+0	-6.30000000E+2	6.21413710E-1
137	02/09/2022	14:17:47.532	0.00000000E+0	-2.93220428E+0	5.00000000E+0	3.57417524E+0	-6.30000000E+2	6.10214761E-1
138	02/09/2022	14:17:48.919	0.00000000E+0	-2.72281590E+0	5.00000000E+0	1.64327692E+0	-6.30000000E+2	5.92593518E-1
139	02/09/2022	14:17:50.429	0.00000000E+0	-2.51342752E+0	5.00000000E+0	6.05040372E+0	-6.31000000E+2	5.64948039E-1
140	02/09/2022	14:17:51.812	0.00000000E+0	-2.30365565E+0	5.00000000E+0	1.99800998E-1	-6.30000000E+2	5.42159699E-1
141	02/09/2022	14:17:53.183	0.00000000E+0	-2.09426727E+0	5.00000000E+0	7.92301077E-1	-6.30000000E+2	5.14592876E-1
142	02/09/2022	14:17:54.714	0.00000000E+0	-1.88487889E+0	5.00000000E+0	6.23754938E+0	-6.31000000E+2	4.74247905E-1
143	02/09/2022	14:17:56.101	0.00000000E+0	-1.67549052E+0	5.00000000E+0	5.88933574E+0	-6.31000000E+2	4.46335675E-1
144	02/09/2022	14:17:57.570	0.00000000E+0	-1.46610214E+0	5.00000000E+0	4.91449095E+0	-6.30000000E+2	3.97081932E-1
145	02/09/2022	14:17:59.051	0.00000000E+0	-1.25671376E+0	5.00000000E+0	5.30297158E+0	-6.31000000E+2	3.72005903E-1
146	02/09/2022	14:18:00.439	0.00000000E+0	-1.04732538E+0	5.00000000E+0	2.61812171E+0	-6.30000000E+2	3.36127490E-1
147	02/09/2022	14:18:01.974	0.00000000E+0	-8.37937005E-1	5.00000000E+0	4.94095212E+0	-6.31000000E+2	3.10806105E-1
148	02/09/2022	14:18:03.388	0.00000000E+0	-6.28165133E-1	5.00000000E+0	4.89454920E+0	-6.31000000E+2	3.03121497E-1
149	02/09/2022	14:18:04.769	0.00000000E+0	-4.18776755E-1	5.00000000E+0	6.09028722E+0	-6.31000000E+2	2.82445142E-1
150	02/09/2022	14:18:06.257	0.00000000E+0	-2.09388378E-1	5.00000000E+0	6.11406393E+0	-6.31000000E+2	2.80515524E-1
151	02/09/2022	14:18:07.638	0.00000000E+0	0.00000000E+0	5.00000000E+0	4.62648606E+0	-6.31000000E+2	2.85941341E-1
152	02/09/2022	14:18:09.113	0.00000000E+0	2.09388378E-1	5.00000000E+0	3.93657820E+0	-6.30000000E+2	2.96591733E-1
153	02/09/2022	14:18:10.594	0.00000000E+0	4.18776755E-1	5.00000000E+0	5.09166573E+0	-6.31000000E+2	3.16402549E-1
154	02/09/2022	14:18:11.982	0.00000000E+0	6.28165133E-1	5.00000000E+0	9.50301098E-1	-6.30000000E+2	3.33878301E-1
155	02/09/2022	14:18:13.474	0.00000000E+0	8.37937005E-1	5.00000000E+0	5.51811239E+0	-6.31000000E+2	3.66920913E-1
156	02/09/2022	14:18:14.862	0.00000000E+0	1.04732538E+0	5.00000000E+0	4.78602006E+0	-6.30000000E+2	3.97010743E-1
157	02/09/2022	14:18:16.345	0.00000000E+0	1.25671376E+0	5.00000000E+0	5.55761239E+0	-6.31000000E+2	4.39414447E-1
158	02/09/2022	14:18:17.844	0.00000000E+0	1.46610214E+0	5.00000000E+0	2.53605374E+0	-6.30000000E+2	4.80807326E-1
159	02/09/2022	14:18:19.251	0.00000000E+0	1.67549052E+0	5.00000000E+0	4.76799578E+0	-6.30000000E+2	5.07872238E-1
160	02/09/2022	14:18:20.798	0.00000000E+0	1.88487889E+0	5.00000000E+0	5.96756876E+0	-6.30000000E+2	5.31209807E-1
161	02/09/2022	14:18:22.185	0.00000000E+0	2.09426727E+0	5.00000000E+0	4.99195698E+0	-6.31000000E+2	5.83598583E-1
162	02/09/2022	14:18:23.587	0.00000000E+0	2.30365565E+0	5.00000000E+0	4.45122875E+0	-6.30000000E+2	5.99156424E-1
163	02/09/2022	14:18:25.101	0.00000000E+0	2.51342752E+0	5.00000000E+0	7.29407865E-1	-6.30000000E+2	6.23888370E-1
164	02/09/2022	14:18:26.486	0.00000000E+0	2.72281590E+0	5.00000000E+0	5.47707840E+0	-6.31000000E+2	6.28352235E-1
165	02/09/2022	14:18:27.953	0.00000000E+0	2.93220428E+0	5.00000000E+0	2.65417026E+0	-6.30000000E+2	6.32434384E-1
166	02/09/2022	14:18:29.332	0.00000000E+0	3.14159265E+0	5.00000000E+0	5.52271433E+0	-6.30000000E+2	6.26846540E-1
167	02/09/2022	14:18:30.719	0.00000000E+0	3.35098103E+0	5.00000000E+0	3.30074316E+0	-6.31000000E+2	6.16179028E-1
168	02/09/2022	14:18:32.221	0.00000000E+0	3.56036941E+0	5.00000000E+0	5.52731627E+0	-6.31000000E+2	5.93687951E-1
169	02/09/2022	14:18:33.603	0.00000000E+0	3.76975779E+0	5.00000000E+0	2.76116542E-2	-6.30000000E+2	5.69933948E-1
170	02/09/2022	14:18:35.040	0.00000000E+0	3.97952966E+0	5.00000000E+0	4.69551519E+0	-6.30000000E+2	5.32360284E-1
171	02/09/2022	14:18:36.529	0.00000000E+0	4.18891804E+0	5.00000000E+0	3.00506836E+0	-6.30000000E+2	5.01518305E-1
172	02/09/2022	14:18:37.932	0.00000000E+0	4.39830641E+0	5.00000000E+0	4.43857341E+0	-6.31000000E+2	4.64950205E-1
173	02/09/2022	14:18:39.453	0.00000000E+0	4.60769479E+0	5.00000000E+0	4.37452971E+0	-6.30000000E+2	4.40268802E-1
174	02/09/2022	14:18:40.865	0.00000000E+0	4.81708317E+0	5.00000000E+0	3.85757819E+0	-6.30000000E+2	3.90572110E-1
175	02/09/2022	14:18:42.253	0.00000000E+0	5.02647155E+0	5.00000000E+0	1.01626227E-1	-6.30000000E+2	3.70053557E-1
176	02/09/2022	14:18:43.730	0.00000000E+0	5.23585992E+0	5.00000000E+0	6.01934061E+0	-6.31000000E+2	3.35621223E-1
177	02/09/2022	14:18:45.116	0.00000000E+0	5.44524830E+0	5.00000000E+0	6.04886974E+0	-6.30000000E+2	3.13200248E-1
178	02/09/2022	14:18:46.497	0.00000000E+0	5.65502017E+0	5.00000000E+0	2.85243728E+0	-6.30000000E+2	2.92203564E-1
179	02/09/2022	14:18:47.983	0.00000000E+0	5.86440855E+0	5.00000000E+0	2.79491300E+0	-6.30000000E+2	2.86706276E-1
180	02/09/2022	14:18:49.387	0.00000000E+0	6.07379693E+0	5.00000000E+0	5.95529691E+0	-6.31000000E+2	2.80643725E-1
181	02/09/2022	14:18:50.937	0.00000000E+0	6.28318531E+0	5.00000000E+0	4.40482583E+0	-6.31000000E+2	2.85470091E-1
182	02/09/2022	14:18:52.316	0.00000000E+0	6.49257368E+0	5.00000000E+0	3.18416062E+0	-6.30000000E+2	2.95527527E-1
183	02/09/2022	14:18:53.698	0.00000000E+0	6.70196206E+0	5.00000000E+0	4.80711229E+0	-6.30000000E+2	3.10497969E-1
184	02/09/2022	14:18:55.185	0.00000000E+0	6.91135044E+0	5.00000000E+0	9.74844791E-1	-6.30000000E+2	3.39217766E-1
185	02/09/2022	14:18:56.581	0.00000000E+0	7.12112231E+0	5.00000000E+0	5.98252507E-2	-6.30000000E+2	3.64208109E-1
186	02/09/2022	14:18:58.005	0.00000000E+0	7.33051069E+0	5.00000000E+0	4.85466570E+0	-6.31000000E+2	4.15029274E-1
187	02/09/2022	14:18:59.399	0.00000000E+0	7.53989907E+0	5.00000000E+0	5.28686479E+0	-6.30000000E+2	4.30628192E-1
188	02/09/2022	14:19:00.778	0.00000000E+0	7.74928745E+0	5.00000000E+0	1.13974773E+0	-6.30000000E+2	4.83921287E-1
189	02/09/2022	14:19:02.299	0.00000000E+0	7.95867582E+0	5.00000000E+0	4.76684530E+0	-6.31000000E+2	5.06091079E-1
190	02/09/2022	14:19:03.679	0.00000000E+0	8.16806420E+0	5.00000000E+0	3.04188390E+0	-6.30000000E+2	5.41061787E-1
191	02/09/2022	14:19:05.115	0.00000000E+0	8.37745258E+0	5.00000000E+0	8.88558371E-1	-6.30000000E+2	5.74638624E-1
192	02/09/2022	14:19:06.643	0.00000000E+0	8.58684096E+0	5.00000000E+0	3.12356838E+0	-6.30000000E+2	6.00286728E-1
193	02/09/2022	14:19:08.024	0.00000000E+0	8.79661283E+0	5.00000000E+0	4.12717531E+0	-6.30000000E+2	6.14904205E-1
194	02/09/2022	14:19:09.491	0.00000000E+0	9.00600121E+0	5.00000000E+0	1.37022834E+0	-6.30000000E+2	6.28386285E-1
195	02/09/2022	14:19:10.884	0.00000000E+0	9.21538958E+0	5.00000000E+0	2.79721397E+0	-6.30000000E+2	6.30916472E-1
196	02/09/2022	14:19:12.268	0.00000000E+0	9.42477796E+0	5.00000000E+0	3.92468985E+0	-6.30000000E+2	6.32362094E-1
197	02/09/2022	14:19:13.726	0.00000000E+0	9.63416634E+0	5.00000000E+0	5.86440855E+0	-6.30000000E+2	6.14989297E-1
198	02/09/2022	14:19:15.131	0.00000000E+0	9.84355472E+0	5.00000000E+0	4.03091802E+0	-6.30000000E+2	5.98963648E-1
199	02/09/2022	14:19:16.507	0.00000000E+0	1.00529431E+1	5.00000000E+0	5.82222408E+0	-6.30000000E+2	5.76225586E-1
200	02/09/2022	14:19:17.996	0.00000000E+0	1.02627150E+1	5.00000000E+0	5.67112697E+0	-6.31000000E+2	5.40935022E-1
201	02/09/2022	14:19:19.414	0.00000000E+0	1.04721033E+1	5.00000000E+0	1.87912647E+0	-6.30000000E+2	5.03316972E-1
202	02/09/2022	14:19:20.918	0.00000000E+0	1.06814917E+1	5.00000000E+0	9.23839930E-1	-6.30000000E+2	4.72935621E-1
203	02/09/2022	14:19:22.312	0.00000000E+0	1.08908801E+1	5.00000000E+0	4.06504909E-1	-6.30000000E+2	4.39686808E-1
204	02/09/2022	14:19:23.696	0.00000000E+0	1.11002685E+1	5.00000000E+0	4.52025789E+0	-6.31000000E+2	4.01389926E-1
205	02/09/2022	14:19:25.189	0.00000000E+0	1.13096569E+1	5.00000000E+0	5.43642791E+0	-6.31000000E+2	3.67012679E-1
206	02/09/2022	14:19:26.570	0.00000000E+0	1.15190452E+1	5.00000000E+0	6.67281643E-2	-6.30000000E+2	3.40522447E-1
207	02/09/2022	14:19:28.117	0.00000000E+0	1.17284336E+1	5.00000000E+0	3.84338886E+0	-6.31000000E+2	3.16634265E-1
208	02/09/2022	14:19:29.505	0.00000000E+0	1.19382055E+1	5.00000000E+0	5.18869002E+0	-6.30000000E+2	3.02042800E-1
209	02/09/2022	14:19:30.896	0.00000000E+0	1.21475939E+1	5.00000000E+0	5.14535506E+0	-6.31000000E+2	2.84375480E-1
210	02/09/2022	14:19:32.367	0.00000000E+0	1.23569822E+1	5.00000000E+0	5.85482117E+0	-6.31000000E+2	2.80798631E-1
211	02/09/2022	14:19:33.759	0.00000000E+0	1.25663706E+1	5.00000000E+0	3.60677233E+0	-6.30000000E+2	2.84190670E-1
212	02/09/2022	14:19:35.198	0.00000000E+0	1.27757590E+1	5.00000000E+0	1.00053897E+0	-6.30000000E+2	2.97367722E-1
213	02/09/2022	14:19:36.710	0.00000000E+0	1.29851474E+1	5.00000000E+0	3.81692770E+0	-6.30000000E+2	3.17750330E-1
214	02/09/2022	14:19:38.096	0.00000000E+0	1.31945357E+1	5.00000000E+0	2.09311679E+0	-6.30000000E+2	3.41943850E-1
215	02/09/2022	14:19:39.568	0.00000000E+0	1.34043076E+1	5.00000000E+0	2.77228678E+0	-6.31000000E+2	3.68789856E-1
216	02/09/2022	14:19:40.945	0.00000000E+0	1.36136960E+1	5.00000000E+0	7.74660298E-1	-6.30000000E+2	4.05418224E-1
217	02/09/2022	14:19:42.381	0.00000000E+0	1.38230844E+1	5.00000000E+0	4.14711706E+0	-6.30000000E+2	4.35204224E-1
218	02/09/2022	14:19:43.910	0.00000000E+0	1.40324728E+1	5.00000000E+0	5.42108810E+0	-6.31000000E+2	4.82763388E-1
219	02/09/2022	14:19:45.309	0.00000000E+0	1.42418611E+1	5.00000000E+0	5.17335021E-1	-6.30000000E+2	5.09692055E-1
220	02/09/2022	14:19:46.737	0.00000000E+0	1.44512495E+1	5.00000000E+0	4.80366084E+0	-6.31000000E+2	5.44747354E-1
221	02/09/2022	14:19:48.141	0.00000000E+0	1.46606379E+1	5.00000000E+0	5.44831626E+0	-6.31000000E+2	5.79097072E-1
222	02/09/2022	14:19:49.541	0.00000000E+0	1.48700263E+1	5.00000000E+0	5.18945701E+0	-6.30000000E+2	5.94104910E-1
223	02/09/2022	14:19:51.079	0.00000000E+0	1.50797981E+1	5.00000000E+0	2.64113142E+0	-6.30000000E+2	6.17410278E-1
224	02/09/2022	14:19:52.459	0.00000000E+0	1.52891865E+1	5.00000000E+0	6.04541829E+0	-6.30000000E+2	6.10907783E-1
225	02/09/2022	14:19:53.909	0.00000000E+0	1.54985749E+1	5.00000000E+0	3.45414124E+0	-6.30000000E+2	6.28228489E-1
226	02/09/2022	14:19:55.407	0.00000000E+0	1.57079633E+1	5.00000000E+0	5.48819976E+0	-6.31000000E+2	6.19211405E-1
227	02/09/2022	14:19:56.789	0.00000000E+0	1.59173516E+1	5.00000000E+0	1.61067983E-1	-6.29000000E+2	6.22402735E-1
228	02/09/2022	14:19:58.269	0.00000000E+0	1.61267400E+1	5.00000000E+0	5.53115123E+0	-6.31000000E+2	5.85466983E-1
229	02/09/2022	14:19:59.664	0.00000000E+0	1.63361284E+1	5.00000000E+0	5.77850563E+0	-6.30000000E+2	5.73418008E-1
230	02/09/2022	14:20:01.047	0.00000000E+0	1.65459003E+1	5.00000000E+0	7.25572913E-1	-6.30000000E+2	5.47021957E-1
231	02/09/2022	14:20:02.499	0.00000000E+0	1.67552887E+1	5.00000000E+0	4.19045202E+0	-6.30000000E+2	5.16023779E-1
232	02/09/2022	14:20:03.871	0.00000000E+0	1.69646770E+1	5.00000000E+0	3.98451510E+0	-6.30000000E+2	4.76243715E-1
233	02/09/2022	14:20:05.330	0.00000000E+0	1.71740654E+1	5.00000000E+0	2.36386439E+0	-6.30000000E+2	4.44129764E-1
234	02/09/2022	14:20:06.817	0.00000000E+0	1.73834538E+1	5.00000000E+0	1.93856822E+0	-6.30000000E+2	4.07722578E-1
235	02/09/2022	14:20:08.198	0.00000000E+0	1.75928422E+1	5.00000000E+0	4.64719480E+0	-6.30000000E+2	3.72043183E-1
236	02/09/2022	14:20:09.699	0.00000000E+0	1.78022305E+1	5.00000000E+0	4.22573358E+0	-6.30000000E+2	3.36306110E-1
237	02/09/2022	14:20:11.100	0.00000000E+0	1.80116189E+1	5.00000000E+0	6.24483579E+0	-6.31000000E+2	3.13411855E-1
238	02/09/2022	14:20:12.468	0.00000000E+0	1.82213908E+1	5.00000000E+0	4.37683068E+0	-6.31000000E+2	3.06069540E-1
239	02/09/2022	14:20:13.923	0.00000000E+0	1.84307792E+1	5.00000000E+0	3.61175777E+0	-6.31000000E+2	2.88338902E-1
240	02/09/2022	14:20:15.305	0.00000000E+0	1.86401675E+1	5.00000000E+0	1.48105845E+0	-6.30000000E+2	2.79439604E-1
241	02/09/2022	14:20:16.757	0.00000000E+0	1.88495559E+1	5.00000000E+0	5.16989875E+0	-6.31000000E+2	2.87726882E-1
242	02/09/2022	14:20:18.151	0.00000000E+0	1.90589443E+1	5.00000000E+0	3.38357812E+0	-6.30000000E+2	2.96508584E-1
243	02/09/2022	14:20:19.532	0.00000000E+0	1.92683327E+1	5.00000000E+0	4.96434532E+0	-6.31000000E+2	3.16381889E-1
244	02/09/2022	14:20:21.064	0.00000000E+0	1.94777211E+1	5.00000000E+0	5.87591341E+0	-6.30000000E+2	3.42837463E-1
245	02/09/2022	14:20:22.451	0.00000000E+0	1.96874929E+1	5.00000000E+0	4.78563656E+0	-6.31000000E+2	3.70684898E-1
246	02/09/2022	14:20:23.859	0.00000000E+0	1.98968813E+1	5.00000000E+0	8.69767107E-1	-6.30000000E+2	3.93806986E-1
247	02/09/2022	14:20:25.360	0.00000000E+0	2.01062697E+1	5.00000000E+0	2.37920420E+0	-6.30000000E+2	4.32668867E-1
248	02/09/2022	14:20:26.780	0.00000000E+0	2.03156581E+1	5.00000000E+0	2.38534013E-1	-6.30000000E+2	4.76835205E-1
249	02/09/2022	14:20:28.304	0.00000000E+0	2.05250464E+1	5.00000000E+0	2.30825759E+0	-6.30000000E+2	5.08310370E-1
250	02/09/2022	14:20:29.687	0.00000000E+0	2.07344348E+1	5.00000000E+0	2.13606825E-1	-6.29000000E+2	5.40170736E-1
251	02/09/2022	14:20:31.067	0.00000000E+0	2.09438232E+1	5.00000000E+0	1.51749049E+0	-6.30000000E+2	5.62301372E-1
252	02/09/2022	14:20:32.523	0.00000000E+0	2.11532116E+1	5.00000000E+0	4.83280647E+0	-6.30000000E+2	6.03686126E-1
253	02/09/2022	14:20:33.914	0.00000000E+0	2.13629834E+1	5.00000000E+0	6.30849599E-1	-6.30000000E+2	6.14432427E-1
254	02/09/2022	14:20:35.357	0.00000000E+0	2.15723718E+1	5.00000000E+0	8.23747683E-1	-6.30000000E+2	6.29605039E-1
255	02/09/2022	14:20:36.865	0.00000000E+0	2.17817602E+1	5.00000000E+0	6.00936974E+0	-6.31000000E+2	6.29352644E-1
256	02/09/2022	14:20:38.259	0.00000000E+0	2.19911486E+1	5.00000000E+0	4.58890353E+0	-6.30000000E+2	6.24752436E-1
257	02/09/2022	14:20:39.805	0.00000000E+0	2.22005370E+1	5.00000000E+0	3.68999079E+0	-6.30000000E+2	6.15647965E-1
258	02/09/2022	14:20:41.185	0.00000000E+0	2.24099253E+1	5.00000000E+0	4.94593756E+0	-6.30000000E+2	5.98621608E-1
259	02/09/2022	14:20:42.561	0.00000000E+0	2.26193137E+1	5.00000000E+0	2.27796147E+0	-6.30000000E+2	5.77307622E-1
260	02/09/2022	14:20:44.031	0.00000000E+0	2.28290856E+1	5.00000000E+0	4.86425308E+0	-6.31000000E+2	5.48342925E-1
261	02/09/2022	14:20:45.414	0.00000000E+0	2.30384740E+1	5.00000000E+0	2.21315078E+0	-6.30000000E+2	5.29127490E-1
262	02/09/2022	14:20:46.898	0.00000000E+0	2.32478623E+1	5.00000000E+0	2.34085468E+0	-6.30000000E+2	4.74658681E-1
263	02/09/2022	14:20:48.326	0.00000000E+0	2.34572507E+1	5.00000000E+0	3.84990828E+0	-6.31000000E+2	4.46878414E-1
264	02/09/2022	14:20:49.723	0.00000000E+0	2.36666391E+1	5.00000000E+0	4.87614143E+0	-6.30000000E+2	3.92988745E-1
265	02/09/2022	14:20:51.262	0.00000000E+0	2.38760275E+1	5.00000000E+0	5.40344733E+0	-6.30000000E+2	3.69772062E-1
266	02/09/2022	14:20:52.635	0.00000000E+0	2.40854158E+1	5.00000000E+0	5.97677264E+0	-6.30000000E+2	3.43171507E-1
267	02/09/2022	14:20:54.081	0.00000000E+0	2.42948042E+1	5.00000000E+0	3.71990341E-1	-6.30000000E+2	3.08438776E-1
268	02/09/2022	14:20:55.572	0.00000000E+0	2.45045761E+1	5.00000000E+0	4.58046663E+0	-6.31000000E+2	2.91565406E-1
269	02/09/2022	14:20:56.967	0.00000000E+0	2.47139645E+1	5.00000000E+0	4.78026763E+0	-6.30000000E+2	2.86744101E-1
270	02/09/2022	14:20:58.397	0.00000000E+0	2.49233529E+1	5.00000000E+0	5.61053473E-1	-6.30000000E+2	2.82141200E-1
271	02/09/2022	14:20:59.777	0.00000000E+0	2.51327412E+1	5.00000000E+0	4.73463170E+0	-6.31000000E+2	2.81565881E-1
272	02/09/2022	14:21:01.162	0.00000000E+0	2.53421296E+1	5.00000000E+0	4.39178700E+0	-6.30000000E+2	2.96271382E-1
273	02/09/2022	14:21:02.715	0.00000000E+0	2.55515180E+1	5.00000000E+0	5.61743765E+0	-6.30000000E+2	3.11803680E-1
274	02/09/2022	14:21:04.097	0.00000000E+0	2.57609064E+1	5.00000000E+0	2.83096154E+0	-6.30000000E+2	3.36262455E-1
275	02/09/2022	14:21:05.584	0.00000000E+0	2.59706782E+1	5.00000000E+0	2.61812171E+0	-6.30000000E+2	3.63626340E-1
276	02/09/2022	14:21:07.026	0.00000000E+0	2.61800666E+1	5.00000000E+0	4.39408797E+0	-6.31000000E+2	4.09007061E-1
277	02/09/2022	14:21:08.443	0.00000000E+0	2.63894550E+1	5.00000000E+0	4.48190837E+0	-6.31000000E+2	4.44014985E-1
278	02/09/2022	14:21:09.984	0.00000000E+0	2.65988434E+1	5.00000000E+0	1.05077684E+0	-6.30000000E+2	4.73557347E-1
279	02/09/2022	14:21:11.365	0.00000000E+0	2.68082317E+1	5.00000000E+0	4.28095688E+0	-6.31000000E+2	5.06770861E-1
280	02/09/2022	14:21:12.804	0.00000000E+0	2.70176201E+1	5.00000000E+0	5.66384056E+0	-6.30000000E+2	5.38534306E-1
281	02/09/2022	14:21:14.304	0.00000000E+0	2.72270085E+1	5.00000000E+0	5.15417545E-1	-6.29000000E+2	5.72879385E-1
282	02/09/2022	14:21:15.685	0.00000000E+0	2.74363969E+1	5.00000000E+0	1.44922835E+0	-6.30000000E+2	5.93652557E-1
283	02/09/2022	14:21:17.179	0.00000000E+0	2.76461687E+1	5.00000000E+0	5.38964150E+0	-6.30000000E+2	6.14023769E-1
284	02/09/2022	14:21:18.597	0.00000000E+0	2.78555571E+1	5.00000000E+0	4.75764141E+0	-6.30000000E+2	6.26866006E-1
285	02/09/2022	14:21:19.987	0.00000000E+0	2.80649455E+1	5.00000000E+0	5.10623855E+0	-6.31000000E+2	6.27596304E-1
286	02/09/2022	14:21:21.514	0.00000000E+0	2.82743339E+1	5.00000000E+0	6.25825812E+0	-6.30000000E+2	6.31400697E-1
287	02/09/2022	14:21:22.906	0.00000000E+0	2.84837223E+1	5.00000000E+0	4.77643268E+0	-6.31000000E+2	6.05617348E-1
288	02/09/2022	14:21:24.306	0.00000000E+0	2.86931106E+1	5.00000000E+0	3.10055867E+0	-6.30000000E+2	5.87324152E-1
289	02/09/2022	14:21:25.818	0.00000000E+0	2.89024990E+1	5.00000000E+0	6.78019508E-1	-6.30000000E+2	5.71709771E-1
290	02/09/2022	14:21:27.208	0.00000000E+0	2.91122709E+1	5.00000000E+0	2.49923820E+0	-6.30000000E+2	5.52549822E-1
291	02/09/2022	14:21:28.679	0.00000000E+0	2.93216593E+1	5.00000000E+0	6.09450567E+0	-6.30000000E+2	5.21511426E-1
292	02/09/2022	14:21:30.068	0.00000000E+0	2.95310476E+1	5.00000000E+0	4.50491808E+0	-6.31000000E+2	4.77047193E-1
293	02/09/2022	14:21:31.477	0.00000000E+0	2.97404360E+1	5.00000000E+0	5.51082598E+0	-6.31000000E+2	4.44846137E-1
294	02/09/2022	14:21:33.030	0.00000000E+0	2.99498244E+1	5.00000000E+0	4.33656369E+0	-6.31000000E+2	4.09491780E-1
295	02/09/2022	14:21:34.408	0.00000000E+0	3.01592128E+1	5.00000000E+0	5.15072399E+0	-6.31000000E+2	3.78831000E-1
296	02/09/2022	14:21:35.834	0.00000000E+0	3.03686012E+1	5.00000000E+0	4.67595694E+0	-6.30000000E+2	3.42544190E-1
297	02/09/2022	14:21:37.180	0.00000000E+0	3.05779895E+1	5.00000000E+0	6.26286006E+0	-6.31000000E+2	3.18091265E-1
298	02/09/2022	14:21:38.582	0.00000000E+0	3.07877614E+1	5.00000000E+0	4.64297635E+0	-6.30000000E+2	2.96554312E-1
299	02/09/2022	14:21:40.097	0.00000000E+0	3.09971498E+1	5.00000000E+0	1.44462641E+0	-6.30000000E+2	2.87381324E-1
300	02/09/2022	14:21:41.484	0.00000000E+0	3.12065382E+1	5.00000000E+0	1.68967984E+0	-6.30000000E+2	2.80512853E-1
301	02/09/2022	14:21:42.918	0.00000000E+0	3.14159265E+1	5.00000000E+0	3.80082090E+0	-6.30000000E+2	2.79041354E-1
