#Iteration	Date	Time	STSX	STSY	RotationRateX	RotationRateY	FrCntX	FrCntY	TiptiltCmd1	TiptiltCmd2	TiptiltMonitor1	TiptiltMonitor2
1	02/09/2022	14:14:31.391	0.00000E+0	0.00000E+0	2.00000E+1	0.00000E+0	0.00000E+0	0.00000E+0	2.00000E+1	1.40000E+1	1.99993E+1	1.39973E+1
2	02/09/2022	14:14:32.761	0.00000E+0	0.00000E+0	2.00000E+1	0.00000E+0	0.00000E+0	0.00000E+0	2.00000E+1	1.40000E+1	2.00008E+1	1.39987E+1
3	02/09/2022	14:14:34.259	0.00000E+0	0.00000E+0	2.00000E+1	0.00000E+0	0.00000E+0	0.00000E+0	2.00000E+1	1.40000E+1	1.99990E+1	1.39981E+1
4	02/09/2022	14:14:35.633	0.00000E+0	0.00000E+0	2.00000E+1	0.00000E+0	0.00000E+0	0.00000E+0	2.00000E+1	1.40000E+1	2.00000E+1	1.40004E+1
5	02/09/2022	14:14:37.075	0.00000E+0	0.00000E+0	2.00000E+1	0.00000E+0	0.00000E+0	0.00000E+0	2.00000E+1	1.40000E+1	1.99999E+1	1.40002E+1
6	02/09/2022	14:14:38.559	0.00000E+0	0.00000E+0	2.00000E+1	0.00000E+0	0.00000E+0	0.00000E+0	2.00000E+1	1.40000E+1	2.00013E+1	1.39988E+1
7	02/09/2022	14:14:39.947	0.00000E+0	0.00000E+0	2.00000E+1	0.00000E+0	0.00000E+0	0.00000E+0	2.00000E+1	1.40000E+1	2.00021E+1	1.39998E+1
8	02/09/2022	14:14:41.435	0.00000E+0	0.00000E+0	2.00000E+1	0.00000E+0	0.00000E+0	0.00000E+0	2.00000E+1	1.40000E+1	2.00004E+1	1.39972E+1
9	02/09/2022	14:14:42.942	0.00000E+0	0.00000E+0	2.00000E+1	0.00000E+0	0.00000E+0	0.00000E+0	2.00000E+1	1.40000E+1	2.00004E+1	1.39989E+1
10	02/09/2022	14:14:44.367	0.00000E+0	0.00000E+0	2.00000E+1	0.00000E+0	0.00000E+0	0.00000E+0	2.00000E+1	1.40000E+1	1.99994E+1	1.40015E+1
11	02/09/2022	14:14:45.924	0.00000E+0	0.00000E+0	2.00000E+1	0.00000E+0	0.00000E+0	0.00000E+0	2.00000E+1	1.40000E+1	2.00019E+1	1.40015E+1
12	02/09/2022	14:14:47.687	0.00000E+0	0.00000E+0	2.00000E+1	0.00000E+0	0.00000E+0	0.00000E+0	2.00000E+1	1.40000E+1	2.00018E+1	1.40007E+1
13	02/09/2022	14:14:49.070	0.00000E+0	0.00000E+0	2.00000E+1	0.00000E+0	0.00000E+0	0.00000E+0	2.00000E+1	1.40000E+1	2.00000E+1	1.40000E+1
14	02/09/2022	14:14:50.599	0.00000E+0	0.00000E+0	2.00000E+1	0.00000E+0	0.00000E+0	0.00000E+0	2.00000E+1	1.40000E+1	1.99987E+1	1.40012E+1
15	02/09/2022	14:14:52.002	0.00000E+0	0.00000E+0	2.00000E+1	0.00000E+0	0.00000E+0	0.00000E+0	2.00000E+1	1.40000E+1	2.00026E+1	1.40001E+1
16	02/09/2022	14:14:53.507	0.00000E+0	0.00000E+0	2.00000E+1	0.00000E+0	0.00000E+0	0.00000E+0	2.00000E+1	1.40000E+1	2.00005E+1	1.39994E+1
17	02/09/2022	14:14:54.892	0.00000E+0	0.00000E+0	2.00000E+1	0.00000E+0	0.00000E+0	0.00000E+0	2.00000E+1	1.40000E+1	1.99995E+1	1.39976E+1
18	02/09/2022	14:14:56.320	0.00000E+0	0.00000E+0	2.00000E+1	0.00000E+0	0.00000E+0	0.00000E+0	2.00000E+1	1.40000E+1	2.00005E+1	1.40006E+1
19	02/09/2022	14:14:57.922	0.00000E+0	0.00000E+0	2.00000E+1	0.00000E+0	0.00000E+0	0.00000E+0	2.00000E+1	1.40000E+1	2.00012E+1	1.39985E+1
20	02/09/2022	14:14:59.313	0.00000E+0	0.00000E+0	2.00000E+1	0.00000E+0	0.00000E+0	0.00000E+0	2.00000E+1	1.40000E+1	1.99992E+1	1.40001E+1
21	02/09/2022	14:15:00.756	0.00000E+0	0.00000E+0	2.00000E+1	0.00000E+0	0.00000E+0	0.00000E+0	2.00000E+1	1.40000E+1	1.99996E+1	1.40013E+1
22	02/09/2022	14:15:02.152	0.00000E+0	0.00000E+0	2.00000E+1	0.00000E+0	0.00000E+0	0.00000E+0	2.00000E+1	1.40000E+1	2.00005E+1	1.39988E+1
23	02/09/2022	14:15:03.598	0.00000E+0	0.00000E+0	2.00000E+1	0.00000E+0	0.00000E+0	0.00000E+0	2.00000E+1	1.40000E+1	2.00006E+1	1.39999E+1
24	02/09/2022	14:15:05.113	0.00000E+0	0.00000E+0	2.00000E+1	0.00000E+0	0.00000E+0	0.00000E+0	2.00000E+1	1.40000E+1	2.00013E+1	1.39978E+1
25	02/09/2022	14:15:06.558	0.00000E+0	0.00000E+0	2.00000E+1	0.00000E+0	0.00000E+0	0.00000E+0	2.00000E+1	1.40000E+1	2.00012E+1	1.39977E+1
26	02/09/2022	14:15:08.014	0.00000E+0	0.00000E+0	2.00000E+1	0.00000E+0	0.00000E+0	0.00000E+0	2.00000E+1	1.40000E+1	2.00014E+1	1.39988E+1
27	02/09/2022	14:15:09.556	0.00000E+0	0.00000E+0	2.00000E+1	0.00000E+0	0.00000E+0	0.00000E+0	2.00000E+1	1.40000E+1	1.99996E+1	1.40019E+1
28	02/09/2022	14:15:10.952	0.00000E+0	0.00000E+0	2.00000E+1	0.00000E+0	0.00000E+0	0.00000E+0	2.00000E+1	1.40000E+1	2.00003E+1	1.39989E+1
29	02/09/2022	14:15:12.487	0.00000E+0	0.00000E+0	2.00000E+1	0.00000E+0	0.00000E+0	0.00000E+0	2.00000E+1	1.40000E+1	2.00023E+1	1.39976E+1
30	02/09/2022	14:15:13.876	0.00000E+0	0.00000E+0	2.00000E+1	0.00000E+0	0.00000E+0	0.00000E+0	2.00000E+1	1.40000E+1	1.99983E+1	1.39977E+1
31	02/09/2022	14:15:15.339	0.00000E+0	0.00000E+0	2.00000E+1	0.00000E+0	0.00000E+0	0.00000E+0	2.00000E+1	1.40000E+1	2.00003E+1	1.39986E+1
32	02/09/2022	14:15:16.842	0.00000E+0	0.00000E+0	2.00000E+1	0.00000E+0	0.00000E+0	0.00000E+0	2.00000E+1	1.40000E+1	2.00010E+1	1.40003E+1
33	02/09/2022	14:15:18.286	0.00000E+0	0.00000E+0	2.00000E+1	0.00000E+0	0.00000E+0	0.00000E+0	2.00000E+1	1.40000E+1	1.99996E+1	1.39994E+1
34	02/09/2022	14:15:19.759	0.00000E+0	0.00000E+0	2.00000E+1	0.00000E+0	0.00000E+0	0.00000E+0	2.00000E+1	1.40000E+1	1.99997E+1	1.39976E+1
35	02/09/2022	14:15:21.235	0.00000E+0	0.00000E+0	2.00000E+1	0.00000E+0	0.00000E+0	0.00000E+0	2.00000E+1	1.40000E+1	2.00002E+1	1.39988E+1
36	02/09/2022	14:15:22.627	0.00000E+0	0.00000E+0	2.00000E+1	0.00000E+0	0.00000E+0	0.00000E+0	2.00000E+1	1.40000E+1	2.00017E+1	1.40009E+1
37	02/09/2022	14:15:24.147	0.00000E+0	0.00000E+0	2.00000E+1	0.00000E+0	0.00000E+0	0.00000E+0	2.00000E+1	1.40000E+1	1.99986E+1	1.39998E+1
38	02/09/2022	14:15:25.543	0.00000E+0	0.00000E+0	2.00000E+1	0.00000E+0	0.00000E+0	0.00000E+0	2.00000E+1	1.40000E+1	1.99998E+1	1.40011E+1
39	02/09/2022	14:15:26.926	0.00000E+0	0.00000E+0	2.00000E+1	0.00000E+0	0.00000E+0	0.00000E+0	2.00000E+1	1.40000E+1	1.99987E+1	1.39987E+1
40	02/09/2022	14:15:28.421	0.00000E+0	0.00000E+0	2.00000E+1	0.00000E+0	0.00000E+0	0.00000E+0	2.00000E+1	1.40000E+1	1.99968E+1	1.40016E+1
41	02/09/2022	14:15:29.815	0.00000E+0	0.00000E+0	2.00000E+1	0.00000E+0	0.00000E+0	0.00000E+0	2.00000E+1	1.40000E+1	1.99980E+1	1.39981E+1
42	02/09/2022	14:15:31.289	0.00000E+0	0.00000E+0	2.00000E+1	0.00000E+0	0.00000E+0	0.00000E+0	2.00000E+1	1.40000E+1	2.00013E+1	1.40007E+1
43	02/09/2022	14:15:32.744	0.00000E+0	0.00000E+0	2.00000E+1	0.00000E+0	0.00000E+0	0.00000E+0	2.00000E+1	1.40000E+1	1.99993E+1	1.40003E+1
44	02/09/2022	14:15:34.120	0.00000E+0	0.00000E+0	2.00000E+1	0.00000E+0	0.00000E+0	0.00000E+0	2.00000E+1	1.40000E+1	1.99990E+1	1.39987E+1
45	02/09/2022	14:15:35.597	0.00000E+0	0.00000E+0	2.00000E+1	0.00000E+0	0.00000E+0	0.00000E+0	2.00000E+1	1.40000E+1	2.00018E+1	1.39981E+1
46	02/09/2022	14:15:36.992	0.00000E+0	0.00000E+0	2.00000E+1	0.00000E+0	0.00000E+0	0.00000E+0	2.00000E+1	1.40000E+1	2.00003E+1	1.40008E+1
47	02/09/2022	14:15:38.432	0.00000E+0	0.00000E+0	2.00000E+1	0.00000E+0	0.00000E+0	0.00000E+0	2.00000E+1	1.40000E+1	2.00004E+1	1.40001E+1
48	02/09/2022	14:15:39.922	0.00000E+0	0.00000E+0	2.00000E+1	0.00000E+0	0.00000E+0	0.00000E+0	2.00000E+1	1.40000E+1	2.00021E+1	1.40027E+1
49	02/09/2022	14:15:41.296	0.00000E+0	0.00000E+0	2.00000E+1	0.00000E+0	0.00000E+0	0.00000E+0	2.00000E+1	1.40000E+1	1.99992E+1	1.40006E+1
50	02/09/2022	14:15:42.753	0.00000E+0	0.00000E+0	2.00000E+1	0.00000E+0	0.00000E+0	0.00000E+0	2.00000E+1	1.40000E+1	1.99977E+1	1.39997E+1
51	02/09/2022	14:15:44.146	0.00000E+0	0.00000E+0	2.00000E+1	0.00000E+0	0.00000E+0	0.00000E+0	2.00000E+1	1.40000E+1	1.99974E+1	1.39994E+1
52	02/09/2022	14:15:45.528	0.00000E+0	0.00000E+0	2.00000E+1	0.00000E+0	0.00000E+0	0.00000E+0	2.00000E+1	1.40000E+1	1.99990E+1	1.39997E+1
53	02/09/2022	14:15:47.087	0.00000E+0	0.00000E+0	2.00000E+1	0.00000E+0	0.00000E+0	0.00000E+0	2.00000E+1	1.40000E+1	2.00000E+1	1.40009E+1
54	02/09/2022	14:15:48.488	0.00000E+0	0.00000E+0	2.00000E+1	0.00000E+0	0.00000E+0	0.00000E+0	2.00000E+1	1.40000E+1	1.99981E+1	1.39993E+1
55	02/09/2022	14:15:49.930	0.00000E+0	0.00000E+0	2.00000E+1	0.00000E+0	0.00000E+0	0.00000E+0	2.00000E+1	1.40000E+1	2.00017E+1	1.40013E+1
56	02/09/2022	14:15:51.319	0.00000E+0	0.00000E+0	2.00000E+1	0.00000E+0	0.00000E+0	0.00000E+0	2.00000E+1	1.40000E+1	2.00018E+1	1.40019E+1
57	02/09/2022	14:15:52.703	0.00000E+0	0.00000E+0	2.00000E+1	0.00000E+0	0.00000E+0	0.00000E+0	2.00000E+1	1.40000E+1	1.99995E+1	1.39987E+1
58	02/09/2022	14:15:54.214	0.00000E+0	0.00000E+0	2.00000E+1	0.00000E+0	0.00000E+0	0.00000E+0	2.00000E+1	1.40000E+1	1.99993E+1	1.39977E+1
59	02/09/2022	14:15:55.610	0.00000E+0	0.00000E+0	2.00000E+1	0.00000E+0	0.00000E+0	0.00000E+0	2.00000E+1	1.40000E+1	2.00001E+1	1.39978E+1
60	02/09/2022	14:15:57.061	0.00000E+0	0.00000E+0	2.00000E+1	0.00000E+0	0.00000E+0	0.00000E+0	2.00000E+1	1.40000E+1	1.99980E+1	1.40002E+1
61	02/09/2022	14:15:58.548	0.00000E+0	0.00000E+0	2.00000E+1	0.00000E+0	0.00000E+0	0.00000E+0	2.00000E+1	1.40000E+1	2.00000E+1	1.40015E+1
62	02/09/2022	14:15:59.936	0.00000E+0	0.00000E+0	2.00000E+1	0.00000E+0	0.00000E+0	0.00000E+0	2.00000E+1	1.40000E+1	2.00020E+1	1.39988E+1
63	02/09/2022	14:16:01.464	0.00000E+0	0.00000E+0	2.00000E+1	0.00000E+0	0.00000E+0	0.00000E+0	2.00000E+1	1.40000E+1	2.00000E+1	1.40010E+1
64	02/09/2022	14:16:02.831	0.00000E+0	0.00000E+0	2.00000E+1	0.00000E+0	0.00000E+0	0.00000E+0	2.00000E+1	1.40000E+1	2.00000E+1	1.39988E+1
65	02/09/2022	14:16:04.215	0.00000E+0	0.00000E+0	2.00000E+1	0.00000E+0	0.00000E+0	0.00000E+0	2.00000E+1	1.40000E+1	1.99988E+1	1.40024E+1
66	02/09/2022	14:16:05.789	0.00000E+0	0.00000E+0	2.00000E+1	0.00000E+0	0.00000E+0	0.00000E+0	2.00000E+1	1.40000E+1	2.00003E+1	1.39998E+1
67	02/09/2022	14:16:07.176	0.00000E+0	0.00000E+0	2.00000E+1	0.00000E+0	0.00000E+0	0.00000E+0	2.00000E+1	1.40000E+1	1.99954E+1	1.40018E+1
68	02/09/2022	14:16:08.611	0.00000E+0	0.00000E+0	2.00000E+1	0.00000E+0	0.00000E+0	0.00000E+0	2.00000E+1	1.40000E+1	1.99990E+1	1.40000E+1
69	02/09/2022	14:16:10.161	0.00000E+0	0.00000E+0	2.00000E+1	0.00000E+0	0.00000E+0	0.00000E+0	2.00000E+1	1.40000E+1	1.99996E+1	1.40011E+1
70	02/09/2022	14:16:11.549	0.00000E+0	0.00000E+0	2.00000E+1	0.00000E+0	0.00000E+0	0.00000E+0	2.00000E+1	1.40000E+1	2.00002E+1	1.39979E+1
71	02/09/2022	14:16:12.996	0.00000E+0	0.00000E+0	2.00000E+1	0.00000E+0	0.00000E+0	0.00000E+0	2.00000E+1	1.40000E+1	2.00005E+1	1.39981E+1
72	02/09/2022	14:16:14.397	0.00000E+0	0.00000E+0	2.00000E+1	0.00000E+0	0.00000E+0	0.00000E+0	2.00000E+1	1.40000E+1	1.99996E+1	1.39996E+1
73	02/09/2022	14:16:15.783	0.00000E+0	0.00000E+0	2.00000E+1	0.00000E+0	0.00000E+0	0.00000E+0	2.00000E+1	1.40000E+1	1.99999E+1	1.40022E+1
74	02/09/2022	14:16:17.231	0.00000E+0	0.00000E+0	2.00000E+1	0.00000E+0	0.00000E+0	0.00000E+0	2.00000E+1	1.40000E+1	1.99988E+1	1.39994E+1
75	02/09/2022	14:16:18.617	0.00000E+0	0.00000E+0	2.00000E+1	0.00000E+0	0.00000E+0	0.00000E+0	2.00000E+1	1.40000E+1	1.99998E+1	1.39977E+1
76	02/09/2022	14:16:20.055	0.00000E+0	0.00000E+0	2.00000E+1	0.00000E+0	0.00000E+0	0.00000E+0	2.00000E+1	1.40000E+1	1.99988E+1	1.40011E+1
77	02/09/2022	14:16:21.483	0.00000E+0	0.00000E+0	2.00000E+1	0.00000E+0	0.00000E+0	0.00000E+0	2.00000E+1	1.40000E+1	1.99997E+1	1.39992E+1
78	02/09/2022	14:16:22.877	0.00000E+0	0.00000E+0	2.00000E+1	0.00000E+0	0.00000E+0	0.00000E+0	2.00000E+1	1.40000E+1	2.00007E+1	1.40001E+1
79	02/09/2022	14:16:24.395	0.00000E+0	0.00000E+0	2.00000E+1	0.00000E+0	0.00000E+0	0.00000E+0	2.00000E+1	1.40000E+1	2.00024E+1	1.39997E+1
80	02/09/2022	14:16:25.777	0.00000E+0	0.00000E+0	2.00000E+1	0.00000E+0	0.00000E+0	0.00000E+0	2.00000E+1	1.40000E+1	1.99998E+1	1.40008E+1
81	02/09/2022	14:16:27.216	0.00000E+0	0.00000E+0	2.00000E+1	0.00000E+0	0.00000E+0	0.00000E+0	2.00000E+1	1.40000E+1	1.99985E+1	1.40004E+1
82	02/09/2022	14:16:28.704	0.00000E+0	0.00000E+0	2.00000E+1	0.00000E+0	0.00000E+0	0.00000E+0	2.00000E+1	1.40000E+1	2.00005E+1	1.39999E+1
83	02/09/2022	14:16:30.088	0.00000E+0	0.00000E+0	2.00000E+1	0.00000E+0	0.00000E+0	0.00000E+0	2.00000E+1	1.40000E+1	1.99983E+1	1.40002E+1
84	02/09/2022	14:16:31.646	0.00000E+0	0.00000E+0	2.00000E+1	0.00000E+0	0.00000E+0	0.00000E+0	2.00000E+1	1.40000E+1	2.00000E+1	1.39969E+1
85	02/09/2022	14:16:33.038	0.00000E+0	0.00000E+0	2.00000E+1	0.00000E+0	0.00000E+0	0.00000E+0	2.00000E+1	1.40000E+1	1.99983E+1	1.40001E+1
86	02/09/2022	14:16:34.427	0.00000E+0	0.00000E+0	2.00000E+1	0.00000E+0	0.00000E+0	0.00000E+0	2.00000E+1	1.40000E+1	1.99986E+1	1.39989E+1
87	02/09/2022	14:16:35.921	0.00000E+0	0.00000E+0	2.00000E+1	0.00000E+0	0.00000E+0	0.00000E+0	2.00000E+1	1.40000E+1	2.00003E+1	1.40008E+1
88	02/09/2022	14:16:37.304	0.00000E+0	0.00000E+0	2.00000E+1	0.00000E+0	0.00000E+0	0.00000E+0	2.00000E+1	1.40000E+1	2.00009E+1	1.40000E+1
89	02/09/2022	14:16:38.696	0.00000E+0	0.00000E+0	2.00000E+1	0.00000E+0	0.00000E+0	0.00000E+0	2.00000E+1	1.40000E+1	2.00007E+1	1.39996E+1
90	02/09/2022	14:16:40.198	0.00000E+0	0.00000E+0	2.00000E+1	0.00000E+0	0.00000E+0	0.00000E+0	2.00000E+1	1.40000E+1	2.00023E+1	1.40005E+1
91	02/09/2022	14:16:41.578	0.00000E+0	0.00000E+0	2.00000E+1	0.00000E+0	0.00000E+0	0.00000E+0	2.00000E+1	1.40000E+1	1.99999E+1	1.39999E+1
92	02/09/2022	14:16:43.088	0.00000E+0	0.00000E+0	2.00000E+1	0.00000E+0	0.00000E+0	0.00000E+0	2.00000E+1	1.40000E+1	2.00015E+1	1.40012E+1
93	02/09/2022	14:16:44.470	0.00000E+0	0.00000E+0	2.00000E+1	0.00000E+0	0.00000E+0	0.00000E+0	2.00000E+1	1.40000E+1	2.00013E+1	1.39994E+1
94	02/09/2022	14:16:45.864	0.00000E+0	0.00000E+0	2.00000E+1	0.00000E+0	0.00000E+0	0.00000E+0	2.00000E+1	1.40000E+1	1.99973E+1	1.40011E+1
95	02/09/2022	14:16:47.356	0.00000E+0	0.00000E+0	2.00000E+1	0.00000E+0	0.00000E+0	0.00000E+0	2.00000E+1	1.40000E+1	2.00022E+1	1.39989E+1
96	02/09/2022	14:16:48.757	0.00000E+0	0.00000E+0	2.00000E+1	0.00000E+0	0.00000E+0	0.00000E+0	2.00000E+1	1.40000E+1	1.99989E+1	1.40001E+1
97	02/09/2022	14:16:50.200	0.00000E+0	0.00000E+0	2.00000E+1	0.00000E+0	0.00000E+0	0.00000E+0	2.00000E+1	1.40000E+1	2.00019E+1	1.40025E+1
98	02/09/2022	14:16:51.630	0.00000E+0	0.00000E+0	2.00000E+1	0.00000E+0	0.00000E+0	0.00000E+0	2.00000E+1	1.40000E+1	1.99999E+1	1.39977E+1
99	02/09/2022	14:16:53.013	0.00000E+0	0.00000E+0	2.00000E+1	0.00000E+0	0.00000E+0	0.00000E+0	2.00000E+1	1.40000E+1	2.00016E+1	1.40025E+1
100	02/09/2022	14:16:54.538	0.00000E+0	0.00000E+0	2.00000E+1	0.00000E+0	0.00000E+0	0.00000E+0	2.00000E+1	1.40000E+1	1.99968E+1	1.39981E+1
101	02/09/2022	14:16:55.918	0.00000E+0	0.00000E+0	2.00000E+1	0.00000E+0	0.00000E+0	0.00000E+0	2.00000E+1	1.40000E+1	2.00013E+1	1.40023E+1
102	02/09/2022	14:16:57.366	0.00000E+0	0.00000E+0	2.00000E+1	0.00000E+0	0.00000E+0	0.00000E+0	2.00000E+1	1.40000E+1	1.99985E+1	1.39992E+1
103	02/09/2022	14:16:58.856	0.00000E+0	0.00000E+0	2.00000E+1	0.00000E+0	0.00000E+0	0.00000E+0	2.00000E+1	1.40000E+1	2.00050E+1	1.39985E+1
104	02/09/2022	14:17:00.292	0.00000E+0	0.00000E+0	2.00000E+1	0.00000E+0	0.00000E+0	0.00000E+0	2.00000E+1	1.40000E+1	2.00014E+1	1.39983E+1
105	02/09/2022	14:17:01.758	0.00000E+0	0.00000E+0	2.00000E+1	0.00000E+0	0.00000E+0	0.00000E+0	2.00000E+1	1.40000E+1	2.00008E+1	1.40002E+1
106	02/09/2022	14:17:03.140	0.00000E+0	0.00000E+0	2.00000E+1	0.00000E+0	0.00000E+0	0.00000E+0	2.00000E+1	1.40000E+1	1.99999E+1	1.39987E+1
107	02/09/2022	14:17:04.521	0.00000E+0	0.00000E+0	2.00000E+1	0.00000E+0	0.00000E+0	0.00000E+0	2.00000E+1	1.40000E+1	2.00017E+1	1.40017E+1
108	02/09/2022	14:17:06.033	0.00000E+0	0.00000E+0	2.00000E+1	0.00000E+0	0.00000E+0	0.00000E+0	2.00000E+1	1.40000E+1	2.00018E+1	1.39998E+1
109	02/09/2022	14:17:07.428	0.00000E+0	0.00000E+0	2.00000E+1	0.00000E+0	0.00000E+0	0.00000E+0	2.00000E+1	1.40000E+1	1.99997E+1	1.39985E+1
110	02/09/2022	14:17:08.863	0.00000E+0	0.00000E+0	2.00000E+1	0.00000E+0	0.00000E+0	0.00000E+0	2.00000E+1	1.40000E+1	2.00006E+1	1.40012E+1
111	02/09/2022	14:17:10.277	0.00000E+0	0.00000E+0	2.00000E+1	0.00000E+0	0.00000E+0	0.00000E+0	2.00000E+1	1.40000E+1	2.00005E+1	1.40014E+1
112	02/09/2022	14:17:11.655	0.00000E+0	0.00000E+0	2.00000E+1	0.00000E+0	0.00000E+0	0.00000E+0	2.00000E+1	1.40000E+1	2.00005E+1	1.40021E+1
113	02/09/2022	14:17:13.165	0.00000E+0	0.00000E+0	2.00000E+1	0.00000E+0	0.00000E+0	0.00000E+0	2.00000E+1	1.40000E+1	2.00015E+1	1.40000E+1
114	02/09/2022	14:17:14.557	0.00000E+0	0.00000E+0	2.00000E+1	0.00000E+0	0.00000E+0	0.00000E+0	2.00000E+1	1.40000E+1	1.99980E+1	1.40008E+1
115	02/09/2022	14:17:15.936	0.00000E+0	0.00000E+0	2.00000E+1	0.00000E+0	0.00000E+0	0.00000E+0	2.00000E+1	1.40000E+1	1.99986E+1	1.40005E+1
116	02/09/2022	14:17:17.472	0.00000E+0	0.00000E+0	2.00000E+1	0.00000E+0	0.00000E+0	0.00000E+0	2.00000E+1	1.40000E+1	1.99964E+1	1.40009E+1
117	02/09/2022	14:17:18.877	0.00000E+0	0.00000E+0	2.00000E+1	0.00000E+0	0.00000E+0	0.00000E+0	2.00000E+1	1.40000E+1	2.00018E+1	1.39986E+1
118	02/09/2022	14:17:20.356	0.00000E+0	0.00000E+0	2.00000E+1	0.00000E+0	0.00000E+0	0.00000E+0	2.00000E+1	1.40000E+1	2.00001E+1	1.40018E+1
119	02/09/2022	14:17:21.770	0.00000E+0	0.00000E+0	2.00000E+1	0.00000E+0	0.00000E+0	0.00000E+0	2.00000E+1	1.40000E+1	2.00013E+1	1.39990E+1
120	02/09/2022	14:17:23.169	0.00000E+0	0.00000E+0	2.00000E+1	0.00000E+0	0.00000E+0	0.00000E+0	2.00000E+1	1.40000E+1	2.00015E+1	1.40003E+1
121	02/09/2022	14:17:24.646	0.00000E+0	0.00000E+0	2.00000E+1	0.00000E+0	0.00000E+0	0.00000E+0	2.00000E+1	1.40000E+1	2.00025E+1	1.40011E+1
122	02/09/2022	14:17:26.025	0.00000E+0	0.00000E+0	2.00000E+1	0.00000E+0	0.00000E+0	0.00000E+0	2.00000E+1	1.40000E+1	1.99982E+1	1.40008E+1
123	02/09/2022	14:17:27.441	0.00000E+0	0.00000E+0	2.00000E+1	0.00000E+0	0.00000E+0	0.00000E+0	2.00000E+1	1.40000E+1	1.99998E+1	1.40010E+1
124	02/09/2022	14:17:28.949	0.00000E+0	0.00000E+0	2.00000E+1	0.00000E+0	0.00000E+0	0.00000E+0	2.00000E+1	1.40000E+1	1.99988E+1	1.40002E+1
125	02/09/2022	14:17:30.349	0.00000E+0	0.00000E+0	2.00000E+1	0.00000E+0	0.00000E+0	0.00000E+0	2.00000E+1	1.40000E+1	2.00016E+1	1.40005E+1
126	02/09/2022	14:17:31.867	0.00000E+0	0.00000E+0	2.00000E+1	0.00000E+0	0.00000E+0	0.00000E+0	2.00000E+1	1.40000E+1	2.00004E+1	1.39996E+1
127	02/09/2022	14:17:33.247	0.00000E+0	0.00000E+0	2.00000E+1	0.00000E+0	0.00000E+0	0.00000E+0	2.00000E+1	1.40000E+1	2.00006E+1	1.39997E+1
128	02/09/2022	14:17:34.644	0.00000E+0	0.00000E+0	2.00000E+1	0.00000E+0	0.00000E+0	0.00000E+0	2.00000E+1	1.40000E+1	1.99998E+1	1.40009E+1
129	02/09/2022	14:17:36.110	0.00000E+0	0.00000E+0	2.00000E+1	0.00000E+0	0.00000E+0	0.00000E+0	2.00000E+1	1.40000E+1	1.99990E+1	1.40010E+1
130	02/09/2022	14:17:37.496	0.00000E+0	0.00000E+0	2.00000E+1	0.00000E+0	0.00000E+0	0.00000E+0	2.00000E+1	1.40000E+1	2.00005E+1	1.39986E+1
131	02/09/2022	14:17:38.928	0.00000E+0	0.00000E+0	2.00000E+1	0.00000E+0	0.00000E+0	0.00000E+0	2.00000E+1	1.40000E+1	2.00001E+1	1.39991E+1
132	02/09/2022	14:17:40.328	0.00000E+0	0.00000E+0	2.00000E+1	0.00000E+0	0.00000E+0	0.00000E+0	2.00000E+1	1.40000E+1	1.99986E+1	1.39969E+1
133	02/09/2022	14:17:41.710	0.00000E+0	0.00000E+0	2.00000E+1	0.00000E+0	0.00000E+0	0.00000E+0	2.00000E+1	1.40000E+1	2.00010E+1	1.40014E+1
134	02/09/2022	14:17:43.235	0.00000E+0	0.00000E+0	2.00000E+1	0.00000E+0	0.00000E+0	0.00000E+0	2.00000E+1	1.40000E+1	1.99991E+1	1.39999E+1
135	02/09/2022	14:17:44.641	0.00000E+0	0.00000E+0	2.00000E+1	0.00000E+0	0.00000E+0	0.00000E+0	2.00000E+1	1.40000E+1	2.00001E+1	1.39972E+1
136	02/09/2022	14:17:46.041	0.00000E+0	0.00000E+0	2.00000E+1	0.00000E+0	0.00000E+0	0.00000E+0	2.00000E+1	1.40000E+1	2.00022E+1	1.39999E+1
137	02/09/2022	14:17:47.532	0.00000E+0	0.00000E+0	2.00000E+1	0.00000E+0	0.00000E+0	0.00000E+0	2.00000E+1	1.40000E+1	1.99989E+1	1.39987E+1
138	02/09/2022	14:17:48.919	0.00000E+0	0.00000E+0	2.00000E+1	0.00000E+0	0.00000E+0	0.00000E+0	2.00000E+1	1.40000E+1	1.99992E+1	1.40007E+1
139	02/09/2022	14:17:50.429	0.00000E+0	0.00000E+0	2.00000E+1	0.00000E+0	0.00000E+0	0.00000E+0	2.00000E+1	1.40000E+1	1.99999E+1	1.39990E+1
140	02/09/2022	14:17:51.812	0.00000E+0	0.00000E+0	2.00000E+1	0.00000E+0	0.00000E+0	0.00000E+0	2.00000E+1	1.40000E+1	1.99995E+1	1.39998E+1
141	02/09/2022	14:17:53.183	0.00000E+0	0.00000E+0	2.00000E+1	0.00000E+0	0.00000E+0	0.00000E+0	2.00000E+1	1.40000E+1	1.99983E+1	1.39996E+1
142	02/09/2022	14:17:54.714	0.00000E+0	0.00000E+0	2.00000E+1	0.00000E+0	0.00000E+0	0.00000E+0	2.00000E+1	1.40000E+1	1.99996E+1	1.39985E+1
143	02/09/2022	14:17:56.101	0.00000E+0	0.00000E+0	2.00000E+1	0.00000E+0	0.00000E+0	0.00000E+0	2.00000E+1	1.40000E+1	2.00004E+1	1.40009E+1
144	02/09/2022	14:17:57.570	0.00000E+0	0.00000E+0	2.00000E+1	0.00000E+0	0.00000E+0	0.00000E+0	2.00000E+1	1.40000E+1	1.99981E+1	1.39981E+1
145	02/09/2022	14:17:59.051	0.00000E+0	0.00000E+0	2.00000E+1	0.00000E+0	0.00000E+0	0.00000E+0	2.00000E+1	1.40000E+1	2.00022E+1	1.39999E+1
146	02/09/2022	14:18:00.439	0.00000E+0	0.00000E+0	2.00000E+1	0.00000E+0	0.00000E+0	0.00000E+0	2.00000E+1	1.40000E+1	2.00009E+1	1.40008E+1
147	02/09/2022	14:18:01.974	0.00000E+0	0.00000E+0	2.00000E+1	0.00000E+0	0.00000E+0	0.00000E+0	2.00000E+1	1.40000E+1	1.99987E+1	1.40005E+1
148	02/09/2022	14:18:03.388	0.00000E+0	0.00000E+0	2.00000E+1	0.00000E+0	0.00000E+0	0.00000E+0	2.00000E+1	1.40000E+1	1.99991E+1	1.40003E+1
149	02/09/2022	14:18:04.769	0.00000E+0	0.00000E+0	2.00000E+1	0.00000E+0	0.00000E+0	0.00000E+0	2.00000E+1	1.40000E+1	2.00016E+1	1.40004E+1
150	02/09/2022	14:18:06.257	0.00000E+0	0.00000E+0	2.00000E+1	0.00000E+0	0.00000E+0	0.00000E+0	2.00000E+1	1.40000E+1	1.99990E+1	1.40017E+1
151	02/09/2022	14:18:07.638	0.00000E+0	0.00000E+0	2.00000E+1	0.00000E+0	0.00000E+0	0.00000E+0	2.00000E+1	1.40000E+1	1.99987E+1	1.40011E+1
152	02/09/2022	14:18:09.113	0.00000E+0	0.00000E+0	2.00000E+1	0.00000E+0	0.00000E+0	0.00000E+0	2.00000E+1	1.40000E+1	2.00004E+1	1.40007E+1
153	02/09/2022	14:18:10.594	0.00000E+0	0.00000E+0	2.00000E+1	0.00000E+0	0.00000E+0	0.00000E+0	2.00000E+1	1.40000E+1	1.99994E+1	1.39995E+1
154	02/09/2022	14:18:11.982	0.00000E+0	0.00000E+0	2.00000E+1	0.00000E+0	0.00000E+0	0.00000E+0	2.00000E+1	1.40000E+1	1.99998E+1	1.39974E+1
155	02/09/2022	14:18:13.474	0.00000E+0	0.00000E+0	2.00000E+1	0.00000E+0	0.00000E+0	0.00000E+0	2.00000E+1	1.40000E+1	1.99998E+1	1.39989E+1
156	02/09/2022	14:18:14.862	0.00000E+0	0.00000E+0	2.00000E+1	0.00000E+0	0.00000E+0	0.00000E+0	2.00000E+1	1.40000E+1	1.99998E+1	1.40000E+1
157	02/09/2022	14:18:16.345	0.00000E+0	0.00000E+0	2.00000E+1	0.00000E+0	0.00000E+0	0.00000E+0	2.00000E+1	1.40000E+1	1.99990E+1	1.40013E+1
158	02/09/2022	14:18:17.844	0.00000E+0	0.00000E+0	2.00000E+1	0.00000E+0	0.00000E+0	0.00000E+0	2.00000E+1	1.40000E+1	1.99988E+1	1.40002E+1
159	02/09/2022	14:18:19.251	0.00000E+0	0.00000E+0	2.00000E+1	0.00000E+0	0.00000E+0	0.00000E+0	2.00000E+1	1.40000E+1	2.00001E+1	1.39998E+1
160	02/09/2022	14:18:20.798	0.00000E+0	0.00000E+0	2.00000E+1	0.00000E+0	0.00000E+0	0.00000E+0	2.00000E+1	1.40000E+1	2.00016E+1	1.39994E+1
161	02/09/2022	14:18:22.185	0.00000E+0	0.00000E+0	2.00000E+1	0.00000E+0	0.00000E+0	0.00000E+0	2.00000E+1	1.40000E+1	1.99984E+1	1.39981E+1
162	02/09/2022	14:18:23.587	0.00000E+0	0.00000E+0	2.00000E+1	0.00000E+0	0.00000E+0	0.00000E+0	2.00000E+1	1.40000E+1	1.99991E+1	1.40026E+1
163	02/09/2022	14:18:25.101	0.00000E+0	0.00000E+0	2.00000E+1	0.00000E+0	0.00000E+0	0.00000E+0	2.00000E+1	1.40000E+1	2.00002E+1	1.40002E+1
164	02/09/2022	14:18:26.486	0.00000E+0	0.00000E+0	2.00000E+1	0.00000E+0	0.00000E+0	0.00000E+0	2.00000E+1	1.40000E+1	1.99982E+1	1.39977E+1
165	02/09/2022	14:18:27.953	0.00000E+0	0.00000E+0	2.00000E+1	0.00000E+0	0.00000E+0	0.00000E+0	2.00000E+1	1.40000E+1	2.00030E+1	1.40004E+1
166	02/09/2022	14:18:29.332	0.00000E+0	0.00000E+0	2.00000E+1	0.00000E+0	0.00000E+0	0.00000E+0	2.00000E+1	1.40000E+1	2.00014E+1	1.39972E+1
167	02/09/2022	14:18:30.719	0.00000E+0	0.00000E+0	2.00000E+1	0.00000E+0	0.00000E+0	0.00000E+0	2.00000E+1	1.40000E+1	1.99991E+1	1.39994E+1
168	02/09/2022	14:18:32.221	0.00000E+0	0.00000E+0	2.00000E+1	0.00000E+0	0.00000E+0	0.00000E+0	2.00000E+1	1.40000E+1	1.99999E+1	1.39974E+1
169	02/09/2022	14:18:33.603	0.00000E+0	0.00000E+0	2.00000E+1	0.00000E+0	0.00000E+0	0.00000E+0	2.00000E+1	1.40000E+1	2.00012E+1	1.39983E+1
170	02/09/2022	14:18:35.040	0.00000E+0	0.00000E+0	2.00000E+1	0.00000E+0	0.00000E+0	0.00000E+0	2.00000E+1	1.40000E+1	2.00002E+1	1.39997E+1
171	02/09/2022	14:18:36.529	0.00000E+0	0.00000E+0	2.00000E+1	0.00000E+0	0.00000E+0	0.00000E+0	2.00000E+1	1.40000E+1	2.00002E+1	1.40012E+1
172	02/09/2022	14:18:37.932	0.00000E+0	0.00000E+0	2.00000E+1	0.00000E+0	0.00000E+0	0.00000E+0	2.00000E+1	1.40000E+1	1.99990E+1	1.39990E+1
173	02/09/2022	14:18:39.453	0.00000E+0	0.00000E+0	2.00000E+1	0.00000E+0	0.00000E+0	0.00000E+0	2.00000E+1	1.40000E+1	2.00012E+1	1.40000E+1
174	02/09/2022	14:18:40.865	0.00000E+0	0.00000E+0	2.00000E+1	0.00000E+0	0.00000E+0	0.00000E+0	2.00000E+1	1.40000E+1	2.00000E+1	1.40007E+1
175	02/09/2022	14:18:42.253	0.00000E+0	0.00000E+0	2.00000E+1	0.00000E+0	0.00000E+0	0.00000E+0	2.00000E+1	1.40000E+1	2.00032E+1	1.40002E+1
176	02/09/2022	14:18:43.730	0.00000E+0	0.00000E+0	2.00000E+1	0.00000E+0	0.00000E+0	0.00000E+0	2.00000E+1	1.40000E+1	2.00016E+1	1.39986E+1
177	02/09/2022	14:18:45.116	0.00000E+0	0.00000E+0	2.00000E+1	0.00000E+0	0.00000E+0	0.00000E+0	2.00000E+1	1.40000E+1	2.00005E+1	1.39991E+1
178	02/09/2022	14:18:46.497	0.00000E+0	0.00000E+0	2.00000E+1	0.00000E+0	0.00000E+0	0.00000E+0	2.00000E+1	1.40000E+1	1.99983E+1	1.39988E+1
179	02/09/2022	14:18:47.983	0.00000E+0	0.00000E+0	2.00000E+1	0.00000E+0	0.00000E+0	0.00000E+0	2.00000E+1	1.40000E+1	2.00003E+1	1.39982E+1
180	02/09/2022	14:18:49.387	0.00000E+0	0.00000E+0	2.00000E+1	0.00000E+0	0.00000E+0	0.00000E+0	2.00000E+1	1.40000E+1	1.99991E+1	1.40022E+1
181	02/09/2022	14:18:50.937	0.00000E+0	0.00000E+0	2.00000E+1	0.00000E+0	0.00000E+0	0.00000E+0	2.00000E+1	1.40000E+1	1.99980E+1	1.40003E+1
182	02/09/2022	14:18:52.316	0.00000E+0	0.00000E+0	2.00000E+1	0.00000E+0	0.00000E+0	0.00000E+0	2.00000E+1	1.40000E+1	1.99987E+1	1.40008E+1
183	02/09/2022	14:18:53.698	0.00000E+0	0.00000E+0	2.00000E+1	0.00000E+0	0.00000E+0	0.00000E+0	2.00000E+1	1.40000E+1	1.99979E+1	1.39992E+1
184	02/09/2022	14:18:55.185	0.00000E+0	0.00000E+0	2.00000E+1	0.00000E+0	0.00000E+0	0.00000E+0	2.00000E+1	1.40000E+1	2.00001E+1	1.40017E+1
185	02/09/2022	14:18:56.581	0.00000E+0	0.00000E+0	2.00000E+1	0.00000E+0	0.00000E+0	0.00000E+0	2.00000E+1	1.40000E+1	1.99992E+1	1.39983E+1
186	02/09/2022	14:18:58.005	0.00000E+0	0.00000E+0	2.00000E+1	0.00000E+0	0.00000E+0	0.00000E+0	2.00000E+1	1.40000E+1	2.00005E+1	1.39992E+1
187	02/09/2022	14:18:59.399	0.00000E+0	0.00000E+0	2.00000E+1	0.00000E+0	0.00000E+0	0.00000E+0	2.00000E+1	1.40000E+1	2.00003E+1	1.39995E+1
188	02/09/2022	14:19:00.778	0.00000E+0	0.00000E+0	2.00000E+1	0.00000E+0	0.00000E+0	0.00000E+0	2.00000E+1	1.40000E+1	2.00020E+1	1.40000E+1
189	02/09/2022	14:19:02.299	0.00000E+0	0.00000E+0	2.00000E+1	0.00000E+0	0.00000E+0	0.00000E+0	2.00000E+1	1.40000E+1	1.99990E+1	1.40005E+1
190	02/09/2022	14:19:03.679	0.00000E+0	0.00000E+0	2.00000E+1	0.00000E+0	0.00000E+0	0.00000E+0	2.00000E+1	1.40000E+1	2.00023E+1	1.40005E+1
191	02/09/2022	14:19:05.115	0.00000E+0	0.00000E+0	2.00000E+1	0.00000E+0	0.00000E+0	0.00000E+0	2.00000E+1	1.40000E+1	2.00041E+1	1.40000E+1
192	02/09/2022	14:19:06.643	0.00000E+0	0.00000E+0	2.00000E+1	0.00000E+0	0.00000E+0	0.00000E+0	2.00000E+1	1.40000E+1	1.99991E+1	1.39995E+1
193	02/09/2022	14:19:08.024	0.00000E+0	0.00000E+0	2.00000E+1	0.00000E+0	0.00000E+0	0.00000E+0	2.00000E+1	1.40000E+1	1.99978E+1	1.40028E+1
194	02/09/2022	14:19:09.491	0.00000E+0	0.00000E+0	2.00000E+1	0.00000E+0	0.00000E+0	0.00000E+0	2.00000E+1	1.40000E+1	1.99983E+1	1.40005E+1
195	02/09/2022	14:19:10.884	0.00000E+0	0.00000E+0	2.00000E+1	0.00000E+0	0.00000E+0	0.00000E+0	2.00000E+1	1.40000E+1	1.99979E+1	1.39989E+1
196	02/09/2022	14:19:12.268	0.00000E+0	0.00000E+0	2.00000E+1	0.00000E+0	0.00000E+0	0.00000E+0	2.00000E+1	1.40000E+1	1.99988E+1	1.39995E+1
197	02/09/2022	14:19:13.726	0.00000E+0	0.00000E+0	2.00000E+1	0.00000E+0	0.00000E+0	0.00000E+0	2.00000E+1	1.40000E+1	1.99996E+1	1.40013E+1
198	02/09/2022	14:19:15.131	0.00000E+0	0.00000E+0	2.00000E+1	0.00000E+0	0.00000E+0	0.00000E+0	2.00000E+1	1.40000E+1	1.99990E+1	1.39997E+1
199	02/09/2022	14:19:16.507	0.00000E+0	0.00000E+0	2.00000E+1	0.00000E+0	0.00000E+0	0.00000E+0	2.00000E+1	1.40000E+1	2.00001E+1	1.40016E+1
200	02/09/2022	14:19:17.996	0.00000E+0	0.00000E+0	2.00000E+1	0.00000E+0	0.00000E+0	0.00000E+0	2.00000E+1	1.40000E+1	1.99986E+1	1.40000E+1
201	02/09/2022	14:19:19.414	0.00000E+0	0.00000E+0	2.00000E+1	0.00000E+0	0.00000E+0	0.00000E+0	2.00000E+1	1.40000E+1	2.00000E+1	1.39988E+1
202	02/09/2022	14:19:20.918	0.00000E+0	0.00000E+0	2.00000E+1	0.00000E+0	0.00000E+0	0.00000E+0	2.00000E+1	1.40000E+1	1.99973E+1	1.40003E+1
203	02/09/2022	14:19:22.312	0.00000E+0	0.00000E+0	2.00000E+1	0.00000E+0	0.00000E+0	0.00000E+0	2.00000E+1	1.40000E+1	2.00001E+1	1.40011E+1
204	02/09/2022	14:19:23.696	0.00000E+0	0.00000E+0	2.00000E+1	0.00000E+0	0.00000E+0	0.00000E+0	2.00000E+1	1.40000E+1	2.00028E+1	1.39974E+1
205	02/09/2022	14:19:25.189	0.00000E+0	0.00000E+0	2.00000E+1	0.00000E+0	0.00000E+0	0.00000E+0	2.00000E+1	1.40000E+1	1.99978E+1	1.40025E+1
206	02/09/2022	14:19:26.570	0.00000E+0	0.00000E+0	2.00000E+1	0.00000E+0	0.00000E+0	0.00000E+0	2.00000E+1	1.40000E+1	1.99992E+1	1.39991E+1
207	02/09/2022	14:19:28.117	0.00000E+0	0.00000E+0	2.00000E+1	0.00000E+0	0.00000E+0	0.00000E+0	2.00000E+1	1.40000E+1	2.00002E+1	1.40009E+1
208	02/09/2022	14:19:29.505	0.00000E+0	0.00000E+0	2.00000E+1	0.00000E+0	0.00000E+0	0.00000E+0	2.00000E+1	1.40000E+1	1.99990E+1	1.39990E+1
209	02/09/2022	14:19:30.896	0.00000E+0	0.00000E+0	2.00000E+1	0.00000E+0	0.00000E+0	0.00000E+0	2.00000E+1	1.40000E+1	1.99991E+1	1.39958E+1
210	02/09/2022	14:19:32.367	0.00000E+0	0.00000E+0	2.00000E+1	0.00000E+0	0.00000E+0	0.00000E+0	2.00000E+1	1.40000E+1	1.99989E+1	1.39984E+1
211	02/09/2022	14:19:33.759	0.00000E+0	0.00000E+0	2.00000E+1	0.00000E+0	0.00000E+0	0.00000E+0	2.00000E+1	1.40000E+1	2.00010E+1	1.40000E+1
212	02/09/2022	14:19:35.198	0.00000E+0	0.00000E+0	2.00000E+1	0.00000E+0	0.00000E+0	0.00000E+0	2.00000E+1	1.40000E+1	1.99986E+1	1.40018E+1
213	02/09/2022	14:19:36.710	0.00000E+0	0.00000E+0	2.00000E+1	0.00000E+0	0.00000E+0	0.00000E+0	2.00000E+1	1.40000E+1	2.00016E+1	1.40025E+1
214	02/09/2022	14:19:38.096	0.00000E+0	0.00000E+0	2.00000E+1	0.00000E+0	0.00000E+0	0.00000E+0	2.00000E+1	1.40000E+1	1.99997E+1	1.40011E+1
215	02/09/2022	14:19:39.568	0.00000E+0	0.00000E+0	2.00000E+1	0.00000E+0	0.00000E+0	0.00000E+0	2.00000E+1	1.40000E+1	1.99991E+1	1.40003E+1
216	02/09/2022	14:19:40.945	0.00000E+0	0.00000E+0	2.00000E+1	0.00000E+0	0.00000E+0	0.00000E+0	2.00000E+1	1.40000E+1	2.00007E+1	1.40024E+1
217	02/09/2022	14:19:42.381	0.00000E+0	0.00000E+0	2.00000E+1	0.00000E+0	0.00000E+0	0.00000E+0	2.00000E+1	1.40000E+1	2.00010E+1	1.40004E+1
218	02/09/2022	14:19:43.910	0.00000E+0	0.00000E+0	2.00000E+1	0.00000E+0	0.00000E+0	0.00000E+0	2.00000E+1	1.40000E+1	1.99987E+1	1.40000E+1
219	02/09/2022	14:19:45.309	0.00000E+0	0.00000E+0	2.00000E+1	0.00000E+0	0.00000E+0	0.00000E+0	2.00000E+1	1.40000E+1	1.99966E+1	1.40002E+1
220	02/09/2022	14:19:46.737	0.00000E+0	0.00000E+0	2.00000E+1	0.00000E+0	0.00000E+0	0.00000E+0	2.00000E+1	1.40000E+1	2.00016E+1	1.39996E+1
221	02/09/2022	14:19:48.141	0.00000E+0	0.00000E+0	2.00000E+1	0.00000E+0	0.00000E+0	0.00000E+0	2.00000E+1	1.40000E+1	1.99995E+1	1.40013E+1
222	02/09/2022	14:19:49.541	0.00000E+0	0.00000E+0	2.00000E+1	0.00000E+0	0.00000E+0	0.00000E+0	2.00000E+1	1.40000E+1	1.99985E+1	1.39996E+1
223	02/09/2022	14:19:51.079	0.00000E+0	0.00000E+0	2.00000E+1	0.00000E+0	0.00000E+0	0.00000E+0	2.00000E+1	1.40000E+1	2.00030E+1	1.40012E+1
224	02/09/2022	14:19:52.459	0.00000E+0	0.00000E+0	2.00000E+1	0.00000E+0	0.00000E+0	0.00000E+0	2.00000E+1	1.40000E+1	1.99994E+1	1.39986E+1
225	02/09/2022	14:19:53.909	0.00000E+0	0.00000E+0	2.00000E+1	0.00000E+0	0.00000E+0	0.00000E+0	2.00000E+1	1.40000E+1	2.00008E+1	1.40001E+1
226	02/09/2022	14:19:55.407	0.00000E+0	0.00000E+0	2.00000E+1	0.00000E+0	0.00000E+0	0.00000E+0	2.00000E+1	1.40000E+1	1.99983E+1	1.40023E+1
227	02/09/2022	14:19:56.789	0.00000E+0	0.00000E+0	2.00000E+1	0.00000E+0	0.00000E+0	0.00000E+0	2.00000E+1	1.40000E+1	1.99991E+1	1.40026E+1
228	02/09/2022	14:19:58.269	0.00000E+0	0.00000E+0	2.00000E+1	0.00000E+0	0.00000E+0	0.00000E+0	2.00000E+1	1.40000E+1	1.99994E+1	1.40007E+1
229	02/09/2022	14:19:59.664	0.00000E+0	0.00000E+0	2.00000E+1	0.00000E+0	0.00000E+0	0.00000E+0	2.00000E+1	1.40000E+1	2.00029E+1	1.39994E+1
230	02/09/2022	14:20:01.047	0.00000E+0	0.00000E+0	2.00000E+1	0.00000E+0	0.00000E+0	0.00000E+0	2.00000E+1	1.40000E+1	1.99980E+1	1.40003E+1
231	02/09/2022	14:20:02.499	0.00000E+0	0.00000E+0	2.00000E+1	0.00000E+0	0.00000E+0	0.00000E+0	2.00000E+1	1.40000E+1	1.99972E+1	1.39995E+1
232	02/09/2022	14:20:03.871	0.00000E+0	0.00000E+0	2.00000E+1	0.00000E+0	0.00000E+0	0.00000E+0	2.00000E+1	1.40000E+1	1.99999E+1	1.39990E+1
233	02/09/2022	14:20:05.330	0.00000E+0	0.00000E+0	2.00000E+1	0.00000E+0	0.00000E+0	0.00000E+0	2.00000E+1	1.40000E+1	1.99988E+1	1.39993E+1
234	02/09/2022	14:20:06.817	0.00000E+0	0.00000E+0	2.00000E+1	0.00000E+0	0.00000E+0	0.00000E+0	2.00000E+1	1.40000E+1	2.00009E+1	1.40004E+1
235	02/09/2022	14:20:08.198	0.00000E+0	0.00000E+0	2.00000E+1	0.00000E+0	0.00000E+0	0.00000E+0	2.00000E+1	1.40000E+1	1.99997E+1	1.40007E+1
236	02/09/2022	14:20:09.699	0.00000E+0	0.00000E+0	2.00000E+1	0.00000E+0	0.00000E+0	0.00000E+0	2.00000E+1	1.40000E+1	2.00031E+1	1.40000E+1
237	02/09/2022	14:20:11.100	0.00000E+0	0.00000E+0	2.00000E+1	0.00000E+0	0.00000E+0	0.00000E+0	2.00000E+1	1.40000E+1	1.99998E+1	1.39986E+1
238	02/09/2022	14:20:12.468	0.00000E+0	0.00000E+0	2.00000E+1	0.00000E+0	0.00000E+0	0.00000E+0	2.00000E+1	1.40000E+1	1.99993E+1	1.40003E+1
239	02/09/2022	14:20:13.923	0.00000E+0	0.00000E+0	2.00000E+1	0.00000E+0	0.00000E+0	0.00000E+0	2.00000E+1	1.40000E+1	1.99987E+1	1.40018E+1
240	02/09/2022	14:20:15.305	0.00000E+0	0.00000E+0	2.00000E+1	0.00000E+0	0.00000E+0	0.00000E+0	2.00000E+1	1.40000E+1	1.99989E+1	1.39995E+1
241	02/09/2022	14:20:16.757	0.00000E+0	0.00000E+0	2.00000E+1	0.00000E+0	0.00000E+0	0.00000E+0	2.00000E+1	1.40000E+1	1.99988E+1	1.39986E+1
242	02/09/2022	14:20:18.151	0.00000E+0	0.00000E+0	2.00000E+1	0.00000E+0	0.00000E+0	0.00000E+0	2.00000E+1	1.40000E+1	1.99994E+1	1.39979E+1
243	02/09/2022	14:20:19.532	0.00000E+0	0.00000E+0	2.00000E+1	0.00000E+0	0.00000E+0	0.00000E+0	2.00000E+1	1.40000E+1	2.00002E+1	1.40006E+1
244	02/09/2022	14:20:21.064	0.00000E+0	0.00000E+0	2.00000E+1	0.00000E+0	0.00000E+0	0.00000E+0	2.00000E+1	1.40000E+1	2.00015E+1	1.39981E+1
245	02/09/2022	14:20:22.451	0.00000E+0	0.00000E+0	2.00000E+1	0.00000E+0	0.00000E+0	0.00000E+0	2.00000E+1	1.40000E+1	1.99993E+1	1.39989E+1
246	02/09/2022	14:20:23.859	0.00000E+0	0.00000E+0	2.00000E+1	0.00000E+0	0.00000E+0	0.00000E+0	2.00000E+1	1.40000E+1	2.00002E+1	1.39995E+1
247	02/09/2022	14:20:25.360	0.00000E+0	0.00000E+0	2.00000E+1	0.00000E+0	0.00000E+0	0.00000E+0	2.00000E+1	1.40000E+1	1.99986E+1	1.40014E+1
248	02/09/2022	14:20:26.780	0.00000E+0	0.00000E+0	2.00000E+1	0.00000E+0	0.00000E+0	0.00000E+0	2.00000E+1	1.40000E+1	2.00001E+1	1.40012E+1
249	02/09/2022	14:20:28.304	0.00000E+0	0.00000E+0	2.00000E+1	0.00000E+0	0.00000E+0	0.00000E+0	2.00000E+1	1.40000E+1	1.99999E+1	1.39971E+1
250	02/09/2022	14:20:29.687	0.00000E+0	0.00000E+0	2.00000E+1	0.00000E+0	0.00000E+0	0.00000E+0	2.00000E+1	1.40000E+1	2.00001E+1	1.40012E+1
251	02/09/2022	14:20:31.067	0.00000E+0	0.00000E+0	2.00000E+1	0.00000E+0	0.00000E+0	0.00000E+0	2.00000E+1	1.40000E+1	2.00012E+1	1.39976E+1
252	02/09/2022	14:20:32.523	0.00000E+0	0.00000E+0	2.00000E+1	0.00000E+0	0.00000E+0	0.00000E+0	2.00000E+1	1.40000E+1	1.99976E+1	1.39985E+1
253	02/09/2022	14:20:33.914	0.00000E+0	0.00000E+0	2.00000E+1	0.00000E+0	0.00000E+0	0.00000E+0	2.00000E+1	1.40000E+1	2.00015E+1	1.39992E+1
254	02/09/2022	14:20:35.357	0.00000E+0	0.00000E+0	2.00000E+1	0.00000E+0	0.00000E+0	0.00000E+0	2.00000E+1	1.40000E+1	2.00031E+1	1.40031E+1
255	02/09/2022	14:20:36.865	0.00000E+0	0.00000E+0	2.00000E+1	0.00000E+0	0.00000E+0	0.00000E+0	2.00000E+1	1.40000E+1	1.99989E+1	1.39989E+1
256	02/09/2022	14:20:38.259	0.00000E+0	0.00000E+0	2.00000E+1	0.00000E+0	0.00000E+0	0.00000E+0	2.00000E+1	1.40000E+1	2.00011E+1	1.39992E+1
257	02/09/2022	14:20:39.805	0.00000E+0	0.00000E+0	2.00000E+1	0.00000E+0	0.00000E+0	0.00000E+0	2.00000E+1	1.40000E+1	1.99991E+1	1.40003E+1
258	02/09/2022	14:20:41.185	0.00000E+0	0.00000E+0	2.00000E+1	0.00000E+0	0.00000E+0	0.00000E+0	2.00000E+1	1.40000E+1	2.00022E+1	1.40001E+1
259	02/09/2022	14:20:42.561	0.00000E+0	0.00000E+0	2.00000E+1	0.00000E+0	0.00000E+0	0.00000E+0	2.00000E+1	1.40000E+1	2.00013E+1	1.40008E+1
260	02/09/2022	14:20:44.031	0.00000E+0	0.00000E+0	2.00000E+1	0.00000E+0	0.00000E+0	0.00000E+0	2.00000E+1	1.40000E+1	2.00036E+1	1.39983E+1
261	02/09/2022	14:20:45.414	0.00000E+0	0.00000E+0	2.00000E+1	0.00000E+0	0.00000E+0	0.00000E+0	2.00000E+1	1.40000E+1	2.00000E+1	1.39976E+1
262	02/09/2022	14:20:46.898	0.00000E+0	0.00000E+0	2.00000E+1	0.00000E+0	0.00000E+0	0.00000E+0	2.00000E+1	1.40000E+1	1.99988E+1	1.40007E+1
263	02/09/2022	14:20:48.326	0.00000E+0	0.00000E+0	2.00000E+1	0.00000E+0	0.00000E+0	0.00000E+0	2.00000E+1	1.40000E+1	2.00027E+1	1.39991E+1
264	02/09/2022	14:20:49.723	0.00000E+0	0.00000E+0	2.00000E+1	0.00000E+0	0.00000E+0	0.00000E+0	2.00000E+1	1.40000E+1	2.00011E+1	1.40002E+1
265	02/09/2022	14:20:51.262	0.00000E+0	0.00000E+0	2.00000E+1	0.00000E+0	0.00000E+0	0.00000E+0	2.00000E+1	1.40000E+1	2.00012E+1	1.40010E+1
266	02/09/2022	14:20:52.635	0.00000E+0	0.00000E+0	2.00000E+1	0.00000E+0	0.00000E+0	0.00000E+0	2.00000E+1	1.40000E+1	1.99966E+1	1.40018E+1
267	02/09/2022	14:20:54.081	0.00000E+0	0.00000E+0	2.00000E+1	0.00000E+0	0.00000E+0	0.00000E+0	2.00000E+1	1.40000E+1	2.00004E+1	1.39976E+1
268	02/09/2022	14:20:55.572	0.00000E+0	0.00000E+0	2.00000E+1	0.00000E+0	0.00000E+0	0.00000E+0	2.00000E+1	1.40000E+1	1.99992E+1	1.40011E+1
269	02/09/2022	14:20:56.967	0.00000E+0	0.00000E+0	2.00000E+1	0.00000E+0	0.00000E+0	0.00000E+0	2.00000E+1	1.40000E+1	2.00000E+1	1.39987E+1
270	02/09/2022	14:20:58.397	0.00000E+0	0.00000E+0	2.00000E+1	0.00000E+0	0.00000E+0	0.00000E+0	2.00000E+1	1.40000E+1	2.00008E+1	1.40016E+1
271	02/09/2022	14:20:59.777	0.00000E+0	0.00000E+0	2.00000E+1	0.00000E+0	0.00000E+0	0.00000E+0	2.00000E+1	1.40000E+1	1.99999E+1	1.40017E+1
272	02/09/2022	14:21:01.162	0.00000E+0	0.00000E+0	2.00000E+1	0.00000E+0	0.00000E+0	0.00000E+0	2.00000E+1	1.40000E+1	2.00009E+1	1.40010E+1
273	02/09/2022	14:21:02.715	0.00000E+0	0.00000E+0	2.00000E+1	0.00000E+0	0.00000E+0	0.00000E+0	2.00000E+1	1.40000E+1	1.99978E+1	1.40013E+1
274	02/09/2022	14:21:04.097	0.00000E+0	0.00000E+0	2.00000E+1	0.00000E+0	0.00000E+0	0.00000E+0	2.00000E+1	1.40000E+1	1.99986E+1	1.39998E+1
275	02/09/2022	14:21:05.584	0.00000E+0	0.00000E+0	2.00000E+1	0.00000E+0	0.00000E+0	0.00000E+0	2.00000E+1	1.40000E+1	1.99996E+1	1.39993E+1
276	02/09/2022	14:21:07.026	0.00000E+0	0.00000E+0	2.00000E+1	0.00000E+0	0.00000E+0	0.00000E+0	2.00000E+1	1.40000E+1	2.00014E+1	1.39989E+1
277	02/09/2022	14:21:08.443	0.00000E+0	0.00000E+0	2.00000E+1	0.00000E+0	0.00000E+0	0.00000E+0	2.00000E+1	1.40000E+1	2.00011E+1	1.40006E+1
278	02/09/2022	14:21:09.984	0.00000E+0	0.00000E+0	2.00000E+1	0.00000E+0	0.00000E+0	0.00000E+0	2.00000E+1	1.40000E+1	1.99992E+1	1.39985E+1
279	02/09/2022	14:21:11.365	0.00000E+0	0.00000E+0	2.00000E+1	0.00000E+0	0.00000E+0	0.00000E+0	2.00000E+1	1.40000E+1	2.00019E+1	1.39983E+1
280	02/09/2022	14:21:12.804	0.00000E+0	0.00000E+0	2.00000E+1	0.00000E+0	0.00000E+0	0.00000E+0	2.00000E+1	1.40000E+1	2.00018E+1	1.40005E+1
281	02/09/2022	14:21:14.304	0.00000E+0	0.00000E+0	2.00000E+1	0.00000E+0	0.00000E+0	0.00000E+0	2.00000E+1	1.40000E+1	1.99997E+1	1.40000E+1
282	02/09/2022	14:21:15.685	0.00000E+0	0.00000E+0	2.00000E+1	0.00000E+0	0.00000E+0	0.00000E+0	2.00000E+1	1.40000E+1	1.99994E+1	1.40012E+1
283	02/09/2022	14:21:17.179	0.00000E+0	0.00000E+0	2.00000E+1	0.00000E+0	0.00000E+0	0.00000E+0	2.00000E+1	1.40000E+1	1.99986E+1	1.39992E+1
284	02/09/2022	14:21:18.597	0.00000E+0	0.00000E+0	2.00000E+1	0.00000E+0	0.00000E+0	0.00000E+0	2.00000E+1	1.40000E+1	1.99977E+1	1.39992E+1
285	02/09/2022	14:21:19.987	0.00000E+0	0.00000E+0	2.00000E+1	0.00000E+0	0.00000E+0	0.00000E+0	2.00000E+1	1.40000E+1	2.00001E+1	1.40009E+1
286	02/09/2022	14:21:21.514	0.00000E+0	0.00000E+0	2.00000E+1	0.00000E+0	0.00000E+0	0.00000E+0	2.00000E+1	1.40000E+1	1.99996E+1	1.39984E+1
287	02/09/2022	14:21:22.906	0.00000E+0	0.00000E+0	2.00000E+1	0.00000E+0	0.00000E+0	0.00000E+0	2.00000E+1	1.40000E+1	1.99977E+1	1.40036E+1
288	02/09/2022	14:21:24.306	0.00000E+0	0.00000E+0	2.00000E+1	0.00000E+0	0.00000E+0	0.00000E+0	2.00000E+1	1.40000E+1	1.99989E+1	1.39993E+1
289	02/09/2022	14:21:25.818	0.00000E+0	0.00000E+0	2.00000E+1	0.00000E+0	0.00000E+0	0.00000E+0	2.00000E+1	1.40000E+1	1.99995E+1	1.40023E+1
290	02/09/2022	14:21:27.208	0.00000E+0	0.00000E+0	2.00000E+1	0.00000E+0	0.00000E+0	0.00000E+0	2.00000E+1	1.40000E+1	1.99999E+1	1.39979E+1
291	02/09/2022	14:21:28.679	0.00000E+0	0.00000E+0	2.00000E+1	0.00000E+0	0.00000E+0	0.00000E+0	2.00000E+1	1.40000E+1	2.00028E+1	1.39981E+1
292	02/09/2022	14:21:30.068	0.00000E+0	0.00000E+0	2.00000E+1	0.00000E+0	0.00000E+0	0.00000E+0	2.00000E+1	1.40000E+1	1.99994E+1	1.40002E+1
293	02/09/2022	14:21:31.477	0.00000E+0	0.00000E+0	2.00000E+1	0.00000E+0	0.00000E+0	0.00000E+0	2.00000E+1	1.40000E+1	2.00016E+1	1.40001E+1
294	02/09/2022	14:21:33.030	0.00000E+0	0.00000E+0	2.00000E+1	0.00000E+0	0.00000E+0	0.00000E+0	2.00000E+1	1.40000E+1	2.00003E+1	1.39972E+1
295	02/09/2022	14:21:34.408	0.00000E+0	0.00000E+0	2.00000E+1	0.00000E+0	0.00000E+0	0.00000E+0	2.00000E+1	1.40000E+1	1.99998E+1	1.40012E+1
296	02/09/2022	14:21:35.834	0.00000E+0	0.00000E+0	2.00000E+1	0.00000E+0	0.00000E+0	0.00000E+0	2.00000E+1	1.40000E+1	2.00017E+1	1.40008E+1
297	02/09/2022	14:21:37.180	0.00000E+0	0.00000E+0	2.00000E+1	0.00000E+0	0.00000E+0	0.00000E+0	2.00000E+1	1.40000E+1	1.99981E+1	1.39996E+1
298	02/09/2022	14:21:38.582	0.00000E+0	0.00000E+0	2.00000E+1	0.00000E+0	0.00000E+0	0.00000E+0	2.00000E+1	1.40000E+1	1.99993E+1	1.40011E+1
299	02/09/2022	14:21:40.097	0.00000E+0	0.00000E+0	2.00000E+1	0.00000E+0	0.00000E+0	0.00000E+0	2.00000E+1	1.40000E+1	1.99992E+1	1.40023E+1
300	02/09/2022	14:21:41.484	0.00000E+0	0.00000E+0	2.00000E+1	0.00000E+0	0.00000E+0	0.00000E+0	2.00000E+1	1.40000E+1	1.99991E+1	1.40012E+1
301	02/09/2022	14:21:42.918	0.00000E+0	0.00000E+0	2.00000E+1	0.00000E+0	0.00000E+0	0.00000E+0	2.00000E+1	1.40000E+1	2.00006E+1	1.39980E+1
