#Iteration	Date	Time	STSX	STSY	RotationRateX	RotationRateY	FrCntX	FrCntY	TiptiltCmd1	TiptiltCmd2	TiptiltMonitor1	TiptiltMonitor2
1	20/03/2023	18:24:49.684	0.00000E+0	0.00000E+0	-1.41503E-1	-7.56753E-3	0.00000E+0	0.00000E+0	2.12531E+1	1.37007E+1	2.12554E+1	1.36984E+1
2	20/03/2023	18:24:51.177	0.00000E+0	0.00000E+0	-2.26423E-2	-1.38292E-1	0.00000E+0	0.00000E+0	2.12482E+1	1.37018E+1	2.12471E+1	1.37015E+1
3	20/03/2023	18:24:52.677	0.00000E+0	0.00000E+0	8.54331E-2	1.82811E-1	0.00000E+0	0.00000E+0	2.12498E+1	1.37001E+1	2.12499E+1	1.36993E+1
4	20/03/2023	18:24:54.204	0.00000E+0	0.00000E+0	1.20916E-1	1.35541E-1	0.00000E+0	0.00000E+0	2.12509E+1	1.36986E+1	2.12513E+1	1.36954E+1
5	20/03/2023	18:24:55.799	0.00000E+0	0.00000E+0	-1.40758E-1	-6.41427E-2	0.00000E+0	0.00000E+0	2.12527E+1	1.37007E+1	2.12507E+1	1.37011E+1
6	20/03/2023	18:24:57.401	0.00000E+0	0.00000E+0	-2.06035E-1	-5.27750E-2	0.00000E+0	0.00000E+0	2.12469E+1	1.37010E+1	2.12474E+1	1.36992E+1
7	20/03/2023	18:24:58.905	0.00000E+0	0.00000E+0	6.53696E-2	2.46076E-2	0.00000E+0	0.00000E+0	2.12505E+1	1.36994E+1	2.12528E+1	1.36988E+1
8	20/03/2023	18:25:00.408	0.00000E+0	0.00000E+0	-3.36301E-2	1.01032E-2	0.00000E+0	0.00000E+0	2.12495E+1	1.36998E+1	2.12520E+1	1.37019E+1
9	20/03/2023	18:25:01.998	0.00000E+0	0.00000E+0	-1.19483E-1	-9.11615E-3	0.00000E+0	0.00000E+0	2.12474E+1	1.37005E+1	2.12475E+1	1.36994E+1
10	20/03/2023	18:25:03.582	0.00000E+0	0.00000E+0	1.62379E-1	1.26534E-1	0.00000E+0	0.00000E+0	2.12533E+1	1.36995E+1	2.12549E+1	1.36977E+1
11	20/03/2023	18:25:05.082	0.00000E+0	0.00000E+0	-2.13420E-1	-2.80519E-2	0.00000E+0	0.00000E+0	2.12493E+1	1.37021E+1	2.12502E+1	1.37006E+1
12	20/03/2023	18:25:06.568	0.00000E+0	0.00000E+0	-4.53138E-2	6.21085E-2	0.00000E+0	0.00000E+0	2.12509E+1	1.37007E+1	2.12509E+1	1.37037E+1
13	20/03/2023	18:25:08.079	0.00000E+0	0.00000E+0	9.14963E-2	6.26221E-2	0.00000E+0	0.00000E+0	2.12497E+1	1.37026E+1	2.12491E+1	1.37014E+1
14	20/03/2023	18:25:09.676	0.00000E+0	0.00000E+0	-2.20006E-2	-1.06019E-2	0.00000E+0	0.00000E+0	2.12500E+1	1.37018E+1	2.12486E+1	1.37037E+1
15	20/03/2023	18:25:11.182	0.00000E+0	0.00000E+0	-1.98422E-1	5.09235E-2	0.00000E+0	0.00000E+0	2.12499E+1	1.37002E+1	2.12501E+1	1.37010E+1
16	20/03/2023	18:25:12.707	0.00000E+0	0.00000E+0	-1.04678E-1	6.06996E-4	0.00000E+0	0.00000E+0	2.12504E+1	1.37019E+1	2.12506E+1	1.37010E+1
17	20/03/2023	18:25:14.277	0.00000E+0	0.00000E+0	4.26321E-2	5.62349E-2	0.00000E+0	0.00000E+0	2.12491E+1	1.37013E+1	2.12482E+1	1.37028E+1
18	20/03/2023	18:25:15.803	0.00000E+0	0.00000E+0	4.20464E-2	-7.36146E-3	0.00000E+0	0.00000E+0	2.12475E+1	1.37013E+1	2.12469E+1	1.37034E+1
19	20/03/2023	18:25:17.364	0.00000E+0	0.00000E+0	-1.17125E-1	1.12677E-2	0.00000E+0	0.00000E+0	2.12483E+1	1.37013E+1	2.12493E+1	1.37017E+1
20	20/03/2023	18:25:18.869	0.00000E+0	0.00000E+0	-1.19425E-1	-2.97895E-4	0.00000E+0	0.00000E+0	2.12496E+1	1.37006E+1	2.12495E+1	1.36997E+1
21	20/03/2023	18:25:20.440	0.00000E+0	0.00000E+0	1.01347E-2	4.02703E-2	0.00000E+0	0.00000E+0	2.12475E+1	1.37004E+1	2.12494E+1	1.37006E+1
22	20/03/2023	18:25:21.985	0.00000E+0	0.00000E+0	-1.14909E-1	8.85003E-2	0.00000E+0	0.00000E+0	2.12508E+1	1.37011E+1	2.12518E+1	1.37005E+1
23	20/03/2023	18:25:23.537	0.00000E+0	0.00000E+0	-1.42002E-1	-1.55105E-2	0.00000E+0	0.00000E+0	2.12496E+1	1.37002E+1	2.12493E+1	1.37015E+1
24	20/03/2023	18:25:25.102	0.00000E+0	0.00000E+0	4.32767E-3	1.08299E-1	0.00000E+0	0.00000E+0	2.12493E+1	1.36998E+1	2.12514E+1	1.36989E+1
25	20/03/2023	18:25:26.641	0.00000E+0	0.00000E+0	1.32790E-1	1.28599E-1	0.00000E+0	0.00000E+0	2.12492E+1	1.37006E+1	2.12504E+1	1.36994E+1
26	20/03/2023	18:25:28.226	0.00000E+0	0.00000E+0	-1.18001E-1	3.28351E-2	0.00000E+0	0.00000E+0	2.12507E+1	1.37018E+1	2.12525E+1	1.36995E+1
27	20/03/2023	18:25:29.816	0.00000E+0	0.00000E+0	-9.37418E-3	-2.63477E-2	0.00000E+0	0.00000E+0	2.12494E+1	1.37002E+1	2.12543E+1	1.37009E+1
28	20/03/2023	18:25:31.320	0.00000E+0	0.00000E+0	-5.54616E-3	1.08204E-1	0.00000E+0	0.00000E+0	2.12509E+1	1.37003E+1	2.12502E+1	1.36991E+1
29	20/03/2023	18:25:32.902	0.00000E+0	0.00000E+0	-9.62636E-2	-6.90783E-2	0.00000E+0	0.00000E+0	2.12484E+1	1.37025E+1	2.12473E+1	1.37039E+1
30	20/03/2023	18:25:34.475	0.00000E+0	0.00000E+0	-2.47627E-1	-1.31078E-1	0.00000E+0	0.00000E+0	2.12530E+1	1.36997E+1	2.12542E+1	1.36998E+1
31	20/03/2023	18:25:35.995	0.00000E+0	0.00000E+0	5.57771E-2	2.30142E-2	0.00000E+0	0.00000E+0	2.12513E+1	1.37012E+1	2.12502E+1	1.36996E+1
32	20/03/2023	18:25:37.576	0.00000E+0	0.00000E+0	-2.54462E-2	-5.68011E-2	0.00000E+0	0.00000E+0	2.12474E+1	1.37012E+1	2.12450E+1	1.37013E+1
33	20/03/2023	18:25:39.081	0.00000E+0	0.00000E+0	1.99031E-2	9.43029E-2	0.00000E+0	0.00000E+0	2.12482E+1	1.37013E+1	2.12486E+1	1.37020E+1
34	20/03/2023	18:25:40.591	0.00000E+0	0.00000E+0	6.42671E-2	5.38337E-2	0.00000E+0	0.00000E+0	2.12492E+1	1.37016E+1	2.12495E+1	1.37053E+1
35	20/03/2023	18:25:42.166	0.00000E+0	0.00000E+0	-2.64473E-2	2.64009E-2	0.00000E+0	0.00000E+0	2.12484E+1	1.37001E+1	2.12482E+1	1.37005E+1
36	20/03/2023	18:25:43.672	0.00000E+0	0.00000E+0	-3.34221E-2	8.61237E-2	0.00000E+0	0.00000E+0	2.12501E+1	1.37015E+1	2.12513E+1	1.37021E+1
37	20/03/2023	18:25:45.171	0.00000E+0	0.00000E+0	-1.24808E-1	-4.68626E-2	0.00000E+0	0.00000E+0	2.12517E+1	1.37018E+1	2.12513E+1	1.37008E+1
38	20/03/2023	18:25:46.828	0.00000E+0	0.00000E+0	-1.47411E-1	-5.72332E-2	0.00000E+0	0.00000E+0	2.12517E+1	1.37002E+1	2.12512E+1	1.36984E+1
39	20/03/2023	18:25:48.440	0.00000E+0	0.00000E+0	-2.65369E-3	2.73961E-2	0.00000E+0	0.00000E+0	2.12504E+1	1.37001E+1	2.12496E+1	1.37011E+1
40	20/03/2023	18:25:49.978	0.00000E+0	0.00000E+0	1.32501E-2	4.02880E-2	0.00000E+0	0.00000E+0	2.12494E+1	1.36997E+1	2.12511E+1	1.37001E+1
41	20/03/2023	18:25:51.550	0.00000E+0	0.00000E+0	-1.73798E-1	9.45388E-3	0.00000E+0	0.00000E+0	2.12486E+1	1.37012E+1	2.12503E+1	1.36989E+1
42	20/03/2023	18:25:53.106	0.00000E+0	0.00000E+0	-1.85710E-1	4.24851E-2	0.00000E+0	0.00000E+0	2.12465E+1	1.37010E+1	2.12474E+1	1.36989E+1
43	20/03/2023	18:25:54.699	0.00000E+0	0.00000E+0	1.20612E-1	1.53523E-1	0.00000E+0	0.00000E+0	2.12514E+1	1.37006E+1	2.12503E+1	1.37010E+1
44	20/03/2023	18:25:56.227	0.00000E+0	0.00000E+0	-4.79311E-2	-2.46493E-2	0.00000E+0	0.00000E+0	2.12469E+1	1.37020E+1	2.12480E+1	1.37014E+1
45	20/03/2023	18:25:57.800	0.00000E+0	0.00000E+0	6.43134E-3	3.10191E-3	0.00000E+0	0.00000E+0	2.12471E+1	1.36999E+1	2.12488E+1	1.37006E+1
46	20/03/2023	18:25:59.299	0.00000E+0	0.00000E+0	-7.41011E-2	1.24510E-1	0.00000E+0	0.00000E+0	2.12500E+1	1.36989E+1	2.12509E+1	1.37003E+1
47	20/03/2023	18:26:00.871	0.00000E+0	0.00000E+0	-8.16119E-2	-7.09049E-2	0.00000E+0	0.00000E+0	2.12479E+1	1.37011E+1	2.12494E+1	1.37049E+1
48	20/03/2023	18:26:02.383	0.00000E+0	0.00000E+0	-1.01458E-1	4.32710E-2	0.00000E+0	0.00000E+0	2.12505E+1	1.37009E+1	2.12483E+1	1.37006E+1
49	20/03/2023	18:26:03.878	0.00000E+0	0.00000E+0	-2.11174E-1	-6.00179E-2	0.00000E+0	0.00000E+0	2.12505E+1	1.37015E+1	2.12499E+1	1.37015E+1
50	20/03/2023	18:26:05.462	0.00000E+0	0.00000E+0	-2.60078E-1	-8.29209E-2	0.00000E+0	0.00000E+0	2.12481E+1	1.37003E+1	2.12503E+1	1.37007E+1
51	20/03/2023	18:26:06.978	0.00000E+0	0.00000E+0	-1.09199E-1	-1.25200E-1	0.00000E+0	0.00000E+0	2.12477E+1	1.37017E+1	2.12482E+1	1.37028E+1
52	20/03/2023	18:26:08.573	0.00000E+0	0.00000E+0	-8.84335E-2	3.02029E-2	0.00000E+0	0.00000E+0	2.12486E+1	1.37007E+1	2.12499E+1	1.36988E+1
53	20/03/2023	18:26:10.092	0.00000E+0	0.00000E+0	-6.50801E-2	9.43801E-4	0.00000E+0	0.00000E+0	2.12494E+1	1.37002E+1	2.12488E+1	1.37024E+1
54	20/03/2023	18:26:11.601	0.00000E+0	0.00000E+0	-1.15239E-1	4.51375E-2	0.00000E+0	0.00000E+0	2.12476E+1	1.37026E+1	2.12461E+1	1.37047E+1
55	20/03/2023	18:26:13.103	0.00000E+0	0.00000E+0	2.14350E-2	1.14355E-2	0.00000E+0	0.00000E+0	2.12497E+1	1.37006E+1	2.12501E+1	1.36995E+1
56	20/03/2023	18:26:14.674	0.00000E+0	0.00000E+0	2.06617E-2	-3.86681E-2	0.00000E+0	0.00000E+0	2.12519E+1	1.37005E+1	2.12515E+1	1.37017E+1
57	20/03/2023	18:26:16.195	0.00000E+0	0.00000E+0	1.24821E-1	1.07819E-1	0.00000E+0	0.00000E+0	2.12514E+1	1.37012E+1	2.12518E+1	1.37027E+1
58	20/03/2023	18:26:17.832	0.00000E+0	0.00000E+0	-6.60166E-2	-2.77226E-2	0.00000E+0	0.00000E+0	2.12499E+1	1.37022E+1	2.12515E+1	1.37015E+1
59	20/03/2023	18:26:19.370	0.00000E+0	0.00000E+0	3.10685E-2	3.70984E-2	0.00000E+0	0.00000E+0	2.12468E+1	1.37003E+1	2.12475E+1	1.37005E+1
60	20/03/2023	18:26:20.874	0.00000E+0	0.00000E+0	-1.45071E-1	4.58369E-2	0.00000E+0	0.00000E+0	2.12492E+1	1.37007E+1	2.12488E+1	1.37022E+1
61	20/03/2023	18:26:22.437	0.00000E+0	0.00000E+0	-4.43655E-2	1.52421E-2	0.00000E+0	0.00000E+0	2.12494E+1	1.37010E+1	2.12517E+1	1.36985E+1
62	20/03/2023	18:26:23.949	0.00000E+0	0.00000E+0	2.50162E-2	5.56298E-2	0.00000E+0	0.00000E+0	2.12513E+1	1.37009E+1	2.12523E+1	1.37012E+1
63	20/03/2023	18:26:25.451	0.00000E+0	0.00000E+0	-2.75101E-1	-7.45839E-2	0.00000E+0	0.00000E+0	2.12487E+1	1.37030E+1	2.12517E+1	1.37059E+1
64	20/03/2023	18:26:27.019	0.00000E+0	0.00000E+0	4.12806E-3	-2.01348E-2	0.00000E+0	0.00000E+0	2.12495E+1	1.37022E+1	2.12479E+1	1.36989E+1
65	20/03/2023	18:26:28.538	0.00000E+0	0.00000E+0	-1.23915E-1	-2.57429E-4	0.00000E+0	0.00000E+0	2.12507E+1	1.36997E+1	2.12523E+1	1.37006E+1
66	20/03/2023	18:26:30.123	0.00000E+0	0.00000E+0	-4.45785E-2	1.51173E-2	0.00000E+0	0.00000E+0	2.12487E+1	1.37017E+1	2.12488E+1	1.37019E+1
67	20/03/2023	18:26:31.709	0.00000E+0	0.00000E+0	-2.97894E-2	3.50408E-3	0.00000E+0	0.00000E+0	2.12489E+1	1.37010E+1	2.12498E+1	1.36992E+1
68	20/03/2023	18:26:33.218	0.00000E+0	0.00000E+0	-1.79667E-1	-8.35609E-2	0.00000E+0	0.00000E+0	2.12467E+1	1.37021E+1	2.12475E+1	1.37010E+1
69	20/03/2023	18:26:34.794	0.00000E+0	0.00000E+0	5.86298E-2	4.12452E-2	0.00000E+0	0.00000E+0	2.12526E+1	1.36999E+1	2.12539E+1	1.37013E+1
70	20/03/2023	18:26:36.288	0.00000E+0	0.00000E+0	-1.91099E-1	-9.04334E-2	0.00000E+0	0.00000E+0	2.12474E+1	1.37014E+1	2.12501E+1	1.36991E+1
71	20/03/2023	18:26:37.836	0.00000E+0	0.00000E+0	-1.67520E-2	4.40741E-3	0.00000E+0	0.00000E+0	2.12473E+1	1.37013E+1	2.12470E+1	1.37016E+1
72	20/03/2023	18:26:39.360	0.00000E+0	0.00000E+0	-9.25973E-2	-5.17232E-2	0.00000E+0	0.00000E+0	2.12514E+1	1.37007E+1	2.12512E+1	1.37029E+1
73	20/03/2023	18:26:40.900	0.00000E+0	0.00000E+0	1.28291E-2	6.30796E-2	0.00000E+0	0.00000E+0	2.12504E+1	1.37017E+1	2.12512E+1	1.37031E+1
74	20/03/2023	18:26:42.427	0.00000E+0	0.00000E+0	1.68048E-2	8.16176E-4	0.00000E+0	0.00000E+0	2.12477E+1	1.37022E+1	2.12485E+1	1.37037E+1
75	20/03/2023	18:26:43.965	0.00000E+0	0.00000E+0	5.87638E-2	1.05435E-1	0.00000E+0	0.00000E+0	2.12521E+1	1.37014E+1	2.12500E+1	1.37002E+1
76	20/03/2023	18:26:45.578	0.00000E+0	0.00000E+0	-1.67288E-1	3.59771E-2	0.00000E+0	0.00000E+0	2.12509E+1	1.37015E+1	2.12496E+1	1.37011E+1
77	20/03/2023	18:26:47.254	0.00000E+0	0.00000E+0	-4.86033E-2	-4.37358E-2	0.00000E+0	0.00000E+0	2.12469E+1	1.37020E+1	2.12482E+1	1.37027E+1
78	20/03/2023	18:26:48.836	0.00000E+0	0.00000E+0	-5.26204E-2	1.21915E-1	0.00000E+0	0.00000E+0	2.12514E+1	1.37007E+1	2.12512E+1	1.36988E+1
79	20/03/2023	18:26:50.405	0.00000E+0	0.00000E+0	4.95603E-4	2.97870E-2	0.00000E+0	0.00000E+0	2.12523E+1	1.37004E+1	2.12519E+1	1.37004E+1
80	20/03/2023	18:26:51.932	0.00000E+0	0.00000E+0	7.12680E-2	4.93612E-2	0.00000E+0	0.00000E+0	2.12486E+1	1.37010E+1	2.12488E+1	1.37024E+1
81	20/03/2023	18:26:53.511	0.00000E+0	0.00000E+0	-4.65105E-2	4.49426E-2	0.00000E+0	0.00000E+0	2.12504E+1	1.37008E+1	2.12504E+1	1.36991E+1
82	20/03/2023	18:26:55.109	0.00000E+0	0.00000E+0	-1.41510E-1	2.64056E-2	0.00000E+0	0.00000E+0	2.12477E+1	1.37015E+1	2.12474E+1	1.37025E+1
83	20/03/2023	18:26:56.633	0.00000E+0	0.00000E+0	-2.30286E-1	-7.20501E-2	0.00000E+0	0.00000E+0	2.12489E+1	1.37011E+1	2.12469E+1	1.37017E+1
84	20/03/2023	18:26:58.195	0.00000E+0	0.00000E+0	-9.44510E-2	4.18556E-2	0.00000E+0	0.00000E+0	2.12505E+1	1.36998E+1	2.12478E+1	1.37005E+1
85	20/03/2023	18:26:59.769	0.00000E+0	0.00000E+0	4.23930E-2	3.03679E-2	0.00000E+0	0.00000E+0	2.12519E+1	1.37011E+1	2.12518E+1	1.37018E+1
86	20/03/2023	18:27:01.356	0.00000E+0	0.00000E+0	-2.19600E-1	-9.61843E-2	0.00000E+0	0.00000E+0	2.12470E+1	1.37022E+1	2.12458E+1	1.36991E+1
87	20/03/2023	18:27:02.918	0.00000E+0	0.00000E+0	-1.86326E-1	-2.63218E-3	0.00000E+0	0.00000E+0	2.12482E+1	1.37007E+1	2.12487E+1	1.37021E+1
88	20/03/2023	18:27:04.457	0.00000E+0	0.00000E+0	-6.68617E-2	-3.99839E-3	0.00000E+0	0.00000E+0	2.12497E+1	1.37018E+1	2.12493E+1	1.36995E+1
89	20/03/2023	18:27:06.032	0.00000E+0	0.00000E+0	-5.72764E-2	1.62719E-2	0.00000E+0	0.00000E+0	2.12480E+1	1.37008E+1	2.12486E+1	1.36987E+1
90	20/03/2023	18:27:07.635	0.00000E+0	0.00000E+0	4.13341E-2	3.75313E-2	0.00000E+0	0.00000E+0	2.12498E+1	1.37003E+1	2.12473E+1	1.36996E+1
91	20/03/2023	18:27:09.220	0.00000E+0	0.00000E+0	-1.75111E-1	-1.62613E-2	0.00000E+0	0.00000E+0	2.12486E+1	1.37020E+1	2.12456E+1	1.37023E+1
92	20/03/2023	18:27:10.798	0.00000E+0	0.00000E+0	1.60288E-2	8.17711E-2	0.00000E+0	0.00000E+0	2.12489E+1	1.37002E+1	2.12470E+1	1.37022E+1
93	20/03/2023	18:27:12.316	0.00000E+0	0.00000E+0	-1.55397E-1	-7.80668E-2	0.00000E+0	0.00000E+0	2.12466E+1	1.37023E+1	2.12482E+1	1.37008E+1
94	20/03/2023	18:27:13.880	0.00000E+0	0.00000E+0	-1.41894E-1	-3.27877E-2	0.00000E+0	0.00000E+0	2.12461E+1	1.37014E+1	2.12470E+1	1.37014E+1
95	20/03/2023	18:27:15.403	0.00000E+0	0.00000E+0	-1.16279E-1	-1.97601E-2	0.00000E+0	0.00000E+0	2.12496E+1	1.37002E+1	2.12494E+1	1.36999E+1
96	20/03/2023	18:27:16.909	0.00000E+0	0.00000E+0	-1.93447E-2	3.13534E-2	0.00000E+0	0.00000E+0	2.12481E+1	1.37010E+1	2.12484E+1	1.37030E+1
97	20/03/2023	18:27:18.414	0.00000E+0	0.00000E+0	1.55041E-1	4.27250E-2	0.00000E+0	0.00000E+0	2.12514E+1	1.37001E+1	2.12536E+1	1.37025E+1
98	20/03/2023	18:27:19.979	0.00000E+0	0.00000E+0	7.45025E-2	6.61109E-2	0.00000E+0	0.00000E+0	2.12508E+1	1.37009E+1	2.12510E+1	1.37015E+1
99	20/03/2023	18:27:21.499	0.00000E+0	0.00000E+0	-7.07463E-2	-3.97069E-3	0.00000E+0	0.00000E+0	2.12487E+1	1.37007E+1	2.12491E+1	1.37000E+1
100	20/03/2023	18:27:23.086	0.00000E+0	0.00000E+0	-2.30954E-1	-3.71522E-2	0.00000E+0	0.00000E+0	2.12514E+1	1.37006E+1	2.12514E+1	1.37013E+1
101	20/03/2023	18:27:24.593	0.00000E+0	0.00000E+0	-1.79213E-1	-2.24557E-3	0.00000E+0	0.00000E+0	2.12508E+1	1.37010E+1	2.12486E+1	1.37004E+1
102	20/03/2023	18:27:26.100	0.00000E+0	0.00000E+0	-1.34344E-1	-2.76862E-2	0.00000E+0	0.00000E+0	2.12478E+1	1.37032E+1	2.12484E+1	1.37035E+1
103	20/03/2023	18:27:27.670	0.00000E+0	0.00000E+0	4.69949E-2	4.50263E-2	0.00000E+0	0.00000E+0	2.12500E+1	1.36999E+1	2.12509E+1	1.37002E+1
104	20/03/2023	18:27:29.164	0.00000E+0	0.00000E+0	-1.32672E-2	6.39316E-2	0.00000E+0	0.00000E+0	2.12472E+1	1.37023E+1	2.12471E+1	1.37040E+1
105	20/03/2023	18:27:30.691	0.00000E+0	0.00000E+0	-4.98694E-2	-7.33491E-2	0.00000E+0	0.00000E+0	2.12485E+1	1.37024E+1	2.12479E+1	1.37025E+1
106	20/03/2023	18:27:32.282	0.00000E+0	0.00000E+0	-4.34865E-2	1.13019E-1	0.00000E+0	0.00000E+0	2.12496E+1	1.37010E+1	2.12482E+1	1.37008E+1
107	20/03/2023	18:27:33.809	0.00000E+0	0.00000E+0	-3.06487E-1	-3.88045E-2	0.00000E+0	0.00000E+0	2.12460E+1	1.37022E+1	2.12451E+1	1.37025E+1
108	20/03/2023	18:27:35.345	0.00000E+0	0.00000E+0	-5.19619E-2	6.26516E-2	0.00000E+0	0.00000E+0	2.12509E+1	1.37019E+1	2.12509E+1	1.37022E+1
109	20/03/2023	18:27:36.859	0.00000E+0	0.00000E+0	-1.73088E-2	-4.21974E-2	0.00000E+0	0.00000E+0	2.12522E+1	1.37012E+1	2.12533E+1	1.37001E+1
110	20/03/2023	18:27:38.374	0.00000E+0	0.00000E+0	1.38514E-3	-1.22520E-2	0.00000E+0	0.00000E+0	2.12500E+1	1.37013E+1	2.12517E+1	1.36985E+1
111	20/03/2023	18:27:39.962	0.00000E+0	0.00000E+0	6.33853E-2	8.25362E-2	0.00000E+0	0.00000E+0	2.12484E+1	1.37015E+1	2.12495E+1	1.37008E+1
112	20/03/2023	18:27:41.551	0.00000E+0	0.00000E+0	-6.70423E-2	6.94086E-2	0.00000E+0	0.00000E+0	2.12501E+1	1.37007E+1	2.12489E+1	1.37019E+1
113	20/03/2023	18:27:43.097	0.00000E+0	0.00000E+0	-2.32077E-1	-1.20644E-1	0.00000E+0	0.00000E+0	2.12466E+1	1.37029E+1	2.12479E+1	1.37011E+1
114	20/03/2023	18:27:44.627	0.00000E+0	0.00000E+0	1.85920E-2	8.27572E-2	0.00000E+0	0.00000E+0	2.12505E+1	1.37005E+1	2.12535E+1	1.37010E+1
115	20/03/2023	18:27:46.208	0.00000E+0	0.00000E+0	-2.50804E-1	-5.51513E-2	0.00000E+0	0.00000E+0	2.12472E+1	1.37012E+1	2.12471E+1	1.37010E+1
116	20/03/2023	18:27:47.733	0.00000E+0	0.00000E+0	-1.43012E-1	4.76262E-2	0.00000E+0	0.00000E+0	2.12516E+1	1.37005E+1	2.12482E+1	1.37018E+1
117	20/03/2023	18:27:49.243	0.00000E+0	0.00000E+0	-1.29856E-1	-2.07076E-2	0.00000E+0	0.00000E+0	2.12491E+1	1.37019E+1	2.12471E+1	1.37011E+1
118	20/03/2023	18:27:50.800	0.00000E+0	0.00000E+0	-6.75752E-2	8.08444E-2	0.00000E+0	0.00000E+0	2.12484E+1	1.37018E+1	2.12488E+1	1.37015E+1
119	20/03/2023	18:27:52.379	0.00000E+0	0.00000E+0	-1.88940E-1	-1.02358E-1	0.00000E+0	0.00000E+0	2.12485E+1	1.37028E+1	2.12489E+1	1.37009E+1
120	20/03/2023	18:27:53.913	0.00000E+0	0.00000E+0	-6.16780E-2	6.78603E-2	0.00000E+0	0.00000E+0	2.12500E+1	1.36999E+1	2.12525E+1	1.37005E+1
121	20/03/2023	18:27:55.431	0.00000E+0	0.00000E+0	2.30704E-2	4.86552E-2	0.00000E+0	0.00000E+0	2.12495E+1	1.37012E+1	2.12491E+1	1.36999E+1
122	20/03/2023	18:27:56.994	0.00000E+0	0.00000E+0	-6.19949E-2	-2.96108E-2	0.00000E+0	0.00000E+0	2.12480E+1	1.37023E+1	2.12479E+1	1.37037E+1
123	20/03/2023	18:27:58.558	0.00000E+0	0.00000E+0	-9.36780E-2	-5.17659E-4	0.00000E+0	0.00000E+0	2.12491E+1	1.37019E+1	2.12482E+1	1.37020E+1
124	20/03/2023	18:28:00.180	0.00000E+0	0.00000E+0	-3.30036E-2	3.61816E-2	0.00000E+0	0.00000E+0	2.12485E+1	1.37006E+1	2.12485E+1	1.36993E+1
125	20/03/2023	18:28:01.701	0.00000E+0	0.00000E+0	-1.40305E-1	-2.52376E-2	0.00000E+0	0.00000E+0	2.12483E+1	1.37017E+1	2.12492E+1	1.37016E+1
126	20/03/2023	18:28:03.264	0.00000E+0	0.00000E+0	-1.80732E-1	-6.33763E-2	0.00000E+0	0.00000E+0	2.12486E+1	1.37025E+1	2.12473E+1	1.37034E+1
127	20/03/2023	18:28:04.856	0.00000E+0	0.00000E+0	1.04793E-1	7.32146E-2	0.00000E+0	0.00000E+0	2.12515E+1	1.36999E+1	2.12546E+1	1.36994E+1
128	20/03/2023	18:28:06.376	0.00000E+0	0.00000E+0	-4.14367E-2	3.35684E-2	0.00000E+0	0.00000E+0	2.12488E+1	1.37022E+1	2.12500E+1	1.37031E+1
129	20/03/2023	18:28:07.950	0.00000E+0	0.00000E+0	1.18897E-1	1.01835E-1	0.00000E+0	0.00000E+0	2.12502E+1	1.36997E+1	2.12499E+1	1.36980E+1
130	20/03/2023	18:28:09.485	0.00000E+0	0.00000E+0	-7.61053E-2	-1.02628E-1	0.00000E+0	0.00000E+0	2.12490E+1	1.37009E+1	2.12509E+1	1.37017E+1
131	20/03/2023	18:28:10.985	0.00000E+0	0.00000E+0	-2.03292E-1	-3.36749E-2	0.00000E+0	0.00000E+0	2.12461E+1	1.37008E+1	2.12437E+1	1.37009E+1
132	20/03/2023	18:28:12.622	0.00000E+0	0.00000E+0	7.23540E-2	1.35962E-1	0.00000E+0	0.00000E+0	2.12522E+1	1.36991E+1	2.12538E+1	1.37007E+1
133	20/03/2023	18:28:14.129	0.00000E+0	0.00000E+0	-1.40494E-1	-1.25032E-2	0.00000E+0	0.00000E+0	2.12487E+1	1.37027E+1	2.12506E+1	1.37038E+1
134	20/03/2023	18:28:15.631	0.00000E+0	0.00000E+0	-4.68165E-2	1.36266E-2	0.00000E+0	0.00000E+0	2.12489E+1	1.37002E+1	2.12487E+1	1.36993E+1
135	20/03/2023	18:28:17.140	0.00000E+0	0.00000E+0	6.10177E-2	1.11617E-1	0.00000E+0	0.00000E+0	2.12490E+1	1.37008E+1	2.12488E+1	1.37005E+1
136	20/03/2023	18:28:18.714	0.00000E+0	0.00000E+0	-8.49630E-2	2.10223E-2	0.00000E+0	0.00000E+0	2.12463E+1	1.37010E+1	2.12463E+1	1.37036E+1
137	20/03/2023	18:28:20.265	0.00000E+0	0.00000E+0	-3.64850E-2	-4.23154E-3	0.00000E+0	0.00000E+0	2.12483E+1	1.37008E+1	2.12479E+1	1.37008E+1
138	20/03/2023	18:28:21.777	0.00000E+0	0.00000E+0	4.78842E-2	7.48435E-2	0.00000E+0	0.00000E+0	2.12495E+1	1.37006E+1	2.12489E+1	1.36988E+1
139	20/03/2023	18:28:23.307	0.00000E+0	0.00000E+0	-9.36762E-2	8.15915E-2	0.00000E+0	0.00000E+0	2.12507E+1	1.37012E+1	2.12525E+1	1.37010E+1
140	20/03/2023	18:28:24.899	0.00000E+0	0.00000E+0	5.43404E-2	9.39234E-2	0.00000E+0	0.00000E+0	2.12524E+1	1.36991E+1	2.12525E+1	1.37003E+1
141	20/03/2023	18:28:26.403	0.00000E+0	0.00000E+0	-1.40890E-1	-7.11384E-2	0.00000E+0	0.00000E+0	2.12497E+1	1.37009E+1	2.12495E+1	1.37013E+1
142	20/03/2023	18:28:28.004	0.00000E+0	0.00000E+0	-1.76117E-1	-5.02157E-2	0.00000E+0	0.00000E+0	2.12487E+1	1.37009E+1	2.12480E+1	1.37015E+1
143	20/03/2023	18:28:29.555	0.00000E+0	0.00000E+0	5.73087E-2	5.93592E-2	0.00000E+0	0.00000E+0	2.12501E+1	1.37004E+1	2.12501E+1	1.36997E+1
144	20/03/2023	18:28:31.103	0.00000E+0	0.00000E+0	1.23717E-2	7.14033E-2	0.00000E+0	0.00000E+0	2.12480E+1	1.37014E+1	2.12466E+1	1.37016E+1
145	20/03/2023	18:28:32.674	0.00000E+0	0.00000E+0	-1.27479E-1	-6.15553E-2	0.00000E+0	0.00000E+0	2.12515E+1	1.37023E+1	2.12515E+1	1.37032E+1
146	20/03/2023	18:28:34.199	0.00000E+0	0.00000E+0	2.19104E-2	8.93143E-2	0.00000E+0	0.00000E+0	2.12491E+1	1.37017E+1	2.12486E+1	1.37028E+1
147	20/03/2023	18:28:35.771	0.00000E+0	0.00000E+0	1.14308E-1	5.44314E-2	0.00000E+0	0.00000E+0	2.12480E+1	1.37001E+1	2.12522E+1	1.37024E+1
148	20/03/2023	18:28:37.344	0.00000E+0	0.00000E+0	-2.02246E-1	-7.47819E-3	0.00000E+0	0.00000E+0	2.12500E+1	1.37020E+1	2.12478E+1	1.37026E+1
149	20/03/2023	18:28:38.924	0.00000E+0	0.00000E+0	-7.42311E-2	1.52142E-1	0.00000E+0	0.00000E+0	2.12496E+1	1.37005E+1	2.12507E+1	1.37014E+1
150	20/03/2023	18:28:40.438	0.00000E+0	0.00000E+0	4.48406E-3	2.46593E-2	0.00000E+0	0.00000E+0	2.12507E+1	1.37013E+1	2.12498E+1	1.36993E+1
151	20/03/2023	18:28:41.949	0.00000E+0	0.00000E+0	6.20400E-2	7.23847E-2	0.00000E+0	0.00000E+0	2.12521E+1	1.37013E+1	2.12491E+1	1.37009E+1
152	20/03/2023	18:28:43.481	0.00000E+0	0.00000E+0	2.20487E-1	1.02218E-1	0.00000E+0	0.00000E+0	2.12495E+1	1.37003E+1	2.12475E+1	1.36984E+1
153	20/03/2023	18:28:45.060	0.00000E+0	0.00000E+0	-2.00517E-1	-7.98869E-3	0.00000E+0	0.00000E+0	2.12480E+1	1.37006E+1	2.12480E+1	1.37006E+1
154	20/03/2023	18:28:46.624	0.00000E+0	0.00000E+0	-1.76072E-1	1.21558E-2	0.00000E+0	0.00000E+0	2.12504E+1	1.37003E+1	2.12507E+1	1.37002E+1
155	20/03/2023	18:28:48.132	0.00000E+0	0.00000E+0	-8.75704E-2	-1.06974E-2	0.00000E+0	0.00000E+0	2.12485E+1	1.37024E+1	2.12476E+1	1.36999E+1
156	20/03/2023	18:28:49.691	0.00000E+0	0.00000E+0	-1.04867E-1	6.16425E-2	0.00000E+0	0.00000E+0	2.12488E+1	1.37018E+1	2.12500E+1	1.37023E+1
157	20/03/2023	18:28:51.200	0.00000E+0	0.00000E+0	8.02013E-2	2.66191E-2	0.00000E+0	0.00000E+0	2.12507E+1	1.37011E+1	2.12510E+1	1.37030E+1
158	20/03/2023	18:28:52.725	0.00000E+0	0.00000E+0	-2.97036E-2	1.02301E-1	0.00000E+0	0.00000E+0	2.12460E+1	1.37022E+1	2.12465E+1	1.37007E+1
159	20/03/2023	18:28:54.229	0.00000E+0	0.00000E+0	9.55638E-2	6.49178E-2	0.00000E+0	0.00000E+0	2.12497E+1	1.36996E+1	2.12500E+1	1.37000E+1
160	20/03/2023	18:28:55.803	0.00000E+0	0.00000E+0	-9.43851E-2	4.40701E-2	0.00000E+0	0.00000E+0	2.12490E+1	1.37013E+1	2.12516E+1	1.37007E+1
161	20/03/2023	18:28:57.391	0.00000E+0	0.00000E+0	-9.75123E-2	-5.03769E-2	0.00000E+0	0.00000E+0	2.12508E+1	1.37002E+1	2.12491E+1	1.36994E+1
162	20/03/2023	18:28:58.887	0.00000E+0	0.00000E+0	9.86170E-3	1.21550E-1	0.00000E+0	0.00000E+0	2.12476E+1	1.37017E+1	2.12465E+1	1.37021E+1
163	20/03/2023	18:29:00.396	0.00000E+0	0.00000E+0	1.52663E-1	1.00056E-1	0.00000E+0	0.00000E+0	2.12492E+1	1.36996E+1	2.12469E+1	1.36981E+1
164	20/03/2023	18:29:01.913	0.00000E+0	0.00000E+0	5.71868E-2	1.13817E-1	0.00000E+0	0.00000E+0	2.12488E+1	1.37005E+1	2.12470E+1	1.37008E+1
165	20/03/2023	18:29:03.480	0.00000E+0	0.00000E+0	-9.06422E-2	-3.87979E-2	0.00000E+0	0.00000E+0	2.12492E+1	1.37019E+1	2.12509E+1	1.37004E+1
166	20/03/2023	18:29:05.087	0.00000E+0	0.00000E+0	1.07820E-1	9.72065E-3	0.00000E+0	0.00000E+0	2.12505E+1	1.37013E+1	2.12468E+1	1.37015E+1
167	20/03/2023	18:29:06.665	0.00000E+0	0.00000E+0	-3.47706E-2	7.99678E-2	0.00000E+0	0.00000E+0	2.12482E+1	1.36991E+1	2.12458E+1	1.37005E+1
168	20/03/2023	18:29:08.256	0.00000E+0	0.00000E+0	1.44342E-1	4.92899E-2	0.00000E+0	0.00000E+0	2.12526E+1	1.37002E+1	2.12521E+1	1.36993E+1
169	20/03/2023	18:29:09.756	0.00000E+0	0.00000E+0	-2.91744E-2	-1.78357E-2	0.00000E+0	0.00000E+0	2.12498E+1	1.36989E+1	2.12502E+1	1.36975E+1
170	20/03/2023	18:29:11.349	0.00000E+0	0.00000E+0	-8.23933E-2	-6.17548E-3	0.00000E+0	0.00000E+0	2.12489E+1	1.37018E+1	2.12500E+1	1.37017E+1
171	20/03/2023	18:29:12.916	0.00000E+0	0.00000E+0	-6.04798E-2	-1.62087E-2	0.00000E+0	0.00000E+0	2.12485E+1	1.37017E+1	2.12490E+1	1.37028E+1
172	20/03/2023	18:29:14.422	0.00000E+0	0.00000E+0	-4.60261E-2	6.74379E-2	0.00000E+0	0.00000E+0	2.12524E+1	1.37001E+1	2.12510E+1	1.37010E+1
173	20/03/2023	18:29:16.023	0.00000E+0	0.00000E+0	-3.12044E-2	7.55561E-2	0.00000E+0	0.00000E+0	2.12510E+1	1.37014E+1	2.12500E+1	1.36996E+1
174	20/03/2023	18:29:17.566	0.00000E+0	0.00000E+0	-2.12448E-1	-2.16084E-2	0.00000E+0	0.00000E+0	2.12475E+1	1.37012E+1	2.12465E+1	1.37005E+1
175	20/03/2023	18:29:19.193	0.00000E+0	0.00000E+0	-4.66374E-2	-4.93236E-2	0.00000E+0	0.00000E+0	2.12489E+1	1.37012E+1	2.12510E+1	1.37010E+1
176	20/03/2023	18:29:20.713	0.00000E+0	0.00000E+0	-1.99220E-1	-7.47131E-2	0.00000E+0	0.00000E+0	2.12493E+1	1.37015E+1	2.12483E+1	1.37016E+1
177	20/03/2023	18:29:22.287	0.00000E+0	0.00000E+0	-1.60128E-1	-5.45976E-2	0.00000E+0	0.00000E+0	2.12532E+1	1.37008E+1	2.12535E+1	1.37009E+1
178	20/03/2023	18:29:23.792	0.00000E+0	0.00000E+0	-7.51243E-2	4.65367E-2	0.00000E+0	0.00000E+0	2.12499E+1	1.37007E+1	2.12481E+1	1.36992E+1
179	20/03/2023	18:29:25.342	0.00000E+0	0.00000E+0	-2.06235E-1	-1.94852E-2	0.00000E+0	0.00000E+0	2.12488E+1	1.37025E+1	2.12488E+1	1.37017E+1
180	20/03/2023	18:29:26.870	0.00000E+0	0.00000E+0	-1.78577E-1	1.51488E-2	0.00000E+0	0.00000E+0	2.12497E+1	1.37018E+1	2.12483E+1	1.37001E+1
181	20/03/2023	18:29:28.418	0.00000E+0	0.00000E+0	4.44016E-2	4.74266E-3	0.00000E+0	0.00000E+0	2.12489E+1	1.37013E+1	2.12465E+1	1.37020E+1
182	20/03/2023	18:29:29.966	0.00000E+0	0.00000E+0	-9.86568E-2	2.04352E-2	0.00000E+0	0.00000E+0	2.12525E+1	1.37011E+1	2.12522E+1	1.37019E+1
183	20/03/2023	18:29:31.493	0.00000E+0	0.00000E+0	1.16850E-1	1.20221E-1	0.00000E+0	0.00000E+0	2.12481E+1	1.37027E+1	2.12507E+1	1.37023E+1
184	20/03/2023	18:29:33.013	0.00000E+0	0.00000E+0	-1.54085E-1	-6.16004E-2	0.00000E+0	0.00000E+0	2.12483E+1	1.37010E+1	2.12473E+1	1.36993E+1
185	20/03/2023	18:29:34.575	0.00000E+0	0.00000E+0	-1.49017E-1	-7.32909E-3	0.00000E+0	0.00000E+0	2.12473E+1	1.37020E+1	2.12490E+1	1.37037E+1
186	20/03/2023	18:29:36.065	0.00000E+0	0.00000E+0	1.20201E-3	6.16213E-2	0.00000E+0	0.00000E+0	2.12496E+1	1.37018E+1	2.12513E+1	1.37013E+1
187	20/03/2023	18:29:37.666	0.00000E+0	0.00000E+0	-2.10602E-1	-9.18553E-2	0.00000E+0	0.00000E+0	2.12477E+1	1.37024E+1	2.12475E+1	1.37031E+1
188	20/03/2023	18:29:39.165	0.00000E+0	0.00000E+0	-1.27671E-1	5.23100E-2	0.00000E+0	0.00000E+0	2.12495E+1	1.37003E+1	2.12493E+1	1.36999E+1
189	20/03/2023	18:29:40.674	0.00000E+0	0.00000E+0	-3.57655E-2	6.88125E-2	0.00000E+0	0.00000E+0	2.12495E+1	1.37006E+1	2.12499E+1	1.36999E+1
190	20/03/2023	18:29:42.203	0.00000E+0	0.00000E+0	4.25295E-2	3.49063E-2	0.00000E+0	0.00000E+0	2.12491E+1	1.37002E+1	2.12508E+1	1.36990E+1
191	20/03/2023	18:29:43.794	0.00000E+0	0.00000E+0	-7.76502E-2	-9.20586E-2	0.00000E+0	0.00000E+0	2.12489E+1	1.37018E+1	2.12496E+1	1.37030E+1
192	20/03/2023	18:29:45.436	0.00000E+0	0.00000E+0	1.43303E-1	9.20362E-3	0.00000E+0	0.00000E+0	2.12481E+1	1.37006E+1	2.12503E+1	1.37020E+1
193	20/03/2023	18:29:46.998	0.00000E+0	0.00000E+0	1.02735E-1	-5.26686E-4	0.00000E+0	0.00000E+0	2.12489E+1	1.37002E+1	2.12498E+1	1.37013E+1
194	20/03/2023	18:29:48.555	0.00000E+0	0.00000E+0	-6.11237E-2	1.65097E-2	0.00000E+0	0.00000E+0	2.12483E+1	1.37013E+1	2.12483E+1	1.36993E+1
195	20/03/2023	18:29:50.104	0.00000E+0	0.00000E+0	-1.06911E-1	-8.90647E-2	0.00000E+0	0.00000E+0	2.12484E+1	1.37009E+1	2.12506E+1	1.37000E+1
196	20/03/2023	18:29:51.677	0.00000E+0	0.00000E+0	1.76095E-2	3.54517E-2	0.00000E+0	0.00000E+0	2.12524E+1	1.37002E+1	2.12497E+1	1.36968E+1
197	20/03/2023	18:29:53.198	0.00000E+0	0.00000E+0	1.35256E-2	1.32969E-1	0.00000E+0	0.00000E+0	2.12504E+1	1.36997E+1	2.12500E+1	1.37013E+1
198	20/03/2023	18:29:54.701	0.00000E+0	0.00000E+0	-8.56560E-2	1.28185E-3	0.00000E+0	0.00000E+0	2.12516E+1	1.37007E+1	2.12529E+1	1.36991E+1
199	20/03/2023	18:29:56.236	0.00000E+0	0.00000E+0	3.34237E-2	4.30111E-2	0.00000E+0	0.00000E+0	2.12506E+1	1.36999E+1	2.12505E+1	1.37003E+1
200	20/03/2023	18:29:57.788	0.00000E+0	0.00000E+0	-1.22658E-1	-8.51204E-2	0.00000E+0	0.00000E+0	2.12504E+1	1.37012E+1	2.12518E+1	1.37028E+1
201	20/03/2023	18:29:59.322	0.00000E+0	0.00000E+0	7.95801E-2	-2.18740E-2	0.00000E+0	0.00000E+0	2.12497E+1	1.37013E+1	2.12480E+1	1.37040E+1
202	20/03/2023	18:30:00.905	0.00000E+0	0.00000E+0	-1.74682E-1	-5.74617E-2	0.00000E+0	0.00000E+0	2.12500E+1	1.37011E+1	2.12491E+1	1.37032E+1
203	20/03/2023	18:30:02.395	0.00000E+0	0.00000E+0	1.52309E-1	1.39567E-1	0.00000E+0	0.00000E+0	2.12489E+1	1.37003E+1	2.12475E+1	1.36996E+1
204	20/03/2023	18:30:03.946	0.00000E+0	0.00000E+0	1.12384E-1	6.61797E-2	0.00000E+0	0.00000E+0	2.12520E+1	1.37008E+1	2.12526E+1	1.37014E+1
205	20/03/2023	18:30:05.470	0.00000E+0	0.00000E+0	-1.57369E-1	5.85798E-3	0.00000E+0	0.00000E+0	2.12499E+1	1.37026E+1	2.12490E+1	1.37036E+1
206	20/03/2023	18:30:07.048	0.00000E+0	0.00000E+0	-2.11748E-2	1.45979E-1	0.00000E+0	0.00000E+0	2.12497E+1	1.36989E+1	2.12504E+1	1.36969E+1
207	20/03/2023	18:30:08.575	0.00000E+0	0.00000E+0	1.27128E-1	-8.27382E-4	0.00000E+0	0.00000E+0	2.12462E+1	1.37024E+1	2.12477E+1	1.37016E+1
208	20/03/2023	18:30:10.147	0.00000E+0	0.00000E+0	-1.13401E-1	-2.89939E-2	0.00000E+0	0.00000E+0	2.12495E+1	1.37010E+1	2.12488E+1	1.37043E+1
209	20/03/2023	18:30:11.661	0.00000E+0	0.00000E+0	-6.95290E-2	4.55717E-2	0.00000E+0	0.00000E+0	2.12494E+1	1.37013E+1	2.12526E+1	1.36989E+1
210	20/03/2023	18:30:13.254	0.00000E+0	0.00000E+0	-8.02663E-2	-4.07048E-2	0.00000E+0	0.00000E+0	2.12505E+1	1.37012E+1	2.12487E+1	1.37014E+1
211	20/03/2023	18:30:14.825	0.00000E+0	0.00000E+0	-5.01921E-2	7.95744E-2	0.00000E+0	0.00000E+0	2.12520E+1	1.37005E+1	2.12519E+1	1.37031E+1
212	20/03/2023	18:30:16.346	0.00000E+0	0.00000E+0	8.42731E-2	-1.63235E-3	0.00000E+0	0.00000E+0	2.12488E+1	1.37006E+1	2.12474E+1	1.37016E+1
213	20/03/2023	18:30:17.904	0.00000E+0	0.00000E+0	-3.91393E-2	1.03124E-2	0.00000E+0	0.00000E+0	2.12491E+1	1.37020E+1	2.12480E+1	1.37019E+1
214	20/03/2023	18:30:19.434	0.00000E+0	0.00000E+0	-7.94772E-2	-3.93386E-2	0.00000E+0	0.00000E+0	2.12477E+1	1.37022E+1	2.12459E+1	1.37015E+1
215	20/03/2023	18:30:20.945	0.00000E+0	0.00000E+0	-1.38673E-2	5.52220E-2	0.00000E+0	0.00000E+0	2.12513E+1	1.36996E+1	2.12513E+1	1.36991E+1
216	20/03/2023	18:30:22.523	0.00000E+0	0.00000E+0	-2.17747E-1	-1.21331E-1	0.00000E+0	0.00000E+0	2.12461E+1	1.37015E+1	2.12474E+1	1.37016E+1
217	20/03/2023	18:30:24.057	0.00000E+0	0.00000E+0	9.22973E-2	1.53761E-1	0.00000E+0	0.00000E+0	2.12518E+1	1.37003E+1	2.12534E+1	1.37001E+1
218	20/03/2023	18:30:25.622	0.00000E+0	0.00000E+0	-1.31809E-1	-1.66311E-2	0.00000E+0	0.00000E+0	2.12514E+1	1.37013E+1	2.12518E+1	1.37034E+1
219	20/03/2023	18:30:27.204	0.00000E+0	0.00000E+0	6.70883E-2	8.46321E-2	0.00000E+0	0.00000E+0	2.12514E+1	1.36987E+1	2.12520E+1	1.36986E+1
220	20/03/2023	18:30:28.707	0.00000E+0	0.00000E+0	-7.53050E-2	4.15375E-2	0.00000E+0	0.00000E+0	2.12506E+1	1.37002E+1	2.12504E+1	1.37010E+1
221	20/03/2023	18:30:30.294	0.00000E+0	0.00000E+0	-1.17493E-1	-9.35319E-2	0.00000E+0	0.00000E+0	2.12479E+1	1.37007E+1	2.12474E+1	1.37005E+1
222	20/03/2023	18:30:31.827	0.00000E+0	0.00000E+0	1.49841E-2	1.39546E-1	0.00000E+0	0.00000E+0	2.12521E+1	1.37001E+1	2.12517E+1	1.36981E+1
223	20/03/2023	18:30:33.388	0.00000E+0	0.00000E+0	-2.71559E-2	4.83630E-2	0.00000E+0	0.00000E+0	2.12508E+1	1.37008E+1	2.12507E+1	1.36996E+1
224	20/03/2023	18:30:34.913	0.00000E+0	0.00000E+0	-1.19934E-2	2.31549E-2	0.00000E+0	0.00000E+0	2.12490E+1	1.37011E+1	2.12497E+1	1.36996E+1
225	20/03/2023	18:30:36.401	0.00000E+0	0.00000E+0	-1.34156E-1	-5.26639E-2	0.00000E+0	0.00000E+0	2.12509E+1	1.37011E+1	2.12527E+1	1.37022E+1
226	20/03/2023	18:30:37.960	0.00000E+0	0.00000E+0	4.52728E-3	-3.43280E-3	0.00000E+0	0.00000E+0	2.12485E+1	1.37010E+1	2.12467E+1	1.37028E+1
227	20/03/2023	18:30:39.565	0.00000E+0	0.00000E+0	8.18504E-2	1.19258E-1	0.00000E+0	0.00000E+0	2.12494E+1	1.36995E+1	2.12532E+1	1.37011E+1
228	20/03/2023	18:30:41.154	0.00000E+0	0.00000E+0	4.54907E-2	7.37494E-2	0.00000E+0	0.00000E+0	2.12511E+1	1.37017E+1	2.12500E+1	1.37002E+1
229	20/03/2023	18:30:42.743	0.00000E+0	0.00000E+0	-2.65193E-1	-7.88743E-2	0.00000E+0	0.00000E+0	2.12477E+1	1.37019E+1	2.12476E+1	1.37014E+1
230	20/03/2023	18:30:44.272	0.00000E+0	0.00000E+0	2.13787E-3	5.26110E-2	0.00000E+0	0.00000E+0	2.12533E+1	1.37010E+1	2.12518E+1	1.37023E+1
231	20/03/2023	18:30:45.842	0.00000E+0	0.00000E+0	-1.17475E-1	3.85710E-2	0.00000E+0	0.00000E+0	2.12507E+1	1.37015E+1	2.12503E+1	1.37014E+1
232	20/03/2023	18:30:47.420	0.00000E+0	0.00000E+0	8.54530E-2	3.81972E-2	0.00000E+0	0.00000E+0	2.12477E+1	1.37016E+1	2.12517E+1	1.36997E+1
233	20/03/2023	18:30:48.915	0.00000E+0	0.00000E+0	-1.93437E-1	-5.85210E-2	0.00000E+0	0.00000E+0	2.12495E+1	1.37015E+1	2.12494E+1	1.36995E+1
234	20/03/2023	18:30:50.458	0.00000E+0	0.00000E+0	-1.01204E-3	7.85300E-2	0.00000E+0	0.00000E+0	2.12471E+1	1.37000E+1	2.12465E+1	1.36987E+1
235	20/03/2023	18:30:52.019	0.00000E+0	0.00000E+0	1.23535E-1	9.87878E-2	0.00000E+0	0.00000E+0	2.12480E+1	1.36995E+1	2.12485E+1	1.36991E+1
236	20/03/2023	18:30:53.589	0.00000E+0	0.00000E+0	-1.86968E-1	-4.57193E-2	0.00000E+0	0.00000E+0	2.12476E+1	1.37020E+1	2.12473E+1	1.37026E+1
237	20/03/2023	18:30:55.106	0.00000E+0	0.00000E+0	4.76606E-3	4.56517E-2	0.00000E+0	0.00000E+0	2.12497E+1	1.37006E+1	2.12499E+1	1.37022E+1
238	20/03/2023	18:30:56.681	0.00000E+0	0.00000E+0	-1.83608E-1	-3.73159E-2	0.00000E+0	0.00000E+0	2.12475E+1	1.37021E+1	2.12495E+1	1.37013E+1
239	20/03/2023	18:30:58.196	0.00000E+0	0.00000E+0	-1.62503E-1	-8.55678E-2	0.00000E+0	0.00000E+0	2.12498E+1	1.37004E+1	2.12478E+1	1.37019E+1
240	20/03/2023	18:30:59.766	0.00000E+0	0.00000E+0	-1.96113E-1	-9.28947E-2	0.00000E+0	0.00000E+0	2.12523E+1	1.37023E+1	2.12547E+1	1.37018E+1
241	20/03/2023	18:31:01.285	0.00000E+0	0.00000E+0	1.67435E-1	-1.57270E-1	0.00000E+0	0.00000E+0	2.12556E+1	1.37019E+1	2.12571E+1	1.37021E+1
242	20/03/2023	18:31:02.847	0.00000E+0	0.00000E+0	4.06451E-2	-9.80121E-2	0.00000E+0	0.00000E+0	2.12529E+1	1.37010E+1	2.12542E+1	1.37008E+1
