#Iteration	Date	Time	STSX	STSY	RotationRateX	RotationRateY	FrCntX	FrCntY	TiptiltCmd1	TiptiltCmd2	TiptiltMonitor1	TiptiltMonitor2
1	15/03/2023	18:16:17.864	0.00000E+0	0.00000E+0	-2.50990E-1	-1.53525E-1	0.00000E+0	0.00000E+0	2.12453E+1	1.37018E+1	2.12472E+1	1.37026E+1
2	15/03/2023	18:16:19.383	0.00000E+0	0.00000E+0	-2.60525E-1	7.90651E-3	0.00000E+0	0.00000E+0	2.12469E+1	1.37054E+1	2.12466E+1	1.37068E+1
3	15/03/2023	18:16:20.842	0.00000E+0	0.00000E+0	1.54805E+0	-7.42145E-1	0.00000E+0	0.00000E+0	2.12798E+1	1.36751E+1	2.12809E+1	1.36758E+1
4	15/03/2023	18:16:22.322	0.00000E+0	0.00000E+0	7.48035E+1	6.34393E-1	0.00000E+0	0.00000E+0	2.22266E+1	1.26793E+1	2.22255E+1	1.26786E+1
5	15/03/2023	18:16:23.828	0.00000E+0	0.00000E+0	1.00744E+2	-4.20308E-1	0.00000E+0	0.00000E+0	2.27458E+1	1.22112E+1	2.27436E+1	1.22115E+1
6	15/03/2023	18:16:25.350	0.00000E+0	0.00000E+0	-1.38865E+2	9.64194E-1	0.00000E+0	0.00000E+0	1.92530E+1	1.56567E+1	1.92520E+1	1.56554E+1
7	15/03/2023	18:16:26.878	0.00000E+0	0.00000E+0	-1.13302E+2	-1.24712E+0	0.00000E+0	0.00000E+0	1.96285E+1	1.53192E+1	1.96261E+1	1.53188E+1
8	15/03/2023	18:16:28.355	0.00000E+0	0.00000E+0	1.20343E+2	1.22248E+0	0.00000E+0	0.00000E+0	2.28853E+1	1.20839E+1	2.28847E+1	1.20819E+1
9	15/03/2023	18:16:29.828	0.00000E+0	0.00000E+0	1.09963E+2	2.16627E+0	0.00000E+0	0.00000E+0	2.28218E+1	1.21588E+1	2.28227E+1	1.21598E+1
10	15/03/2023	18:16:31.321	0.00000E+0	0.00000E+0	-9.05099E+1	-1.26566E+0	0.00000E+0	0.00000E+0	2.00895E+1	1.48850E+1	2.00902E+1	1.48842E+1
11	15/03/2023	18:16:32.820	0.00000E+0	0.00000E+0	-8.35569E+1	-8.15600E-2	0.00000E+0	0.00000E+0	2.00525E+1	1.49499E+1	2.00547E+1	1.49486E+1
12	15/03/2023	18:16:34.324	0.00000E+0	0.00000E+0	8.16251E+1	-1.29473E+0	0.00000E+0	0.00000E+0	2.23810E+1	1.25778E+1	2.23820E+1	1.25768E+1
13	15/03/2023	18:16:35.801	0.00000E+0	0.00000E+0	9.68465E+1	-5.44722E-1	0.00000E+0	0.00000E+0	2.25751E+1	1.23795E+1	2.25752E+1	1.23802E+1
14	15/03/2023	18:16:37.311	0.00000E+0	0.00000E+0	-1.45177E+1	4.78036E-1	0.00000E+0	0.00000E+0	2.11724E+1	1.37786E+1	2.11733E+1	1.37791E+1
15	15/03/2023	18:16:38.812	0.00000E+0	0.00000E+0	-1.52408E+2	2.04706E+0	0.00000E+0	0.00000E+0	1.90435E+1	1.58110E+1	1.90440E+1	1.58109E+1
16	15/03/2023	18:16:40.289	0.00000E+0	0.00000E+0	2.52318E+1	1.06718E+0	0.00000E+0	0.00000E+0	2.14836E+1	1.34452E+1	2.14846E+1	1.34449E+1
17	15/03/2023	18:16:41.763	0.00000E+0	0.00000E+0	1.55549E+2	6.76739E-1	0.00000E+0	0.00000E+0	2.34657E+1	1.15291E+1	2.34655E+1	1.15305E+1
18	15/03/2023	18:16:43.359	0.00000E+0	0.00000E+0	-3.44154E+1	2.82962E-1	0.00000E+0	0.00000E+0	2.08326E+1	1.41097E+1	2.08315E+1	1.41085E+1
19	15/03/2023	18:16:44.832	0.00000E+0	0.00000E+0	-1.14177E+2	-1.52914E+0	0.00000E+0	0.00000E+0	1.96479E+1	1.53051E+1	1.96480E+1	1.53056E+1
20	15/03/2023	18:16:46.315	0.00000E+0	0.00000E+0	-7.84266E+1	-1.04192E+0	0.00000E+0	0.00000E+0	2.01284E+1	1.48064E+1	2.01293E+1	1.48087E+1
21	15/03/2023	18:16:47.793	0.00000E+0	0.00000E+0	6.02408E+1	1.63743E+0	0.00000E+0	0.00000E+0	2.20374E+1	1.29031E+1	2.20409E+1	1.29004E+1
22	15/03/2023	18:16:49.289	0.00000E+0	0.00000E+0	8.42853E+1	8.58039E-1	0.00000E+0	0.00000E+0	2.24658E+1	1.25163E+1	2.24676E+1	1.25167E+1
23	15/03/2023	18:16:50.804	0.00000E+0	0.00000E+0	1.00057E+2	4.54464E-1	0.00000E+0	0.00000E+0	2.26639E+1	1.22947E+1	2.26653E+1	1.22958E+1
24	15/03/2023	18:16:52.302	0.00000E+0	0.00000E+0	-6.56832E+1	-6.47236E-1	0.00000E+0	0.00000E+0	2.03485E+1	1.45742E+1	2.03469E+1	1.45753E+1
25	15/03/2023	18:16:53.813	0.00000E+0	0.00000E+0	-9.14825E+1	-1.75877E-1	0.00000E+0	0.00000E+0	1.99717E+1	1.49611E+1	1.99755E+1	1.49618E+1
26	15/03/2023	18:16:55.333	0.00000E+0	0.00000E+0	-7.07115E+1	1.03154E+0	0.00000E+0	0.00000E+0	2.02357E+1	1.47097E+1	2.02364E+1	1.47114E+1
27	15/03/2023	18:16:56.786	0.00000E+0	0.00000E+0	3.71368E+1	-1.06092E+0	0.00000E+0	0.00000E+0	2.17411E+1	1.31592E+1	2.17405E+1	1.31594E+1
28	15/03/2023	18:16:58.274	0.00000E+0	0.00000E+0	8.15430E+1	-5.48002E-1	0.00000E+0	0.00000E+0	2.24069E+1	1.25554E+1	2.24081E+1	1.25534E+1
29	15/03/2023	18:16:59.774	0.00000E+0	0.00000E+0	1.02559E+2	7.90318E-1	0.00000E+0	0.00000E+0	2.27183E+1	1.22468E+1	2.27175E+1	1.22457E+1
30	15/03/2023	18:17:01.254	0.00000E+0	0.00000E+0	-1.54174E+1	-8.70600E-2	0.00000E+0	0.00000E+0	2.10701E+1	1.38761E+1	2.10707E+1	1.38761E+1
31	15/03/2023	18:17:02.771	0.00000E+0	0.00000E+0	-8.55784E+1	-1.29970E+0	0.00000E+0	0.00000E+0	2.00072E+1	1.49204E+1	2.00077E+1	1.49215E+1
32	15/03/2023	18:17:04.236	0.00000E+0	0.00000E+0	-7.27523E+1	-4.47550E-1	0.00000E+0	0.00000E+0	2.02082E+1	1.47183E+1	2.02090E+1	1.47162E+1
33	15/03/2023	18:17:05.716	0.00000E+0	0.00000E+0	-5.78676E+1	-1.32470E-1	0.00000E+0	0.00000E+0	2.04238E+1	1.45075E+1	2.04233E+1	1.45040E+1
34	15/03/2023	18:17:07.197	0.00000E+0	0.00000E+0	8.69792E+1	5.05318E-1	0.00000E+0	0.00000E+0	2.23792E+1	1.25716E+1	2.23776E+1	1.25694E+1
35	15/03/2023	18:17:08.727	0.00000E+0	0.00000E+0	8.85164E+1	9.95272E-1	0.00000E+0	0.00000E+0	2.25016E+1	1.24804E+1	2.25025E+1	1.24800E+1
36	15/03/2023	18:17:10.212	0.00000E+0	0.00000E+0	8.58394E+1	-7.69222E-1	0.00000E+0	0.00000E+0	2.25147E+1	1.24738E+1	2.25146E+1	1.24735E+1
37	15/03/2023	18:17:11.700	0.00000E+0	0.00000E+0	-6.92672E+1	-1.92751E-1	0.00000E+0	0.00000E+0	2.03042E+1	1.46248E+1	2.03035E+1	1.46240E+1
38	15/03/2023	18:17:13.233	0.00000E+0	0.00000E+0	-1.03180E+2	1.14402E+0	0.00000E+0	0.00000E+0	1.98199E+1	1.51194E+1	1.98202E+1	1.51190E+1
39	15/03/2023	18:17:14.716	0.00000E+0	0.00000E+0	-6.29378E+1	1.85922E+0	0.00000E+0	0.00000E+0	2.03596E+1	1.45907E+1	2.03570E+1	1.45902E+1
40	15/03/2023	18:17:16.188	0.00000E+0	0.00000E+0	2.42679E+1	1.16387E+0	0.00000E+0	0.00000E+0	2.14644E+1	1.35088E+1	2.14662E+1	1.35098E+1
41	15/03/2023	18:17:17.754	0.00000E+0	0.00000E+0	8.95622E+1	8.88666E-1	0.00000E+0	0.00000E+0	2.25121E+1	1.24462E+1	2.25135E+1	1.24475E+1
42	15/03/2023	18:17:19.319	0.00000E+0	0.00000E+0	8.22124E+1	7.28008E-1	0.00000E+0	0.00000E+0	2.24199E+1	1.25305E+1	2.24193E+1	1.25286E+1
43	15/03/2023	18:17:20.768	0.00000E+0	0.00000E+0	1.94248E+1	1.37472E-1	0.00000E+0	0.00000E+0	2.16114E+1	1.33489E+1	2.16104E+1	1.33483E+1
44	15/03/2023	18:17:22.276	0.00000E+0	0.00000E+0	-7.67868E+1	-1.32819E+0	0.00000E+0	0.00000E+0	2.01612E+1	1.47651E+1	2.01607E+1	1.47673E+1
45	15/03/2023	18:17:23.779	0.00000E+0	0.00000E+0	-8.73894E+1	-1.79249E-1	0.00000E+0	0.00000E+0	1.99890E+1	1.49301E+1	1.99890E+1	1.49305E+1
46	15/03/2023	18:17:25.274	0.00000E+0	0.00000E+0	-6.03575E+1	6.18051E-1	0.00000E+0	0.00000E+0	2.03994E+1	1.45522E+1	2.03969E+1	1.45513E+1
47	15/03/2023	18:17:26.779	0.00000E+0	0.00000E+0	7.19895E+1	1.44516E+0	0.00000E+0	0.00000E+0	2.22440E+1	1.27528E+1	2.22423E+1	1.27530E+1
48	15/03/2023	18:17:28.285	0.00000E+0	0.00000E+0	9.47888E+1	7.02061E-1	0.00000E+0	0.00000E+0	2.25904E+1	1.23846E+1	2.25915E+1	1.23844E+1
49	15/03/2023	18:17:29.765	0.00000E+0	0.00000E+0	8.46931E+1	2.17981E-1	0.00000E+0	0.00000E+0	2.24794E+1	1.25148E+1	2.24808E+1	1.25147E+1
50	15/03/2023	18:17:31.263	0.00000E+0	0.00000E+0	-7.20149E+1	-6.30354E-1	0.00000E+0	0.00000E+0	2.02762E+1	1.46528E+1	2.02769E+1	1.46531E+1
51	15/03/2023	18:17:32.771	0.00000E+0	0.00000E+0	-1.05140E+2	1.71661E+0	0.00000E+0	0.00000E+0	1.97654E+1	1.51489E+1	1.97657E+1	1.51513E+1
52	15/03/2023	18:17:34.299	0.00000E+0	0.00000E+0	-6.81828E+1	-5.62401E-1	0.00000E+0	0.00000E+0	2.02568E+1	1.46593E+1	2.02591E+1	1.46570E+1
53	15/03/2023	18:17:35.761	0.00000E+0	0.00000E+0	3.63199E+1	2.46369E+0	0.00000E+0	0.00000E+0	2.17241E+1	1.32227E+1	2.17247E+1	1.32241E+1
54	15/03/2023	18:17:37.202	0.00000E+0	0.00000E+0	7.44292E+1	-1.18194E+0	0.00000E+0	0.00000E+0	2.23102E+1	1.26627E+1	2.23100E+1	1.26605E+1
55	15/03/2023	18:17:38.682	0.00000E+0	0.00000E+0	7.21069E+1	5.65645E-1	0.00000E+0	0.00000E+0	2.22483E+1	1.27211E+1	2.22478E+1	1.27230E+1
56	15/03/2023	18:17:40.131	0.00000E+0	0.00000E+0	8.81028E+1	-1.75901E-2	0.00000E+0	0.00000E+0	2.25043E+1	1.24636E+1	2.25062E+1	1.24641E+1
57	15/03/2023	18:17:41.666	0.00000E+0	0.00000E+0	9.64838E+1	1.17495E+0	0.00000E+0	0.00000E+0	2.26259E+1	1.23444E+1	2.26258E+1	1.23445E+1
58	15/03/2023	18:17:43.142	0.00000E+0	0.00000E+0	-6.73852E+1	-1.91913E-2	0.00000E+0	0.00000E+0	2.03345E+1	1.46050E+1	2.03342E+1	1.46037E+1
59	15/03/2023	18:17:44.628	0.00000E+0	0.00000E+0	-1.12893E+2	-1.89570E-3	0.00000E+0	0.00000E+0	1.96322E+1	1.53117E+1	1.96337E+1	1.53133E+1
60	15/03/2023	18:17:46.101	0.00000E+0	0.00000E+0	-6.72364E+1	1.49545E+0	0.00000E+0	0.00000E+0	2.02821E+1	1.46529E+1	2.02839E+1	1.46516E+1
61	15/03/2023	18:17:47.567	0.00000E+0	0.00000E+0	-5.77416E+1	5.25917E-2	0.00000E+0	0.00000E+0	2.04260E+1	1.45260E+1	2.04267E+1	1.45278E+1
62	15/03/2023	18:17:49.000	0.00000E+0	0.00000E+0	-3.94331E+1	-3.97433E-1	0.00000E+0	0.00000E+0	2.07014E+1	1.42478E+1	2.07007E+1	1.42489E+1
63	15/03/2023	18:17:50.525	0.00000E+0	0.00000E+0	2.97242E+1	3.19271E+0	0.00000E+0	0.00000E+0	2.15267E+1	1.34204E+1	2.15262E+1	1.34183E+1
64	15/03/2023	18:17:52.013	0.00000E+0	0.00000E+0	1.00882E+2	3.26094E+0	0.00000E+0	0.00000E+0	2.26777E+1	1.22770E+1	2.26792E+1	1.22793E+1
65	15/03/2023	18:17:53.540	0.00000E+0	0.00000E+0	9.47710E+1	6.82847E-1	0.00000E+0	0.00000E+0	2.26318E+1	1.24251E+1	2.26328E+1	1.24255E+1
66	15/03/2023	18:17:55.027	0.00000E+0	0.00000E+0	8.22338E+1	1.04562E+0	0.00000E+0	0.00000E+0	2.23784E+1	1.25967E+1	2.23788E+1	1.25976E+1
67	15/03/2023	18:17:56.537	0.00000E+0	0.00000E+0	-4.81326E+1	-2.35231E-1	0.00000E+0	0.00000E+0	2.05776E+1	1.43300E+1	2.05767E+1	1.43308E+1
68	15/03/2023	18:17:58.037	0.00000E+0	0.00000E+0	-6.03989E+1	-5.63411E-2	0.00000E+0	0.00000E+0	2.03602E+1	1.45650E+1	2.03605E+1	1.45675E+1
69	15/03/2023	18:17:59.593	0.00000E+0	0.00000E+0	-8.04930E+0	7.70854E-3	0.00000E+0	0.00000E+0	2.11201E+1	1.38299E+1	2.11190E+1	1.38319E+1
70	15/03/2023	18:18:01.123	0.00000E+0	0.00000E+0	1.79206E+1	-1.28363E+0	0.00000E+0	0.00000E+0	2.14516E+1	1.34738E+1	2.14540E+1	1.34737E+1
71	15/03/2023	18:18:02.606	0.00000E+0	0.00000E+0	3.54947E+1	1.08997E+0	0.00000E+0	0.00000E+0	2.17445E+1	1.32345E+1	2.17457E+1	1.32343E+1
72	15/03/2023	18:18:04.124	0.00000E+0	0.00000E+0	6.55074E+1	2.50138E+0	0.00000E+0	0.00000E+0	2.21770E+1	1.27700E+1	2.21781E+1	1.27667E+1
73	15/03/2023	18:18:05.632	0.00000E+0	0.00000E+0	-1.26060E+1	-7.91227E-2	0.00000E+0	0.00000E+0	2.11313E+1	1.38878E+1	2.11296E+1	1.38886E+1
74	15/03/2023	18:18:07.107	0.00000E+0	0.00000E+0	-9.21877E+1	-1.53754E+0	0.00000E+0	0.00000E+0	1.99907E+1	1.49478E+1	1.99898E+1	1.49462E+1
75	15/03/2023	18:18:08.603	0.00000E+0	0.00000E+0	-8.95024E+1	-3.16124E-1	0.00000E+0	0.00000E+0	1.99886E+1	1.49482E+1	1.99878E+1	1.49463E+1
76	15/03/2023	18:18:10.099	0.00000E+0	0.00000E+0	-9.46627E+1	-1.81441E+0	0.00000E+0	0.00000E+0	1.98931E+1	1.50216E+1	1.98917E+1	1.50209E+1
77	15/03/2023	18:18:11.630	0.00000E+0	0.00000E+0	3.60768E+1	4.78156E-1	0.00000E+0	0.00000E+0	2.17142E+1	1.33038E+1	2.17126E+1	1.33054E+1
78	15/03/2023	18:18:13.133	0.00000E+0	0.00000E+0	9.15945E+1	1.16453E+0	0.00000E+0	0.00000E+0	2.25887E+1	1.23871E+1	2.25883E+1	1.23857E+1
79	15/03/2023	18:18:14.619	0.00000E+0	0.00000E+0	8.36126E+1	4.22642E-1	0.00000E+0	0.00000E+0	2.24820E+1	1.24811E+1	2.24835E+1	1.24822E+1
80	15/03/2023	18:18:16.112	0.00000E+0	0.00000E+0	5.19159E+1	8.49951E-1	0.00000E+0	0.00000E+0	2.20301E+1	1.29248E+1	2.20307E+1	1.29229E+1
81	15/03/2023	18:18:17.586	0.00000E+0	0.00000E+0	-9.11940E+1	-2.73491E+0	0.00000E+0	0.00000E+0	1.99587E+1	1.49338E+1	1.99570E+1	1.49356E+1
82	15/03/2023	18:18:19.095	0.00000E+0	0.00000E+0	-9.86244E+1	-2.40821E+0	0.00000E+0	0.00000E+0	1.98369E+1	1.50860E+1	1.98351E+1	1.50844E+1
83	15/03/2023	18:18:20.584	0.00000E+0	0.00000E+0	-8.06754E+1	-4.60349E-1	0.00000E+0	0.00000E+0	2.00944E+1	1.48315E+1	2.00942E+1	1.48320E+1
84	15/03/2023	18:18:22.057	0.00000E+0	0.00000E+0	6.22554E+1	-2.80339E-2	0.00000E+0	0.00000E+0	2.20721E+1	1.28539E+1	2.20716E+1	1.28548E+1
85	15/03/2023	18:18:23.511	0.00000E+0	0.00000E+0	8.52173E+1	5.71698E-1	0.00000E+0	0.00000E+0	2.24844E+1	1.24638E+1	2.24823E+1	1.24624E+1
86	15/03/2023	18:18:25.048	0.00000E+0	0.00000E+0	8.17718E+1	-6.89354E-2	0.00000E+0	0.00000E+0	2.24085E+1	1.25528E+1	2.24091E+1	1.25532E+1
87	15/03/2023	18:18:26.534	0.00000E+0	0.00000E+0	1.06810E+0	2.08037E-1	0.00000E+0	0.00000E+0	2.14132E+1	1.35650E+1	2.14132E+1	1.35668E+1
88	15/03/2023	18:18:28.017	0.00000E+0	0.00000E+0	-9.38578E+1	7.36107E-1	0.00000E+0	0.00000E+0	1.99314E+1	1.49786E+1	1.99314E+1	1.49784E+1
89	15/03/2023	18:18:29.510	0.00000E+0	0.00000E+0	-9.97546E+1	-3.42401E-1	0.00000E+0	0.00000E+0	1.97994E+1	1.51300E+1	1.97991E+1	1.51314E+1
90	15/03/2023	18:18:31.010	0.00000E+0	0.00000E+0	-4.11504E+1	-1.25570E+0	0.00000E+0	0.00000E+0	2.05318E+1	1.43871E+1	2.05307E+1	1.43859E+1
91	15/03/2023	18:18:32.449	0.00000E+0	0.00000E+0	5.77648E+1	-2.67147E-1	0.00000E+0	0.00000E+0	2.20629E+1	1.29396E+1	2.20638E+1	1.29385E+1
92	15/03/2023	18:18:33.919	0.00000E+0	0.00000E+0	7.87272E+1	8.69806E-1	0.00000E+0	0.00000E+0	2.23783E+1	1.25699E+1	2.23759E+1	1.25709E+1
93	15/03/2023	18:18:35.419	0.00000E+0	0.00000E+0	8.00491E+1	7.43687E-1	0.00000E+0	0.00000E+0	2.23953E+1	1.25706E+1	2.23949E+1	1.25703E+1
94	15/03/2023	18:18:36.900	0.00000E+0	0.00000E+0	2.52264E+1	-1.01598E+0	0.00000E+0	0.00000E+0	2.17279E+1	1.32364E+1	2.17293E+1	1.32385E+1
95	15/03/2023	18:18:38.383	0.00000E+0	0.00000E+0	-7.50093E+1	-2.43844E-2	0.00000E+0	0.00000E+0	2.01944E+1	1.47523E+1	2.01937E+1	1.47533E+1
96	15/03/2023	18:18:39.887	0.00000E+0	0.00000E+0	-9.60791E+1	-2.67653E-1	0.00000E+0	0.00000E+0	1.98534E+1	1.50452E+1	1.98553E+1	1.50441E+1
97	15/03/2023	18:18:41.377	0.00000E+0	0.00000E+0	-7.22852E+1	2.75950E-1	0.00000E+0	0.00000E+0	2.02322E+1	1.47045E+1	2.02324E+1	1.47051E+1
98	15/03/2023	18:18:42.835	0.00000E+0	0.00000E+0	7.93537E+1	1.55866E+0	0.00000E+0	0.00000E+0	2.22757E+1	1.26681E+1	2.22755E+1	1.26690E+1
99	15/03/2023	18:18:44.353	0.00000E+0	0.00000E+0	7.47632E+1	2.53125E-1	0.00000E+0	0.00000E+0	2.23235E+1	1.26225E+1	2.23236E+1	1.26227E+1
100	15/03/2023	18:18:45.869	0.00000E+0	0.00000E+0	7.65049E+1	7.76063E-1	0.00000E+0	0.00000E+0	2.23317E+1	1.26325E+1	2.23319E+1	1.26351E+1
101	15/03/2023	18:18:47.359	0.00000E+0	0.00000E+0	-1.95971E+1	1.08676E+0	0.00000E+0	0.00000E+0	2.09972E+1	1.39536E+1	2.09973E+1	1.39560E+1
102	15/03/2023	18:18:48.862	0.00000E+0	0.00000E+0	-6.19167E+1	6.51772E-1	0.00000E+0	0.00000E+0	2.04017E+1	1.45489E+1	2.04024E+1	1.45488E+1
103	15/03/2023	18:18:50.364	0.00000E+0	0.00000E+0	-7.93461E+1	1.48761E-1	0.00000E+0	0.00000E+0	2.01348E+1	1.48318E+1	2.01350E+1	1.48319E+1
104	15/03/2023	18:18:51.816	0.00000E+0	0.00000E+0	-6.32039E+1	-1.23156E+0	0.00000E+0	0.00000E+0	2.03405E+1	1.45638E+1	2.03385E+1	1.45642E+1
105	15/03/2023	18:18:53.293	0.00000E+0	0.00000E+0	-5.32853E+1	-7.01942E-1	0.00000E+0	0.00000E+0	2.05023E+1	1.44630E+1	2.04998E+1	1.44636E+1
106	15/03/2023	18:18:54.790	0.00000E+0	0.00000E+0	5.99407E+1	-8.57894E-1	0.00000E+0	0.00000E+0	2.21070E+1	1.28760E+1	2.21068E+1	1.28744E+1
107	15/03/2023	18:18:56.303	0.00000E+0	0.00000E+0	6.91225E+1	-1.41712E+0	0.00000E+0	0.00000E+0	2.22064E+1	1.27662E+1	2.22068E+1	1.27680E+1
108	15/03/2023	18:18:57.808	0.00000E+0	0.00000E+0	9.42373E+1	4.71023E-1	0.00000E+0	0.00000E+0	2.25977E+1	1.23666E+1	2.26021E+1	1.23673E+1
109	15/03/2023	18:18:59.257	0.00000E+0	0.00000E+0	-8.03802E+0	-9.80501E-2	0.00000E+0	0.00000E+0	2.11972E+1	1.37342E+1	2.11955E+1	1.37354E+1
110	15/03/2023	18:19:00.719	0.00000E+0	0.00000E+0	-6.58306E+1	-5.83454E-1	0.00000E+0	0.00000E+0	2.02968E+1	1.46289E+1	2.02936E+1	1.46278E+1
111	15/03/2023	18:19:02.240	0.00000E+0	0.00000E+0	-8.39491E+1	-7.02107E-1	0.00000E+0	0.00000E+0	2.00918E+1	1.48879E+1	2.00925E+1	1.48905E+1
112	15/03/2023	18:19:03.716	0.00000E+0	0.00000E+0	-7.08294E+1	-1.89296E+0	0.00000E+0	0.00000E+0	2.02449E+1	1.47196E+1	2.02456E+1	1.47195E+1
113	15/03/2023	18:19:05.238	0.00000E+0	0.00000E+0	-3.45978E+1	7.77967E-1	0.00000E+0	0.00000E+0	2.06459E+1	1.42824E+1	2.06457E+1	1.42808E+1
114	15/03/2023	18:19:06.701	0.00000E+0	0.00000E+0	5.37922E+1	3.03226E-1	0.00000E+0	0.00000E+0	2.19688E+1	1.29652E+1	2.19686E+1	1.29642E+1
115	15/03/2023	18:19:08.182	0.00000E+0	0.00000E+0	5.94847E+1	6.01231E-1	0.00000E+0	0.00000E+0	2.21238E+1	1.28547E+1	2.21250E+1	1.28547E+1
116	15/03/2023	18:19:09.684	0.00000E+0	0.00000E+0	8.66501E+1	9.28432E-1	0.00000E+0	0.00000E+0	2.24575E+1	1.25120E+1	2.24573E+1	1.25102E+1
117	15/03/2023	18:19:11.226	0.00000E+0	0.00000E+0	5.89688E+1	6.97427E-1	0.00000E+0	0.00000E+0	2.21007E+1	1.28766E+1	2.21011E+1	1.28776E+1
118	15/03/2023	18:19:12.718	0.00000E+0	0.00000E+0	-4.16523E+1	-4.05238E-1	0.00000E+0	0.00000E+0	2.06909E+1	1.42563E+1	2.06897E+1	1.42548E+1
119	15/03/2023	18:19:14.173	0.00000E+0	0.00000E+0	-6.68411E+1	4.64031E-1	0.00000E+0	0.00000E+0	2.02888E+1	1.46175E+1	2.02880E+1	1.46180E+1
120	15/03/2023	18:19:15.711	0.00000E+0	0.00000E+0	-8.22529E+1	3.13011E-1	0.00000E+0	0.00000E+0	2.00646E+1	1.48480E+1	2.00648E+1	1.48458E+1
121	15/03/2023	18:19:17.193	0.00000E+0	0.00000E+0	-5.59976E+1	-3.46997E-1	0.00000E+0	0.00000E+0	2.04929E+1	1.44575E+1	2.04925E+1	1.44569E+1
122	15/03/2023	18:19:18.669	0.00000E+0	0.00000E+0	2.29877E+1	2.69521E-1	0.00000E+0	0.00000E+0	2.15882E+1	1.33870E+1	2.15858E+1	1.33859E+1
123	15/03/2023	18:19:20.170	0.00000E+0	0.00000E+0	6.33062E+1	9.22281E-1	0.00000E+0	0.00000E+0	2.21589E+1	1.28064E+1	2.21590E+1	1.28076E+1
124	15/03/2023	18:19:21.641	0.00000E+0	0.00000E+0	5.92855E+1	6.02430E-2	0.00000E+0	0.00000E+0	2.20673E+1	1.28986E+1	2.20678E+1	1.28950E+1
125	15/03/2023	18:19:23.127	0.00000E+0	0.00000E+0	6.34581E+1	5.67925E-1	0.00000E+0	0.00000E+0	2.21747E+1	1.27954E+1	2.21728E+1	1.27975E+1
126	15/03/2023	18:19:24.598	0.00000E+0	0.00000E+0	3.65744E+1	5.07216E-1	0.00000E+0	0.00000E+0	2.18109E+1	1.31283E+1	2.18119E+1	1.31281E+1
127	15/03/2023	18:19:26.105	0.00000E+0	0.00000E+0	-4.76167E+1	-1.05130E-1	0.00000E+0	0.00000E+0	2.06013E+1	1.43425E+1	2.05978E+1	1.43401E+1
128	15/03/2023	18:19:27.604	0.00000E+0	0.00000E+0	-5.89261E+1	-8.83777E-2	0.00000E+0	0.00000E+0	2.04063E+1	1.45024E+1	2.04063E+1	1.45038E+1
129	15/03/2023	18:19:29.114	0.00000E+0	0.00000E+0	-1.26376E+2	-2.08108E+0	0.00000E+0	0.00000E+0	1.94351E+1	1.54558E+1	1.94361E+1	1.54572E+1
130	15/03/2023	18:19:30.578	0.00000E+0	0.00000E+0	1.17698E+1	1.60673E+0	0.00000E+0	0.00000E+0	2.13705E+1	1.35802E+1	2.13733E+1	1.35807E+1
131	15/03/2023	18:19:32.128	0.00000E+0	0.00000E+0	1.02596E+2	1.78424E+0	0.00000E+0	0.00000E+0	2.27200E+1	1.22660E+1	2.27173E+1	1.22653E+1
132	15/03/2023	18:19:33.635	0.00000E+0	0.00000E+0	5.37218E+1	-4.71425E-1	0.00000E+0	0.00000E+0	2.20851E+1	1.28903E+1	2.20855E+1	1.28902E+1
133	15/03/2023	18:19:35.138	0.00000E+0	0.00000E+0	3.91713E+1	1.17012E+0	0.00000E+0	0.00000E+0	2.18282E+1	1.31418E+1	2.18286E+1	1.31409E+1
134	15/03/2023	18:19:36.621	0.00000E+0	0.00000E+0	-9.66152E+0	-9.37139E-1	0.00000E+0	0.00000E+0	2.11250E+1	1.38070E+1	2.11234E+1	1.38082E+1
135	15/03/2023	18:19:38.150	0.00000E+0	0.00000E+0	-5.56401E+0	-5.80446E-1	0.00000E+0	0.00000E+0	2.11949E+1	1.37710E+1	2.11941E+1	1.37736E+1
136	15/03/2023	18:19:39.660	0.00000E+0	0.00000E+0	-5.54432E+1	-5.30891E-1	0.00000E+0	0.00000E+0	2.05211E+1	1.44636E+1	2.05228E+1	1.44633E+1
137	15/03/2023	18:19:41.137	0.00000E+0	0.00000E+0	-7.81372E+1	-1.64324E+0	0.00000E+0	0.00000E+0	2.01420E+1	1.47993E+1	2.01413E+1	1.48006E+1
138	15/03/2023	18:19:42.607	0.00000E+0	0.00000E+0	6.31570E+1	-8.54333E-1	0.00000E+0	0.00000E+0	2.21104E+1	1.28130E+1	2.21112E+1	1.28115E+1
139	15/03/2023	18:19:44.070	0.00000E+0	0.00000E+0	9.23878E+1	8.15494E-1	0.00000E+0	0.00000E+0	2.25777E+1	1.24001E+1	2.25760E+1	1.23996E+1
140	15/03/2023	18:19:45.558	0.00000E+0	0.00000E+0	4.04245E+1	1.43680E+0	0.00000E+0	0.00000E+0	2.18712E+1	1.31088E+1	2.18710E+1	1.31080E+1
141	15/03/2023	18:19:47.074	0.00000E+0	0.00000E+0	-7.28693E+1	4.19396E-1	0.00000E+0	0.00000E+0	2.02293E+1	1.46887E+1	2.02302E+1	1.46888E+1
142	15/03/2023	18:19:48.570	0.00000E+0	0.00000E+0	-7.01286E+1	5.07851E-1	0.00000E+0	0.00000E+0	2.02434E+1	1.46484E+1	2.02426E+1	1.46494E+1
143	15/03/2023	18:19:50.142	0.00000E+0	0.00000E+0	-5.77233E+1	1.74655E-1	0.00000E+0	0.00000E+0	2.04244E+1	1.44954E+1	2.04237E+1	1.44969E+1
144	15/03/2023	18:19:51.614	0.00000E+0	0.00000E+0	-7.72606E+1	-7.18397E-1	0.00000E+0	0.00000E+0	2.01451E+1	1.47944E+1	2.01442E+1	1.47953E+1
145	15/03/2023	18:19:53.107	0.00000E+0	0.00000E+0	9.37306E+1	-1.27236E+0	0.00000E+0	0.00000E+0	2.26292E+1	1.23267E+1	2.26303E+1	1.23258E+1
146	15/03/2023	18:19:54.580	0.00000E+0	0.00000E+0	7.40451E+1	2.03734E+0	0.00000E+0	0.00000E+0	2.22340E+1	1.27026E+1	2.22341E+1	1.27017E+1
147	15/03/2023	18:19:56.067	0.00000E+0	0.00000E+0	5.90769E+1	-1.71334E+0	0.00000E+0	0.00000E+0	2.20676E+1	1.28994E+1	2.20682E+1	1.28990E+1
148	15/03/2023	18:19:57.568	0.00000E+0	0.00000E+0	-1.10991E+1	3.53914E-1	0.00000E+0	0.00000E+0	2.11112E+1	1.38479E+1	2.11126E+1	1.38482E+1
149	15/03/2023	18:19:59.041	0.00000E+0	0.00000E+0	-7.38188E+1	-7.21128E-1	0.00000E+0	0.00000E+0	2.02008E+1	1.47227E+1	2.02016E+1	1.47216E+1
150	15/03/2023	18:20:00.551	0.00000E+0	0.00000E+0	-7.85011E+1	-1.37275E+0	0.00000E+0	0.00000E+0	2.01132E+1	1.48224E+1	2.01114E+1	1.48216E+1
151	15/03/2023	18:20:02.084	0.00000E+0	0.00000E+0	-6.61477E+1	3.89933E-1	0.00000E+0	0.00000E+0	2.03537E+1	1.46119E+1	2.03538E+1	1.46121E+1
152	15/03/2023	18:20:03.574	0.00000E+0	0.00000E+0	2.79438E+1	-6.10994E-1	0.00000E+0	0.00000E+0	2.16070E+1	1.33053E+1	2.16053E+1	1.33051E+1
153	15/03/2023	18:20:05.049	0.00000E+0	0.00000E+0	6.91916E+1	1.62798E+0	0.00000E+0	0.00000E+0	2.22444E+1	1.27587E+1	2.22452E+1	1.27605E+1
154	15/03/2023	18:20:06.541	0.00000E+0	0.00000E+0	7.66265E+1	1.14777E+0	0.00000E+0	0.00000E+0	2.22991E+1	1.26516E+1	2.22992E+1	1.26500E+1
155	15/03/2023	18:20:08.034	0.00000E+0	0.00000E+0	5.71620E+1	3.83650E-1	0.00000E+0	0.00000E+0	2.20945E+1	1.28551E+1	2.20915E+1	1.28550E+1
156	15/03/2023	18:20:09.537	0.00000E+0	0.00000E+0	-1.45800E+1	-6.97158E-1	0.00000E+0	0.00000E+0	2.10623E+1	1.38619E+1	2.10592E+1	1.38626E+1
157	15/03/2023	18:20:11.058	0.00000E+0	0.00000E+0	-6.29400E+1	-8.19741E-1	0.00000E+0	0.00000E+0	2.03640E+1	1.45674E+1	2.03653E+1	1.45656E+1
158	15/03/2023	18:20:12.540	0.00000E+0	0.00000E+0	-7.47542E+1	-7.22080E-1	0.00000E+0	0.00000E+0	2.01933E+1	1.47349E+1	2.01944E+1	1.47338E+1
159	15/03/2023	18:20:14.015	0.00000E+0	0.00000E+0	-6.11735E+1	-4.31017E-1	0.00000E+0	0.00000E+0	2.03997E+1	1.45640E+1	2.03980E+1	1.45624E+1
160	15/03/2023	18:20:15.527	0.00000E+0	0.00000E+0	-6.31460E+1	-1.25311E+0	0.00000E+0	0.00000E+0	2.03409E+1	1.45929E+1	2.03376E+1	1.45963E+1
161	15/03/2023	18:20:17.050	0.00000E+0	0.00000E+0	6.77252E+1	-1.10968E+0	0.00000E+0	0.00000E+0	2.21657E+1	1.27978E+1	2.21647E+1	1.27985E+1
162	15/03/2023	18:20:18.543	0.00000E+0	0.00000E+0	7.01225E+1	-1.29938E-1	0.00000E+0	0.00000E+0	2.22281E+1	1.26945E+1	2.22271E+1	1.26933E+1
163	15/03/2023	18:20:20.039	0.00000E+0	0.00000E+0	8.63827E+1	8.60770E-1	0.00000E+0	0.00000E+0	2.24916E+1	1.24758E+1	2.24948E+1	1.24729E+1
164	15/03/2023	18:20:21.546	0.00000E+0	0.00000E+0	3.53357E+1	4.95108E-1	0.00000E+0	0.00000E+0	2.18747E+1	1.31012E+1	2.18746E+1	1.31013E+1
165	15/03/2023	18:20:22.975	0.00000E+0	0.00000E+0	-5.23685E+1	7.44968E-2	0.00000E+0	0.00000E+0	2.05116E+1	1.44271E+1	2.05128E+1	1.44261E+1
166	15/03/2023	18:20:24.418	0.00000E+0	0.00000E+0	-5.14773E+1	-1.56133E+0	0.00000E+0	0.00000E+0	2.04690E+1	1.44343E+1	2.04698E+1	1.44311E+1
167	15/03/2023	18:20:25.939	0.00000E+0	0.00000E+0	-6.75151E+1	-3.65093E-1	0.00000E+0	0.00000E+0	2.02964E+1	1.46731E+1	2.02960E+1	1.46755E+1
168	15/03/2023	18:20:27.374	0.00000E+0	0.00000E+0	-5.18680E+1	3.77460E-1	0.00000E+0	0.00000E+0	2.04863E+1	1.44455E+1	2.04858E+1	1.44430E+1
169	15/03/2023	18:20:28.887	0.00000E+0	0.00000E+0	-6.50082E+1	7.47714E-1	0.00000E+0	0.00000E+0	2.03189E+1	1.46241E+1	2.03192E+1	1.46261E+1
170	15/03/2023	18:20:30.386	0.00000E+0	0.00000E+0	4.22054E+1	6.60779E-1	0.00000E+0	0.00000E+0	2.18620E+1	1.31209E+1	2.18622E+1	1.31191E+1
171	15/03/2023	18:20:31.891	0.00000E+0	0.00000E+0	2.85129E+1	-2.95207E-1	0.00000E+0	0.00000E+0	2.16698E+1	1.32882E+1	2.16720E+1	1.32878E+1
172	15/03/2023	18:20:33.394	0.00000E+0	0.00000E+0	4.15738E+1	-4.46042E-1	0.00000E+0	0.00000E+0	2.18262E+1	1.31223E+1	2.18286E+1	1.31221E+1
173	15/03/2023	18:20:34.892	0.00000E+0	0.00000E+0	6.50926E+1	-7.24160E-1	0.00000E+0	0.00000E+0	2.21699E+1	1.27330E+1	2.21712E+1	1.27319E+1
174	15/03/2023	18:20:36.409	0.00000E+0	0.00000E+0	5.52750E+1	-5.00341E-1	0.00000E+0	0.00000E+0	2.20229E+1	1.29267E+1	2.20227E+1	1.29248E+1
175	15/03/2023	18:20:37.919	0.00000E+0	0.00000E+0	-3.31413E+1	-4.98791E-1	0.00000E+0	0.00000E+0	2.08190E+1	1.40793E+1	2.08161E+1	1.40779E+1
176	15/03/2023	18:20:39.413	0.00000E+0	0.00000E+0	-4.63892E+1	-7.61769E-1	0.00000E+0	0.00000E+0	2.05408E+1	1.43639E+1	2.05385E+1	1.43638E+1
177	15/03/2023	18:20:40.893	0.00000E+0	0.00000E+0	-4.17235E+1	3.64829E-1	0.00000E+0	0.00000E+0	2.06520E+1	1.42666E+1	2.06535E+1	1.42657E+1
178	15/03/2023	18:20:42.363	0.00000E+0	0.00000E+0	-4.09112E+1	3.14545E-1	0.00000E+0	0.00000E+0	2.06602E+1	1.42843E+1	2.06626E+1	1.42853E+1
179	15/03/2023	18:20:43.833	0.00000E+0	0.00000E+0	-3.86219E+1	-1.33754E-1	0.00000E+0	0.00000E+0	2.07276E+1	1.42169E+1	2.07269E+1	1.42186E+1
180	15/03/2023	18:20:45.349	0.00000E+0	0.00000E+0	-4.51998E+1	2.73458E-1	0.00000E+0	0.00000E+0	2.06251E+1	1.43110E+1	2.06250E+1	1.43119E+1
181	15/03/2023	18:20:46.830	0.00000E+0	0.00000E+0	2.24704E+1	1.04364E+0	0.00000E+0	0.00000E+0	2.15939E+1	1.33801E+1	2.15930E+1	1.33794E+1
182	15/03/2023	18:20:48.320	0.00000E+0	0.00000E+0	5.44398E+1	1.31018E+0	0.00000E+0	0.00000E+0	2.20491E+1	1.29098E+1	2.20504E+1	1.29105E+1
183	15/03/2023	18:20:49.822	0.00000E+0	0.00000E+0	3.34333E+1	2.93055E-1	0.00000E+0	0.00000E+0	2.17441E+1	1.32083E+1	2.17432E+1	1.32058E+1
184	15/03/2023	18:20:51.324	0.00000E+0	0.00000E+0	4.88172E+1	2.61936E+0	0.00000E+0	0.00000E+0	2.19446E+1	1.30347E+1	2.19403E+1	1.30322E+1
185	15/03/2023	18:20:52.819	0.00000E+0	0.00000E+0	2.62729E+1	1.06242E+0	0.00000E+0	0.00000E+0	2.16419E+1	1.33200E+1	2.16410E+1	1.33216E+1
186	15/03/2023	18:20:54.327	0.00000E+0	0.00000E+0	4.19638E+1	-1.42390E+0	0.00000E+0	0.00000E+0	2.18685E+1	1.31125E+1	2.18702E+1	1.31129E+1
187	15/03/2023	18:20:55.840	0.00000E+0	0.00000E+0	-3.57866E+1	-3.89785E-2	0.00000E+0	0.00000E+0	2.07695E+1	1.41664E+1	2.07713E+1	1.41677E+1
188	15/03/2023	18:20:57.342	0.00000E+0	0.00000E+0	-5.08968E+1	6.49326E-1	0.00000E+0	0.00000E+0	2.05182E+1	1.44159E+1	2.05195E+1	1.44173E+1
189	15/03/2023	18:20:58.844	0.00000E+0	0.00000E+0	-4.15078E+1	6.41573E-2	0.00000E+0	0.00000E+0	2.06739E+1	1.42513E+1	2.06753E+1	1.42494E+1
190	15/03/2023	18:21:00.351	0.00000E+0	0.00000E+0	-4.08255E+1	-2.48809E-1	0.00000E+0	0.00000E+0	2.06610E+1	1.42873E+1	2.06618E+1	1.42854E+1
191	15/03/2023	18:21:01.878	0.00000E+0	0.00000E+0	-5.30536E+1	-2.44152E-1	0.00000E+0	0.00000E+0	2.05187E+1	1.44519E+1	2.05196E+1	1.44513E+1
192	15/03/2023	18:21:03.389	0.00000E+0	0.00000E+0	-6.31559E+1	-8.01264E-1	0.00000E+0	0.00000E+0	2.03492E+1	1.45987E+1	2.03465E+1	1.46001E+1
193	15/03/2023	18:21:04.877	0.00000E+0	0.00000E+0	6.87939E+1	1.47114E+0	0.00000E+0	0.00000E+0	2.22159E+1	1.27473E+1	2.22161E+1	1.27445E+1
194	15/03/2023	18:21:06.388	0.00000E+0	0.00000E+0	6.38372E+1	4.43477E-1	0.00000E+0	0.00000E+0	2.21900E+1	1.27768E+1	2.21894E+1	1.27778E+1
195	15/03/2023	18:21:07.864	0.00000E+0	0.00000E+0	1.02859E+2	1.40496E-1	0.00000E+0	0.00000E+0	2.27417E+1	1.22234E+1	2.27425E+1	1.22227E+1
196	15/03/2023	18:21:09.347	0.00000E+0	0.00000E+0	-1.68654E+1	-1.13367E+0	0.00000E+0	0.00000E+0	2.10654E+1	1.38593E+1	2.10648E+1	1.38560E+1
197	15/03/2023	18:21:10.810	0.00000E+0	0.00000E+0	-8.36944E+1	-7.04209E-1	0.00000E+0	0.00000E+0	2.00548E+1	1.48557E+1	2.00590E+1	1.48574E+1
198	15/03/2023	18:21:12.300	0.00000E+0	0.00000E+0	-8.23042E+1	-4.88128E-1	0.00000E+0	0.00000E+0	2.00426E+1	1.48910E+1	2.00408E+1	1.48905E+1
199	15/03/2023	18:21:13.790	0.00000E+0	0.00000E+0	-6.42318E+1	-1.51895E-1	0.00000E+0	0.00000E+0	2.03358E+1	1.45871E+1	2.03375E+1	1.45876E+1
200	15/03/2023	18:21:15.270	0.00000E+0	0.00000E+0	5.08030E+1	1.09934E+0	0.00000E+0	0.00000E+0	2.19321E+1	1.29862E+1	2.19315E+1	1.29867E+1
201	15/03/2023	18:21:16.794	0.00000E+0	0.00000E+0	7.36424E+1	7.57791E-1	0.00000E+0	0.00000E+0	2.23048E+1	1.26002E+1	2.23037E+1	1.25983E+1
202	15/03/2023	18:21:18.294	0.00000E+0	0.00000E+0	7.34987E+1	4.72827E-1	0.00000E+0	0.00000E+0	2.22842E+1	1.26619E+1	2.22858E+1	1.26636E+1
203	15/03/2023	18:21:19.778	0.00000E+0	0.00000E+0	6.88038E+1	1.81551E+0	0.00000E+0	0.00000E+0	2.22353E+1	1.26792E+1	2.22337E+1	1.26802E+1
204	15/03/2023	18:21:21.319	0.00000E+0	0.00000E+0	-6.80568E+1	-6.50416E-1	0.00000E+0	0.00000E+0	2.02638E+1	1.46448E+1	2.02651E+1	1.46475E+1
205	15/03/2023	18:21:22.822	0.00000E+0	0.00000E+0	-1.93070E+1	7.50822E-1	0.00000E+0	0.00000E+0	2.09267E+1	1.39909E+1	2.09270E+1	1.39901E+1
206	15/03/2023	18:21:24.340	0.00000E+0	0.00000E+0	-5.48328E+0	-6.00444E-1	0.00000E+0	0.00000E+0	2.11208E+1	1.37989E+1	2.11202E+1	1.37994E+1
207	15/03/2023	18:21:25.875	0.00000E+0	0.00000E+0	3.02444E+1	-9.22727E-1	0.00000E+0	0.00000E+0	2.16528E+1	1.32733E+1	2.16534E+1	1.32726E+1
208	15/03/2023	18:21:27.374	0.00000E+0	0.00000E+0	3.02776E+1	-3.22416E+0	0.00000E+0	0.00000E+0	2.17237E+1	1.33518E+1	2.17252E+1	1.33516E+1
209	15/03/2023	18:21:28.901	0.00000E+0	0.00000E+0	-7.50915E+1	-2.84414E+0	0.00000E+0	0.00000E+0	2.02765E+1	1.46737E+1	2.02768E+1	1.46732E+1
210	15/03/2023	18:21:30.430	0.00000E+0	0.00000E+0	-8.71111E+1	-2.32260E+0	0.00000E+0	0.00000E+0	2.00680E+1	1.49061E+1	2.00678E+1	1.49063E+1
211	15/03/2023	18:21:31.927	0.00000E+0	0.00000E+0	-8.05248E+1	4.85724E-2	0.00000E+0	0.00000E+0	2.00648E+1	1.48544E+1	2.00625E+1	1.48558E+1
212	15/03/2023	18:21:33.454	0.00000E+0	0.00000E+0	4.33572E+1	-1.61132E-1	0.00000E+0	0.00000E+0	2.18237E+1	1.31191E+1	2.18241E+1	1.31211E+1
213	15/03/2023	18:21:34.920	0.00000E+0	0.00000E+0	9.85152E+1	1.02848E+0	0.00000E+0	0.00000E+0	2.26510E+1	1.23204E+1	2.26503E+1	1.23229E+1
214	15/03/2023	18:21:36.350	0.00000E+0	0.00000E+0	1.00741E+2	3.46569E-1	0.00000E+0	0.00000E+0	2.26955E+1	1.22904E+1	2.26965E+1	1.22892E+1
215	15/03/2023	18:21:37.853	0.00000E+0	0.00000E+0	-1.23586E+1	-3.71558E-1	0.00000E+0	0.00000E+0	2.11098E+1	1.38097E+1	2.11090E+1	1.38080E+1
216	15/03/2023	18:21:39.363	0.00000E+0	0.00000E+0	-9.50726E+1	4.09245E-1	0.00000E+0	0.00000E+0	1.98623E+1	1.50379E+1	1.98624E+1	1.50382E+1
217	15/03/2023	18:21:40.867	0.00000E+0	0.00000E+0	-7.68503E+1	4.75469E-1	0.00000E+0	0.00000E+0	2.01369E+1	1.47947E+1	2.01351E+1	1.47928E+1
218	15/03/2023	18:21:42.343	0.00000E+0	0.00000E+0	-7.66420E+1	-1.25044E+0	0.00000E+0	0.00000E+0	2.01475E+1	1.47892E+1	2.01474E+1	1.47889E+1
219	15/03/2023	18:21:43.815	0.00000E+0	0.00000E+0	1.19900E+2	7.72102E-1	0.00000E+0	0.00000E+0	2.29533E+1	1.19800E+1	2.29520E+1	1.19784E+1
220	15/03/2023	18:21:45.298	0.00000E+0	0.00000E+0	8.79870E+1	1.97653E+0	0.00000E+0	0.00000E+0	2.24762E+1	1.24968E+1	2.24759E+1	1.24967E+1
221	15/03/2023	18:21:46.792	0.00000E+0	0.00000E+0	6.68357E+1	5.74398E-1	0.00000E+0	0.00000E+0	2.22456E+1	1.27224E+1	2.22452E+1	1.27224E+1
222	15/03/2023	18:21:48.288	0.00000E+0	0.00000E+0	-6.99233E+1	-6.16425E-1	0.00000E+0	0.00000E+0	2.02828E+1	1.46712E+1	2.02825E+1	1.46690E+1
223	15/03/2023	18:21:49.759	0.00000E+0	0.00000E+0	-7.27554E+1	-6.61118E-2	0.00000E+0	0.00000E+0	2.02263E+1	1.46987E+1	2.02265E+1	1.46958E+1
224	15/03/2023	18:21:51.259	0.00000E+0	0.00000E+0	-6.33367E+1	8.55388E-2	0.00000E+0	0.00000E+0	2.03535E+1	1.46118E+1	2.03527E+1	1.46122E+1
225	15/03/2023	18:21:52.732	0.00000E+0	0.00000E+0	-6.08767E+1	2.83453E-1	0.00000E+0	0.00000E+0	2.03367E+1	1.45794E+1	2.03373E+1	1.45806E+1
226	15/03/2023	18:21:54.206	0.00000E+0	0.00000E+0	1.07128E+2	8.80974E-1	0.00000E+0	0.00000E+0	2.28055E+1	1.21937E+1	2.28076E+1	1.21960E+1
227	15/03/2023	18:21:55.710	0.00000E+0	0.00000E+0	1.06049E+2	-9.20343E-2	0.00000E+0	0.00000E+0	2.27241E+1	1.22259E+1	2.27228E+1	1.22251E+1
228	15/03/2023	18:21:57.226	0.00000E+0	0.00000E+0	5.70704E+1	1.21286E+0	0.00000E+0	0.00000E+0	2.20819E+1	1.28756E+1	2.20838E+1	1.28771E+1
229	15/03/2023	18:21:58.746	0.00000E+0	0.00000E+0	-6.30819E+1	-1.31967E+0	0.00000E+0	0.00000E+0	2.03766E+1	1.45476E+1	2.03783E+1	1.45503E+1
230	15/03/2023	18:22:00.273	0.00000E+0	0.00000E+0	-7.78536E+1	2.04500E-1	0.00000E+0	0.00000E+0	2.01868E+1	1.47706E+1	2.01866E+1	1.47730E+1
231	15/03/2023	18:22:01.768	0.00000E+0	0.00000E+0	-6.29922E+1	-9.33460E-1	0.00000E+0	0.00000E+0	2.02988E+1	1.46548E+1	2.03004E+1	1.46531E+1
232	15/03/2023	18:22:03.291	0.00000E+0	0.00000E+0	-6.24866E+1	-2.37833E-1	0.00000E+0	0.00000E+0	2.03763E+1	1.45818E+1	2.03790E+1	1.45828E+1
233	15/03/2023	18:22:04.796	0.00000E+0	0.00000E+0	7.32531E+1	1.79734E+0	0.00000E+0	0.00000E+0	2.22522E+1	1.27124E+1	2.22501E+1	1.27121E+1
234	15/03/2023	18:22:06.242	0.00000E+0	0.00000E+0	6.85317E+1	1.90477E+0	0.00000E+0	0.00000E+0	2.22194E+1	1.26823E+1	2.22181E+1	1.26815E+1
235	15/03/2023	18:22:07.725	0.00000E+0	0.00000E+0	7.92773E+1	1.33319E-1	0.00000E+0	0.00000E+0	2.24079E+1	1.25658E+1	2.24073E+1	1.25639E+1
236	15/03/2023	18:22:09.208	0.00000E+0	0.00000E+0	2.91598E+1	-9.95480E-1	0.00000E+0	0.00000E+0	2.17379E+1	1.31827E+1	2.17374E+1	1.31805E+1
237	15/03/2023	18:22:10.714	0.00000E+0	0.00000E+0	-8.48266E+1	6.11293E-1	0.00000E+0	0.00000E+0	2.00728E+1	1.48803E+1	2.00724E+1	1.48788E+1
238	15/03/2023	18:22:12.213	0.00000E+0	0.00000E+0	-8.57164E+1	-1.57633E+0	0.00000E+0	0.00000E+0	2.00146E+1	1.49144E+1	2.00132E+1	1.49148E+1
239	15/03/2023	18:22:13.687	0.00000E+0	0.00000E+0	-6.24657E+1	-1.12645E+0	0.00000E+0	0.00000E+0	2.03830E+1	1.45588E+1	2.03865E+1	1.45609E+1
240	15/03/2023	18:22:15.167	0.00000E+0	0.00000E+0	4.36097E+1	-1.60221E+0	0.00000E+0	0.00000E+0	2.18089E+1	1.31094E+1	2.18091E+1	1.31106E+1
241	15/03/2023	18:22:16.647	0.00000E+0	0.00000E+0	6.82458E+1	1.44896E+0	0.00000E+0	0.00000E+0	2.22538E+1	1.27355E+1	2.22539E+1	1.27395E+1
242	15/03/2023	18:22:18.138	0.00000E+0	0.00000E+0	7.52766E+1	-1.93257E-1	0.00000E+0	0.00000E+0	2.22725E+1	1.26878E+1	2.22732E+1	1.26868E+1
