#Iteration	Date	Time	STSX	STSY	RotationRateX	RotationRateY	FrCntX	FrCntY	TiptiltCmd1	TiptiltCmd2	TiptiltMonitor1	TiptiltMonitor2
1	17/03/2023	15:57:36.308	0.00000E+0	0.00000E+0	1.16723E+2	6.45587E-1	0.00000E+0	0.00000E+0	2.29170E+1	1.20540E+1	2.29161E+1	1.20538E+1
2	17/03/2023	15:57:37.811	0.00000E+0	0.00000E+0	2.82678E+1	-8.00746E-1	0.00000E+0	0.00000E+0	2.18193E+1	1.31531E+1	2.18215E+1	1.31536E+1
3	17/03/2023	15:57:39.314	0.00000E+0	0.00000E+0	-1.78798E+2	-2.27793E+0	0.00000E+0	0.00000E+0	1.87272E+1	1.62050E+1	1.87265E+1	1.62049E+1
4	17/03/2023	15:57:40.780	0.00000E+0	0.00000E+0	1.71116E+2	-3.16707E-1	0.00000E+0	0.00000E+0	2.35994E+1	1.13797E+1	2.36008E+1	1.13810E+1
5	17/03/2023	15:57:42.288	0.00000E+0	0.00000E+0	-1.16942E+2	2.11122E+0	0.00000E+0	0.00000E+0	1.98341E+1	1.50952E+1	1.98331E+1	1.50949E+1
6	17/03/2023	15:57:43.772	0.00000E+0	0.00000E+0	-1.85311E+2	-2.95303E-1	0.00000E+0	0.00000E+0	1.86138E+1	1.62867E+1	1.86147E+1	1.62873E+1
7	17/03/2023	15:57:45.230	0.00000E+0	0.00000E+0	2.25267E+2	2.39949E+0	0.00000E+0	0.00000E+0	2.44804E+1	1.05148E+1	2.44808E+1	1.05162E+1
8	17/03/2023	15:57:46.683	0.00000E+0	0.00000E+0	-1.58251E+2	-1.87041E+0	0.00000E+0	0.00000E+0	1.91311E+1	1.58234E+1	1.91310E+1	1.58240E+1
9	17/03/2023	15:57:48.177	0.00000E+0	0.00000E+0	-1.27233E+2	-1.98065E+0	0.00000E+0	0.00000E+0	1.91527E+1	1.57281E+1	1.91530E+1	1.57280E+1
10	17/03/2023	15:57:49.644	0.00000E+0	0.00000E+0	2.04532E+2	3.55589E-1	0.00000E+0	0.00000E+0	2.41893E+1	1.08041E+1	2.41895E+1	1.08055E+1
11	17/03/2023	15:57:51.127	0.00000E+0	0.00000E+0	-1.99411E+2	-1.66831E+0	0.00000E+0	0.00000E+0	1.84700E+1	1.64155E+1	1.84690E+1	1.64151E+1
12	17/03/2023	15:57:52.625	0.00000E+0	0.00000E+0	-7.13807E+1	-5.75952E-1	0.00000E+0	0.00000E+0	1.98980E+1	1.50164E+1	1.98983E+1	1.50171E+1
13	17/03/2023	15:57:54.100	0.00000E+0	0.00000E+0	2.25850E+2	1.07705E+0	0.00000E+0	0.00000E+0	2.45235E+1	1.05028E+1	2.45247E+1	1.05049E+1
14	17/03/2023	15:57:55.565	0.00000E+0	0.00000E+0	-1.98596E+2	-3.82147E+0	0.00000E+0	0.00000E+0	1.84917E+1	1.64618E+1	1.84909E+1	1.64637E+1
15	17/03/2023	15:57:57.044	0.00000E+0	0.00000E+0	7.95652E+1	2.42026E+0	0.00000E+0	0.00000E+0	2.21542E+1	1.28024E+1	2.21545E+1	1.28010E+1
16	17/03/2023	15:57:58.544	0.00000E+0	0.00000E+0	1.74236E+2	2.99246E+0	0.00000E+0	0.00000E+0	2.37606E+1	1.11808E+1	2.37611E+1	1.11789E+1
17	17/03/2023	15:58:00.023	0.00000E+0	0.00000E+0	-1.86849E+2	-9.33968E-1	0.00000E+0	0.00000E+0	1.86010E+1	1.62858E+1	1.86018E+1	1.62857E+1
18	17/03/2023	15:58:01.510	0.00000E+0	0.00000E+0	8.70156E+1	1.67009E+0	0.00000E+0	0.00000E+0	2.22861E+1	1.26839E+1	2.22883E+1	1.26815E+1
19	17/03/2023	15:58:03.005	0.00000E+0	0.00000E+0	1.79949E+2	-5.61829E-1	0.00000E+0	0.00000E+0	2.39233E+1	1.10944E+1	2.39237E+1	1.10950E+1
20	17/03/2023	15:58:04.494	0.00000E+0	0.00000E+0	-2.22912E+2	-1.56555E+0	0.00000E+0	0.00000E+0	1.80863E+1	1.68015E+1	1.80855E+1	1.68008E+1
21	17/03/2023	15:58:05.996	0.00000E+0	0.00000E+0	1.93437E+2	3.93504E+0	0.00000E+0	0.00000E+0	2.38933E+1	1.10396E+1	2.38935E+1	1.10388E+1
22	17/03/2023	15:58:07.480	0.00000E+0	0.00000E+0	9.78408E+1	-5.40535E-1	0.00000E+0	0.00000E+0	2.29703E+1	1.19784E+1	2.29699E+1	1.19770E+1
23	17/03/2023	15:58:08.993	0.00000E+0	0.00000E+0	-1.75923E+2	-3.69206E+0	0.00000E+0	0.00000E+0	1.86510E+1	1.61731E+1	1.86498E+1	1.61747E+1
24	17/03/2023	15:58:10.470	0.00000E+0	0.00000E+0	2.50010E+2	1.98470E+0	0.00000E+0	0.00000E+0	2.48355E+1	1.01127E+1	2.48362E+1	1.01133E+1
25	17/03/2023	15:58:11.963	0.00000E+0	0.00000E+0	-2.20379E+2	-7.66062E-1	0.00000E+0	0.00000E+0	1.81357E+1	1.67871E+1	1.81376E+1	1.67851E+1
26	17/03/2023	15:58:13.506	0.00000E+0	0.00000E+0	9.64208E+1	3.75547E+0	0.00000E+0	0.00000E+0	2.23917E+1	1.25412E+1	2.23932E+1	1.25411E+1
27	17/03/2023	15:58:14.989	0.00000E+0	0.00000E+0	1.19665E+2	3.90877E-2	0.00000E+0	0.00000E+0	2.33737E+1	1.15908E+1	2.33738E+1	1.15888E+1
28	17/03/2023	15:58:16.465	0.00000E+0	0.00000E+0	-2.06242E+2	-1.24804E+0	0.00000E+0	0.00000E+0	1.82466E+1	1.66791E+1	1.82461E+1	1.66778E+1
29	17/03/2023	15:58:17.982	0.00000E+0	0.00000E+0	2.22799E+2	1.13757E+0	0.00000E+0	0.00000E+0	2.44490E+1	1.05667E+1	2.44497E+1	1.05665E+1
30	17/03/2023	15:58:19.477	0.00000E+0	0.00000E+0	-1.45916E+2	-1.89847E+0	0.00000E+0	0.00000E+0	1.92477E+1	1.57338E+1	1.92508E+1	1.57358E+1
31	17/03/2023	15:58:20.953	0.00000E+0	0.00000E+0	-1.10999E+2	5.50529E-1	0.00000E+0	0.00000E+0	1.94075E+1	1.55545E+1	1.94068E+1	1.55541E+1
32	17/03/2023	15:58:22.474	0.00000E+0	0.00000E+0	2.02710E+2	8.62537E-1	0.00000E+0	0.00000E+0	2.42352E+1	1.07935E+1	2.42347E+1	1.07940E+1
33	17/03/2023	15:58:23.972	0.00000E+0	0.00000E+0	-2.78549E+2	-1.52088E+0	0.00000E+0	0.00000E+0	1.73018E+1	1.75136E+1	1.73009E+1	1.75142E+1
34	17/03/2023	15:58:25.449	0.00000E+0	0.00000E+0	1.77204E+2	1.65395E+0	0.00000E+0	0.00000E+0	2.36143E+1	1.14246E+1	2.36139E+1	1.14253E+1
35	17/03/2023	15:58:26.943	0.00000E+0	0.00000E+0	6.39986E+1	1.81965E+0	0.00000E+0	0.00000E+0	2.24198E+1	1.25529E+1	2.24186E+1	1.25535E+1
36	17/03/2023	15:58:28.403	0.00000E+0	0.00000E+0	-2.07151E+2	1.67587E-2	0.00000E+0	0.00000E+0	1.82697E+1	1.66563E+1	1.82708E+1	1.66589E+1
37	17/03/2023	15:58:29.887	0.00000E+0	0.00000E+0	2.35784E+2	1.54914E+0	0.00000E+0	0.00000E+0	2.45627E+1	1.04117E+1	2.45616E+1	1.04109E+1
38	17/03/2023	15:58:31.383	0.00000E+0	0.00000E+0	-1.78654E+2	1.53961E+0	0.00000E+0	0.00000E+0	1.88122E+1	1.60834E+1	1.88134E+1	1.60848E+1
39	17/03/2023	15:58:32.905	0.00000E+0	0.00000E+0	-3.50631E+1	3.60338E-1	0.00000E+0	0.00000E+0	2.03704E+1	1.45221E+1	2.03719E+1	1.45200E+1
40	17/03/2023	15:58:34.389	0.00000E+0	0.00000E+0	2.12833E+2	8.18271E-1	0.00000E+0	0.00000E+0	2.43731E+1	1.06543E+1	2.43726E+1	1.06544E+1
41	17/03/2023	15:58:35.867	0.00000E+0	0.00000E+0	-2.35087E+2	-7.46157E-1	0.00000E+0	0.00000E+0	1.78731E+1	1.70269E+1	1.78724E+1	1.70277E+1
42	17/03/2023	15:58:37.345	0.00000E+0	0.00000E+0	2.18911E+2	1.80777E+0	0.00000E+0	0.00000E+0	2.41467E+1	1.08811E+1	2.41501E+1	1.08829E+1
43	17/03/2023	15:58:38.822	0.00000E+0	0.00000E+0	-8.19782E+1	1.99779E+0	0.00000E+0	0.00000E+0	2.03036E+1	1.45964E+1	2.03048E+1	1.45970E+1
44	17/03/2023	15:58:40.288	0.00000E+0	0.00000E+0	-1.45828E+2	1.43582E+0	0.00000E+0	0.00000E+0	1.89899E+1	1.59788E+1	1.89898E+1	1.59803E+1
45	17/03/2023	15:58:41.772	0.00000E+0	0.00000E+0	2.24333E+2	2.69124E+0	0.00000E+0	0.00000E+0	2.44465E+1	1.05898E+1	2.44468E+1	1.05917E+1
46	17/03/2023	15:58:43.249	0.00000E+0	0.00000E+0	-1.99236E+2	1.87748E+0	0.00000E+0	0.00000E+0	1.84692E+1	1.64788E+1	1.84691E+1	1.64768E+1
47	17/03/2023	15:58:44.746	0.00000E+0	0.00000E+0	1.65412E+2	2.89564E-1	0.00000E+0	0.00000E+0	2.33829E+1	1.16038E+1	2.33834E+1	1.16035E+1
48	17/03/2023	15:58:46.265	0.00000E+0	0.00000E+0	6.98700E+1	2.21988E+0	0.00000E+0	0.00000E+0	2.26010E+1	1.24095E+1	2.26011E+1	1.24091E+1
49	17/03/2023	15:58:47.735	0.00000E+0	0.00000E+0	-2.37027E+2	9.28831E-1	0.00000E+0	0.00000E+0	1.78664E+1	1.70439E+1	1.78664E+1	1.70423E+1
50	17/03/2023	15:58:49.267	0.00000E+0	0.00000E+0	2.54626E+2	1.10784E+0	0.00000E+0	0.00000E+0	2.48551E+1	1.01526E+1	2.48543E+1	1.01525E+1
51	17/03/2023	15:58:50.743	0.00000E+0	0.00000E+0	-2.02486E+2	-1.30664E+0	0.00000E+0	0.00000E+0	1.84320E+1	1.64983E+1	1.84330E+1	1.64987E+1
52	17/03/2023	15:58:52.231	0.00000E+0	0.00000E+0	6.48841E+1	8.21719E-1	0.00000E+0	0.00000E+0	2.18334E+1	1.31450E+1	2.18354E+1	1.31405E+1
53	17/03/2023	15:58:53.725	0.00000E+0	0.00000E+0	1.99194E+2	8.22987E-2	0.00000E+0	0.00000E+0	2.43036E+1	1.06749E+1	2.43007E+1	1.06747E+1
54	17/03/2023	15:58:55.230	0.00000E+0	0.00000E+0	-2.16583E+2	3.53055E-1	0.00000E+0	0.00000E+0	1.81595E+1	1.67533E+1	1.81571E+1	1.67533E+1
55	17/03/2023	15:58:56.706	0.00000E+0	0.00000E+0	2.24471E+2	6.02852E-1	0.00000E+0	0.00000E+0	2.43450E+1	1.06104E+1	2.43449E+1	1.06104E+1
56	17/03/2023	15:58:58.192	0.00000E+0	0.00000E+0	-1.26431E+2	-5.99297E-1	0.00000E+0	0.00000E+0	1.97146E+1	1.51882E+1	1.97133E+1	1.51892E+1
57	17/03/2023	15:58:59.706	0.00000E+0	0.00000E+0	-1.61082E+2	-7.16225E-1	0.00000E+0	0.00000E+0	1.87421E+1	1.61102E+1	1.87422E+1	1.61117E+1
58	17/03/2023	15:59:01.178	0.00000E+0	0.00000E+0	2.33055E+2	1.51410E+0	0.00000E+0	0.00000E+0	2.46316E+1	1.04211E+1	2.46311E+1	1.04217E+1
59	17/03/2023	15:59:02.659	0.00000E+0	0.00000E+0	-2.09861E+2	-1.94744E+0	0.00000E+0	0.00000E+0	1.83327E+1	1.66561E+1	1.83306E+1	1.66551E+1
60	17/03/2023	15:59:04.156	0.00000E+0	0.00000E+0	1.51545E+2	-7.21572E-2	0.00000E+0	0.00000E+0	2.30819E+1	1.18858E+1	2.30802E+1	1.18878E+1
61	17/03/2023	15:59:05.664	0.00000E+0	0.00000E+0	-9.59899E+1	7.21563E-1	0.00000E+0	0.00000E+0	2.02200E+1	1.47049E+1	2.02200E+1	1.47024E+1
62	17/03/2023	15:59:07.149	0.00000E+0	0.00000E+0	-9.86715E+1	2.14807E-1	0.00000E+0	0.00000E+0	1.95550E+1	1.53451E+1	1.95552E+1	1.53454E+1
63	17/03/2023	15:59:08.636	0.00000E+0	0.00000E+0	2.32513E+2	7.86701E-1	0.00000E+0	0.00000E+0	2.45587E+1	1.04875E+1	2.45580E+1	1.04889E+1
64	17/03/2023	15:59:10.144	0.00000E+0	0.00000E+0	-2.05616E+2	-1.38761E+0	0.00000E+0	0.00000E+0	1.83687E+1	1.64866E+1	1.83696E+1	1.64878E+1
65	17/03/2023	15:59:11.660	0.00000E+0	0.00000E+0	7.47985E+1	-7.09850E-1	0.00000E+0	0.00000E+0	2.19671E+1	1.29671E+1	2.19673E+1	1.29671E+1
66	17/03/2023	15:59:13.112	0.00000E+0	0.00000E+0	1.82623E+2	2.13831E+0	0.00000E+0	0.00000E+0	2.39530E+1	1.09780E+1	2.39559E+1	1.09765E+1
67	17/03/2023	15:59:14.612	0.00000E+0	0.00000E+0	-2.09704E+2	-2.18966E+0	0.00000E+0	0.00000E+0	1.82643E+1	1.66594E+1	1.82651E+1	1.66601E+1
68	17/03/2023	15:59:16.077	0.00000E+0	0.00000E+0	1.73544E+2	-3.94221E-1	0.00000E+0	0.00000E+0	2.35859E+1	1.13689E+1	2.35882E+1	1.13671E+1
69	17/03/2023	15:59:17.595	0.00000E+0	0.00000E+0	5.96434E+1	4.29759E-1	0.00000E+0	0.00000E+0	2.25406E+1	1.24479E+1	2.25385E+1	1.24517E+1
70	17/03/2023	15:59:19.098	0.00000E+0	0.00000E+0	-2.06551E+2	-2.39696E+0	0.00000E+0	0.00000E+0	1.82127E+1	1.67018E+1	1.82156E+1	1.67010E+1
71	17/03/2023	15:59:20.551	0.00000E+0	0.00000E+0	2.04530E+2	2.45215E+0	0.00000E+0	0.00000E+0	2.41463E+1	1.08337E+1	2.41446E+1	1.08319E+1
72	17/03/2023	15:59:22.034	0.00000E+0	0.00000E+0	-1.45077E+2	9.10847E-1	0.00000E+0	0.00000E+0	1.92670E+1	1.56659E+1	1.92684E+1	1.56680E+1
73	17/03/2023	15:59:23.531	0.00000E+0	0.00000E+0	5.60290E+1	-4.42823E+0	0.00000E+0	0.00000E+0	2.16888E+1	1.32826E+1	2.16887E+1	1.32835E+1
74	17/03/2023	15:59:25.037	0.00000E+0	0.00000E+0	1.92567E+2	-1.18565E+0	0.00000E+0	0.00000E+0	2.40919E+1	1.08630E+1	2.40917E+1	1.08631E+1
75	17/03/2023	15:59:26.537	0.00000E+0	0.00000E+0	-2.29944E+2	-1.44249E+0	0.00000E+0	0.00000E+0	1.79767E+1	1.69845E+1	1.79756E+1	1.69817E+1
76	17/03/2023	15:59:28.060	0.00000E+0	0.00000E+0	1.83351E+2	1.87323E+0	0.00000E+0	0.00000E+0	2.37332E+1	1.12315E+1	2.37353E+1	1.12326E+1
77	17/03/2023	15:59:29.555	0.00000E+0	0.00000E+0	-4.71598E+1	-1.61963E+0	0.00000E+0	0.00000E+0	2.08759E+1	1.40646E+1	2.08757E+1	1.40666E+1
78	17/03/2023	15:59:31.042	0.00000E+0	0.00000E+0	-2.20350E+2	-3.22778E+0	0.00000E+0	0.00000E+0	1.80559E+1	1.68660E+1	1.80579E+1	1.68662E+1
79	17/03/2023	15:59:32.522	0.00000E+0	0.00000E+0	2.25746E+2	3.30474E-1	0.00000E+0	0.00000E+0	2.44960E+1	1.05544E+1	2.44966E+1	1.05552E+1
80	17/03/2023	15:59:34.050	0.00000E+0	0.00000E+0	-1.75938E+2	-1.39234E+0	0.00000E+0	0.00000E+0	1.89276E+1	1.60412E+1	1.89271E+1	1.60420E+1
81	17/03/2023	15:59:35.580	0.00000E+0	0.00000E+0	-1.47323E+2	1.76232E-1	0.00000E+0	0.00000E+0	1.90788E+1	1.57767E+1	1.90784E+1	1.57775E+1
82	17/03/2023	15:59:37.046	0.00000E+0	0.00000E+0	2.27854E+2	-3.76534E-2	0.00000E+0	0.00000E+0	2.44754E+1	1.05280E+1	2.44783E+1	1.05265E+1
83	17/03/2023	15:59:38.532	0.00000E+0	0.00000E+0	-2.06693E+2	2.68987E+0	0.00000E+0	0.00000E+0	1.83098E+1	1.65848E+1	1.83105E+1	1.65840E+1
84	17/03/2023	15:59:40.041	0.00000E+0	0.00000E+0	9.37412E+1	-3.99153E-1	0.00000E+0	0.00000E+0	2.22297E+1	1.27440E+1	2.22296E+1	1.27409E+1
85	17/03/2023	15:59:41.549	0.00000E+0	0.00000E+0	1.48692E+2	-2.52806E-1	0.00000E+0	0.00000E+0	2.34859E+1	1.14609E+1	2.34869E+1	1.14617E+1
86	17/03/2023	15:59:43.033	0.00000E+0	0.00000E+0	-2.26917E+2	6.35075E-1	0.00000E+0	0.00000E+0	1.79975E+1	1.69431E+1	1.79990E+1	1.69445E+1
87	17/03/2023	15:59:44.526	0.00000E+0	0.00000E+0	2.02358E+2	1.77733E+0	0.00000E+0	0.00000E+0	2.40235E+1	1.09914E+1	2.40225E+1	1.09907E+1
88	17/03/2023	15:59:46.019	0.00000E+0	0.00000E+0	-2.37446E+1	2.87518E+0	0.00000E+0	0.00000E+0	2.12335E+1	1.36937E+1	2.12329E+1	1.36928E+1
89	17/03/2023	15:59:47.478	0.00000E+0	0.00000E+0	-2.09293E+2	-2.50541E+0	0.00000E+0	0.00000E+0	1.82008E+1	1.66201E+1	1.81998E+1	1.66221E+1
90	17/03/2023	15:59:48.931	0.00000E+0	0.00000E+0	1.95545E+2	1.11306E+0	0.00000E+0	0.00000E+0	2.41142E+1	1.09458E+1	2.41157E+1	1.09451E+1
91	17/03/2023	15:59:50.429	0.00000E+0	0.00000E+0	-1.75129E+2	-4.55252E+0	0.00000E+0	0.00000E+0	1.88117E+1	1.60688E+1	1.88131E+1	1.60728E+1
92	17/03/2023	15:59:51.946	0.00000E+0	0.00000E+0	-3.71939E+1	-3.74230E-1	0.00000E+0	0.00000E+0	2.03696E+1	1.45204E+1	2.03679E+1	1.45202E+1
93	17/03/2023	15:59:53.434	0.00000E+0	0.00000E+0	2.33200E+2	3.42597E+0	0.00000E+0	0.00000E+0	2.46432E+1	1.03664E+1	2.46434E+1	1.03644E+1
94	17/03/2023	15:59:54.968	0.00000E+0	0.00000E+0	-2.21940E+2	1.91841E+0	0.00000E+0	0.00000E+0	1.81117E+1	1.67215E+1	1.81122E+1	1.67214E+1
95	17/03/2023	15:59:56.416	0.00000E+0	0.00000E+0	1.58994E+2	2.24388E+0	0.00000E+0	0.00000E+0	2.33033E+1	1.16539E+1	2.32991E+1	1.16530E+1
96	17/03/2023	15:59:57.897	0.00000E+0	0.00000E+0	9.50900E+1	8.12831E-1	0.00000E+0	0.00000E+0	2.29779E+1	1.20484E+1	2.29767E+1	1.20509E+1
97	17/03/2023	15:59:59.403	0.00000E+0	0.00000E+0	-2.10404E+2	-1.12020E+0	0.00000E+0	0.00000E+0	1.82688E+1	1.66289E+1	1.82668E+1	1.66314E+1
98	17/03/2023	16:00:00.904	0.00000E+0	0.00000E+0	2.40384E+2	3.63533E+0	0.00000E+0	0.00000E+0	2.46050E+1	1.03383E+1	2.46056E+1	1.03356E+1
99	17/03/2023	16:00:02.392	0.00000E+0	0.00000E+0	-1.94506E+2	-3.56954E+0	0.00000E+0	0.00000E+0	1.86847E+1	1.62201E+1	1.86853E+1	1.62204E+1
100	17/03/2023	16:00:03.890	0.00000E+0	0.00000E+0	1.44916E+1	-1.07732E-1	0.00000E+0	0.00000E+0	2.09649E+1	1.39232E+1	2.09650E+1	1.39241E+1
101	17/03/2023	16:00:05.390	0.00000E+0	0.00000E+0	2.20262E+2	1.49198E+0	0.00000E+0	0.00000E+0	2.44706E+1	1.05210E+1	2.44691E+1	1.05209E+1
102	17/03/2023	16:00:06.894	0.00000E+0	0.00000E+0	-2.45132E+2	1.10263E+0	0.00000E+0	0.00000E+0	1.76821E+1	1.71639E+1	1.76817E+1	1.71640E+1
103	17/03/2023	16:00:08.369	0.00000E+0	0.00000E+0	1.99371E+2	1.29098E+0	0.00000E+0	0.00000E+0	2.39854E+1	1.10123E+1	2.39870E+1	1.10115E+1
104	17/03/2023	16:00:09.871	0.00000E+0	0.00000E+0	-5.56168E+1	-5.30665E-1	0.00000E+0	0.00000E+0	2.07252E+1	1.41631E+1	2.07252E+1	1.41630E+1
105	17/03/2023	16:00:11.383	0.00000E+0	0.00000E+0	-1.80157E+2	-2.90310E+0	0.00000E+0	0.00000E+0	1.86503E+1	1.62904E+1	1.86509E+1	1.62925E+1
106	17/03/2023	16:00:12.856	0.00000E+0	0.00000E+0	2.14234E+2	4.35921E+0	0.00000E+0	0.00000E+0	2.42962E+1	1.07022E+1	2.42944E+1	1.07033E+1
107	17/03/2023	16:00:14.369	0.00000E+0	0.00000E+0	-1.64527E+2	-6.26155E-1	0.00000E+0	0.00000E+0	1.89672E+1	1.59894E+1	1.89680E+1	1.59908E+1
108	17/03/2023	16:00:15.884	0.00000E+0	0.00000E+0	-1.14624E+2	8.52440E-1	0.00000E+0	0.00000E+0	1.92926E+1	1.56374E+1	1.92935E+1	1.56369E+1
109	17/03/2023	16:00:17.361	0.00000E+0	0.00000E+0	2.43062E+2	1.05624E+0	0.00000E+0	0.00000E+0	2.46618E+1	1.03435E+1	2.46606E+1	1.03418E+1
110	17/03/2023	16:00:18.877	0.00000E+0	0.00000E+0	-2.80040E+2	-4.13063E+0	0.00000E+0	0.00000E+0	1.71939E+1	1.75091E+1	1.71922E+1	1.75092E+1
111	17/03/2023	16:00:20.374	0.00000E+0	0.00000E+0	1.45537E+2	3.57133E+0	0.00000E+0	0.00000E+0	2.31046E+1	1.19083E+1	2.31020E+1	1.19069E+1
112	17/03/2023	16:00:21.845	0.00000E+0	0.00000E+0	1.57686E+2	1.13425E+0	0.00000E+0	0.00000E+0	2.36070E+1	1.13576E+1	2.36061E+1	1.13593E+1
113	17/03/2023	16:00:23.377	0.00000E+0	0.00000E+0	-1.67588E+2	-1.57738E+0	0.00000E+0	0.00000E+0	1.88223E+1	1.60510E+1	1.88240E+1	1.60523E+1
114	17/03/2023	16:00:24.877	0.00000E+0	0.00000E+0	1.41544E+2	2.57535E+0	0.00000E+0	0.00000E+0	2.32121E+1	1.17502E+1	2.32100E+1	1.17506E+1
115	17/03/2023	16:00:26.458	0.00000E+0	0.00000E+0	-1.24208E+2	-2.11202E+0	0.00000E+0	0.00000E+0	1.95528E+1	1.53530E+1	1.95539E+1	1.53524E+1
116	17/03/2023	16:00:28.026	0.00000E+0	0.00000E+0	9.27105E+1	-5.32469E-1	0.00000E+0	0.00000E+0	2.21947E+1	1.27261E+1	2.21934E+1	1.27276E+1
117	17/03/2023	16:00:29.543	0.00000E+0	0.00000E+0	6.90723E+1	5.86267E-1	0.00000E+0	0.00000E+0	2.26868E+1	1.22919E+1	2.26863E+1	1.22917E+1
118	17/03/2023	16:00:31.039	0.00000E+0	0.00000E+0	-1.97799E+2	-7.40134E-1	0.00000E+0	0.00000E+0	1.84191E+1	1.65244E+1	1.84216E+1	1.65224E+1
119	17/03/2023	16:00:32.558	0.00000E+0	0.00000E+0	2.19052E+2	-1.89507E-2	0.00000E+0	0.00000E+0	2.42718E+1	1.06938E+1	2.42734E+1	1.06954E+1
120	17/03/2023	16:00:34.053	0.00000E+0	0.00000E+0	-1.03637E+2	-2.41591E-1	0.00000E+0	0.00000E+0	1.99206E+1	1.49739E+1	1.99194E+1	1.49742E+1
121	17/03/2023	16:00:35.565	0.00000E+0	0.00000E+0	-1.43995E+2	-2.00930E+0	0.00000E+0	0.00000E+0	1.91693E+1	1.57553E+1	1.91708E+1	1.57538E+1
122	17/03/2023	16:00:37.056	0.00000E+0	0.00000E+0	1.87399E+2	-8.99586E-1	0.00000E+0	0.00000E+0	2.39324E+1	1.10583E+1	2.39325E+1	1.10618E+1
123	17/03/2023	16:00:38.563	0.00000E+0	0.00000E+0	-9.74661E+1	-5.09540E-1	0.00000E+0	0.00000E+0	2.00646E+1	1.49031E+1	2.00641E+1	1.49049E+1
124	17/03/2023	16:00:40.057	0.00000E+0	0.00000E+0	-1.75519E+2	1.77850E+0	0.00000E+0	0.00000E+0	1.86327E+1	1.62662E+1	1.86342E+1	1.62651E+1
125	17/03/2023	16:00:41.579	0.00000E+0	0.00000E+0	2.13224E+2	3.74303E+0	0.00000E+0	0.00000E+0	2.42794E+1	1.07074E+1	2.42804E+1	1.07074E+1
126	17/03/2023	16:00:43.075	0.00000E+0	0.00000E+0	-9.64746E+1	2.91315E-1	0.00000E+0	0.00000E+0	2.00516E+1	1.49115E+1	2.00516E+1	1.49088E+1
127	17/03/2023	16:00:44.586	0.00000E+0	0.00000E+0	-1.46462E+2	-4.92483E+0	0.00000E+0	0.00000E+0	1.90182E+1	1.59309E+1	1.90185E+1	1.59316E+1
128	17/03/2023	16:00:46.108	0.00000E+0	0.00000E+0	2.16873E+2	-8.82814E-1	0.00000E+0	0.00000E+0	2.43071E+1	1.06519E+1	2.43060E+1	1.06518E+1
129	17/03/2023	16:00:47.589	0.00000E+0	0.00000E+0	-1.82191E+2	2.09488E+0	0.00000E+0	0.00000E+0	1.86521E+1	1.62743E+1	1.86529E+1	1.62744E+1
130	17/03/2023	16:00:49.085	0.00000E+0	0.00000E+0	6.06148E+1	5.14944E-1	0.00000E+0	0.00000E+0	2.17776E+1	1.32455E+1	2.17792E+1	1.32451E+1
131	17/03/2023	16:00:50.582	0.00000E+0	0.00000E+0	1.33875E+2	-5.10816E-1	0.00000E+0	0.00000E+0	2.33432E+1	1.16763E+1	2.33416E+1	1.16761E+1
132	17/03/2023	16:00:52.099	0.00000E+0	0.00000E+0	-1.90976E+2	-1.92036E+0	0.00000E+0	0.00000E+0	1.84987E+1	1.63720E+1	1.84966E+1	1.63726E+1
133	17/03/2023	16:00:53.614	0.00000E+0	0.00000E+0	1.88771E+2	1.23570E+0	0.00000E+0	0.00000E+0	2.37743E+1	1.12015E+1	2.37770E+1	1.11998E+1
134	17/03/2023	16:00:55.117	0.00000E+0	0.00000E+0	8.23264E+1	1.88695E+0	0.00000E+0	0.00000E+0	2.27212E+1	1.22692E+1	2.27218E+1	1.22692E+1
135	17/03/2023	16:00:56.701	0.00000E+0	0.00000E+0	-2.29791E+2	-9.69850E-1	0.00000E+0	0.00000E+0	1.79915E+1	1.69627E+1	1.79918E+1	1.69622E+1
136	17/03/2023	16:00:58.211	0.00000E+0	0.00000E+0	2.02579E+2	3.87472E+0	0.00000E+0	0.00000E+0	2.40400E+1	1.09426E+1	2.40425E+1	1.09428E+1
137	17/03/2023	16:00:59.710	0.00000E+0	0.00000E+0	-5.61560E+1	5.37252E-1	0.00000E+0	0.00000E+0	2.07797E+1	1.41502E+1	2.07822E+1	1.41532E+1
138	17/03/2023	16:01:01.246	0.00000E+0	0.00000E+0	-1.79668E+2	-1.99558E+0	0.00000E+0	0.00000E+0	1.85704E+1	1.63184E+1	1.85723E+1	1.63178E+1
139	17/03/2023	16:01:02.806	0.00000E+0	0.00000E+0	2.14070E+2	7.44081E-2	0.00000E+0	0.00000E+0	2.42589E+1	1.06585E+1	2.42604E+1	1.06595E+1
140	17/03/2023	16:01:04.313	0.00000E+0	0.00000E+0	-1.79052E+2	-1.14478E+0	0.00000E+0	0.00000E+0	1.88460E+1	1.60708E+1	1.88466E+1	1.60730E+1
141	17/03/2023	16:01:05.892	0.00000E+0	0.00000E+0	1.00430E+2	2.83461E+0	0.00000E+0	0.00000E+0	2.25041E+1	1.24918E+1	2.25058E+1	1.24910E+1
142	17/03/2023	16:01:07.394	0.00000E+0	0.00000E+0	1.59827E+2	3.96567E-1	0.00000E+0	0.00000E+0	2.36657E+1	1.12772E+1	2.36673E+1	1.12809E+1
143	17/03/2023	16:01:08.901	0.00000E+0	0.00000E+0	-1.96997E+2	-5.66771E-1	0.00000E+0	0.00000E+0	1.82388E+1	1.66609E+1	1.82411E+1	1.66600E+1
144	17/03/2023	16:01:10.479	0.00000E+0	0.00000E+0	1.55703E+2	2.88147E+0	0.00000E+0	0.00000E+0	2.34617E+1	1.14832E+1	2.34607E+1	1.14837E+1
145	17/03/2023	16:01:11.991	0.00000E+0	0.00000E+0	-7.12187E+1	2.25908E-1	0.00000E+0	0.00000E+0	2.04211E+1	1.44808E+1	2.04236E+1	1.44813E+1
146	17/03/2023	16:01:13.563	0.00000E+0	0.00000E+0	5.25422E+1	2.64868E+0	0.00000E+0	0.00000E+0	2.16157E+1	1.33431E+1	2.16154E+1	1.33434E+1
147	17/03/2023	16:01:15.070	0.00000E+0	0.00000E+0	1.43105E+2	6.57945E-1	0.00000E+0	0.00000E+0	2.34559E+1	1.15430E+1	2.34562E+1	1.15421E+1
148	17/03/2023	16:01:16.550	0.00000E+0	0.00000E+0	-2.06659E+2	-1.35413E+0	0.00000E+0	0.00000E+0	1.82959E+1	1.65027E+1	1.82951E+1	1.65012E+1
149	17/03/2023	16:01:18.041	0.00000E+0	0.00000E+0	1.67528E+2	7.02863E-1	0.00000E+0	0.00000E+0	2.35396E+1	1.14361E+1	2.35384E+1	1.14347E+1
150	17/03/2023	16:01:19.516	0.00000E+0	0.00000E+0	-5.65734E+1	2.54604E-1	0.00000E+0	0.00000E+0	2.07587E+1	1.41777E+1	2.07605E+1	1.41777E+1
151	17/03/2023	16:01:21.006	0.00000E+0	0.00000E+0	-1.75078E+2	-3.92473E+0	0.00000E+0	0.00000E+0	1.86555E+1	1.63299E+1	1.86556E+1	1.63286E+1
152	17/03/2023	16:01:22.494	0.00000E+0	0.00000E+0	1.98297E+2	1.85369E-1	0.00000E+0	0.00000E+0	2.39991E+1	1.09732E+1	2.39979E+1	1.09729E+1
153	17/03/2023	16:01:24.017	0.00000E+0	0.00000E+0	-1.76039E+2	-1.67465E+0	0.00000E+0	0.00000E+0	1.89003E+1	1.59728E+1	1.88977E+1	1.59747E+1
154	17/03/2023	16:01:25.576	0.00000E+0	0.00000E+0	4.26125E+1	1.78880E+0	0.00000E+0	0.00000E+0	2.15905E+1	1.33883E+1	2.15896E+1	1.33886E+1
155	17/03/2023	16:01:27.103	0.00000E+0	0.00000E+0	1.29570E+2	2.57789E+0	0.00000E+0	0.00000E+0	2.33477E+1	1.16603E+1	2.33431E+1	1.16607E+1
156	17/03/2023	16:01:28.589	0.00000E+0	0.00000E+0	-2.13533E+2	-4.24778E+0	0.00000E+0	0.00000E+0	1.81920E+1	1.67875E+1	1.81945E+1	1.67903E+1
157	17/03/2023	16:01:30.115	0.00000E+0	0.00000E+0	2.00361E+2	2.91120E+0	0.00000E+0	0.00000E+0	2.40000E+1	1.10085E+1	2.40018E+1	1.10077E+1
158	17/03/2023	16:01:31.603	0.00000E+0	0.00000E+0	-1.68938E+2	-1.40883E-1	0.00000E+0	0.00000E+0	1.90410E+1	1.59167E+1	1.90408E+1	1.59193E+1
159	17/03/2023	16:01:33.131	0.00000E+0	0.00000E+0	1.11167E+2	1.85213E+0	0.00000E+0	0.00000E+0	2.26199E+1	1.23485E+1	2.26197E+1	1.23462E+1
160	17/03/2023	16:01:34.709	0.00000E+0	0.00000E+0	-1.10839E+2	-2.34143E+0	0.00000E+0	0.00000E+0	1.99278E+1	1.49399E+1	1.99280E+1	1.49366E+1
161	17/03/2023	16:01:36.216	0.00000E+0	0.00000E+0	-1.22351E+2	-1.64854E+0	0.00000E+0	0.00000E+0	1.93040E+1	1.56390E+1	1.93015E+1	1.56385E+1
162	17/03/2023	16:01:37.723	0.00000E+0	0.00000E+0	1.96342E+2	8.17038E-1	0.00000E+0	0.00000E+0	2.40220E+1	1.09418E+1	2.40214E+1	1.09433E+1
163	17/03/2023	16:01:39.299	0.00000E+0	0.00000E+0	-2.02764E+2	1.85957E-1	0.00000E+0	0.00000E+0	1.83998E+1	1.65386E+1	1.84019E+1	1.65396E+1
164	17/03/2023	16:01:40.811	0.00000E+0	0.00000E+0	1.22964E+2	-1.46037E+0	0.00000E+0	0.00000E+0	2.26189E+1	1.23494E+1	2.26201E+1	1.23493E+1
165	17/03/2023	16:01:42.316	0.00000E+0	0.00000E+0	1.86733E+2	-5.59242E-1	0.00000E+0	0.00000E+0	2.40166E+1	1.08995E+1	2.40175E+1	1.09005E+1
166	17/03/2023	16:01:43.982	0.00000E+0	0.00000E+0	-2.05633E+2	-7.12892E-1	0.00000E+0	0.00000E+0	1.83519E+1	1.65606E+1	1.83512E+1	1.65596E+1
167	17/03/2023	16:01:45.488	0.00000E+0	0.00000E+0	2.00500E+2	1.52516E+0	0.00000E+0	0.00000E+0	2.40136E+1	1.09563E+1	2.40173E+1	1.09568E+1
168	17/03/2023	16:01:46.988	0.00000E+0	0.00000E+0	-9.21087E+1	-2.07074E-1	0.00000E+0	0.00000E+0	2.02241E+1	1.46920E+1	2.02258E+1	1.46948E+1
169	17/03/2023	16:01:48.499	0.00000E+0	0.00000E+0	-1.79976E+2	-1.31128E+0	0.00000E+0	0.00000E+0	1.85709E+1	1.63552E+1	1.85704E+1	1.63547E+1
170	17/03/2023	16:01:50.004	0.00000E+0	0.00000E+0	2.31112E+2	2.30507E+0	0.00000E+0	0.00000E+0	2.45275E+1	1.04687E+1	2.45260E+1	1.04705E+1
171	17/03/2023	16:01:51.531	0.00000E+0	0.00000E+0	-1.86920E+2	-3.45135E+0	0.00000E+0	0.00000E+0	1.86939E+1	1.61951E+1	1.86933E+1	1.61966E+1
172	17/03/2023	16:01:53.088	0.00000E+0	0.00000E+0	-7.63618E+1	7.10590E-3	0.00000E+0	0.00000E+0	1.98661E+1	1.50285E+1	1.98639E+1	1.50290E+1
173	17/03/2023	16:01:54.576	0.00000E+0	0.00000E+0	2.17756E+2	1.25352E+0	0.00000E+0	0.00000E+0	2.43768E+1	1.06499E+1	2.43786E+1	1.06518E+1
174	17/03/2023	16:01:56.070	0.00000E+0	0.00000E+0	-1.99256E+2	-4.36581E+0	0.00000E+0	0.00000E+0	1.84219E+1	1.64332E+1	1.84228E+1	1.64345E+1
175	17/03/2023	16:01:57.598	0.00000E+0	0.00000E+0	-1.50029E+1	-5.75677E-1	0.00000E+0	0.00000E+0	2.07397E+1	1.41987E+1	2.07409E+1	1.41985E+1
176	17/03/2023	16:01:59.085	0.00000E+0	0.00000E+0	1.80732E+2	-2.16215E-3	0.00000E+0	0.00000E+0	2.37935E+1	1.11689E+1	2.37934E+1	1.11685E+1
177	17/03/2023	16:02:00.603	0.00000E+0	0.00000E+0	-1.84859E+2	-5.51507E-1	0.00000E+0	0.00000E+0	1.86783E+1	1.63286E+1	1.86781E+1	1.63269E+1
178	17/03/2023	16:02:02.100	0.00000E+0	0.00000E+0	-7.13693E+1	-2.15663E+0	0.00000E+0	0.00000E+0	1.99689E+1	1.50186E+1	1.99703E+1	1.50181E+1
179	17/03/2023	16:02:03.693	0.00000E+0	0.00000E+0	1.99757E+2	3.40028E-1	0.00000E+0	0.00000E+0	2.41146E+1	1.08759E+1	2.41166E+1	1.08732E+1
180	17/03/2023	16:02:05.201	0.00000E+0	0.00000E+0	-1.91323E+2	-8.52169E-2	0.00000E+0	0.00000E+0	1.85080E+1	1.63102E+1	1.85073E+1	1.63094E+1
181	17/03/2023	16:02:06.686	0.00000E+0	0.00000E+0	5.99722E+1	7.47871E-1	0.00000E+0	0.00000E+0	2.18776E+1	1.30657E+1	2.18782E+1	1.30664E+1
182	17/03/2023	16:02:08.266	0.00000E+0	0.00000E+0	1.77808E+2	9.46591E-1	0.00000E+0	0.00000E+0	2.38503E+1	1.11280E+1	2.38497E+1	1.11259E+1
183	17/03/2023	16:02:09.852	0.00000E+0	0.00000E+0	-1.81021E+2	-2.78311E+0	0.00000E+0	0.00000E+0	1.86217E+1	1.63218E+1	1.86188E+1	1.63223E+1
184	17/03/2023	16:02:11.362	0.00000E+0	0.00000E+0	1.93352E+2	1.53958E+0	0.00000E+0	0.00000E+0	2.39395E+1	1.10160E+1	2.39399E+1	1.10164E+1
185	17/03/2023	16:02:12.889	0.00000E+0	0.00000E+0	-8.41247E+1	1.58160E+0	0.00000E+0	0.00000E+0	2.04223E+1	1.44935E+1	2.04209E+1	1.44949E+1
186	17/03/2023	16:02:14.390	0.00000E+0	0.00000E+0	-1.26504E+2	2.23349E+0	0.00000E+0	0.00000E+0	1.93095E+1	1.56283E+1	1.93098E+1	1.56276E+1
187	17/03/2023	16:02:15.894	0.00000E+0	0.00000E+0	1.95583E+2	2.59938E+0	0.00000E+0	0.00000E+0	2.41028E+1	1.09203E+1	2.41017E+1	1.09208E+1
188	17/03/2023	16:02:17.485	0.00000E+0	0.00000E+0	-2.16811E+2	-3.89149E+0	0.00000E+0	0.00000E+0	1.81103E+1	1.67414E+1	1.81093E+1	1.67412E+1
189	17/03/2023	16:02:18.991	0.00000E+0	0.00000E+0	1.73017E+2	2.30985E-2	0.00000E+0	0.00000E+0	2.35428E+1	1.14160E+1	2.35404E+1	1.14156E+1
190	17/03/2023	16:02:20.493	0.00000E+0	0.00000E+0	8.86191E+0	1.26889E+0	0.00000E+0	0.00000E+0	2.17367E+1	1.31752E+1	2.17357E+1	1.31759E+1
191	17/03/2023	16:02:22.077	0.00000E+0	0.00000E+0	-1.69084E+2	-5.93992E+0	0.00000E+0	0.00000E+0	1.87897E+1	1.60874E+1	1.87883E+1	1.60893E+1
192	17/03/2023	16:02:23.583	0.00000E+0	0.00000E+0	1.79831E+2	1.83889E+0	0.00000E+0	0.00000E+0	2.37386E+1	1.11910E+1	2.37399E+1	1.11912E+1
193	17/03/2023	16:02:25.084	0.00000E+0	0.00000E+0	-8.79760E+0	-1.68188E+0	0.00000E+0	0.00000E+0	2.15663E+1	1.34211E+1	2.15700E+1	1.34193E+1
194	17/03/2023	16:02:26.591	0.00000E+0	0.00000E+0	-2.02291E+2	-2.01197E+0	0.00000E+0	0.00000E+0	1.83086E+1	1.65913E+1	1.83102E+1	1.65914E+1
195	17/03/2023	16:02:28.174	0.00000E+0	0.00000E+0	2.06569E+2	1.35798E+0	0.00000E+0	0.00000E+0	2.42057E+1	1.08238E+1	2.42044E+1	1.08227E+1
196	17/03/2023	16:02:29.715	0.00000E+0	0.00000E+0	-1.51165E+2	-2.06758E+0	0.00000E+0	0.00000E+0	1.92760E+1	1.56464E+1	1.92769E+1	1.56484E+1
197	17/03/2023	16:02:31.265	0.00000E+0	0.00000E+0	-1.51107E+2	-1.54793E+0	0.00000E+0	0.00000E+0	1.90009E+1	1.59528E+1	1.90002E+1	1.59532E+1
198	17/03/2023	16:02:32.782	0.00000E+0	0.00000E+0	2.21890E+2	-1.78677E+0	0.00000E+0	0.00000E+0	2.44511E+1	1.05495E+1	2.44499E+1	1.05492E+1
199	17/03/2023	16:02:34.278	0.00000E+0	0.00000E+0	-2.12414E+2	-2.67522E+0	0.00000E+0	0.00000E+0	1.82362E+1	1.66670E+1	1.82378E+1	1.66685E+1
200	17/03/2023	16:02:35.771	0.00000E+0	0.00000E+0	4.31497E+1	-5.09641E-1	0.00000E+0	0.00000E+0	2.15967E+1	1.33570E+1	2.15980E+1	1.33565E+1
201	17/03/2023	16:02:37.292	0.00000E+0	0.00000E+0	2.01388E+2	6.40128E-1	0.00000E+0	0.00000E+0	2.41700E+1	1.07914E+1	2.41706E+1	1.07903E+1
202	17/03/2023	16:02:38.825	0.00000E+0	0.00000E+0	-2.24684E+2	-3.94555E-1	0.00000E+0	0.00000E+0	1.80296E+1	1.68645E+1	1.80284E+1	1.68631E+1
203	17/03/2023	16:02:40.345	0.00000E+0	0.00000E+0	2.03801E+2	3.65312E-1	0.00000E+0	0.00000E+0	2.40425E+1	1.09107E+1	2.40419E+1	1.09114E+1
204	17/03/2023	16:02:41.850	0.00000E+0	0.00000E+0	-1.09240E+2	-2.07680E+0	0.00000E+0	0.00000E+0	1.99819E+1	1.48939E+1	1.99832E+1	1.48934E+1
205	17/03/2023	16:02:43.378	0.00000E+0	0.00000E+0	-1.58740E+2	-1.80316E+0	0.00000E+0	0.00000E+0	1.88994E+1	1.59005E+1	1.88998E+1	1.59007E+1
206	17/03/2023	16:02:44.860	0.00000E+0	0.00000E+0	2.22837E+2	3.43368E+0	0.00000E+0	0.00000E+0	2.44139E+1	1.05660E+1	2.44136E+1	1.05659E+1
207	17/03/2023	16:02:46.454	0.00000E+0	0.00000E+0	-2.04900E+2	-1.22429E+0	0.00000E+0	0.00000E+0	1.84694E+1	1.64643E+1	1.84724E+1	1.64655E+1
208	17/03/2023	16:02:47.950	0.00000E+0	0.00000E+0	7.52483E+0	1.60487E+0	0.00000E+0	0.00000E+0	2.10180E+1	1.39050E+1	2.10194E+1	1.39042E+1
209	17/03/2023	16:02:49.451	0.00000E+0	0.00000E+0	2.13403E+2	3.36716E+0	0.00000E+0	0.00000E+0	2.43050E+1	1.06970E+1	2.43047E+1	1.06981E+1
210	17/03/2023	16:02:50.972	0.00000E+0	0.00000E+0	-2.23842E+2	-1.43918E+0	0.00000E+0	0.00000E+0	1.80456E+1	1.69281E+1	1.80444E+1	1.69267E+1
211	17/03/2023	16:02:52.478	0.00000E+0	0.00000E+0	1.54589E+2	1.78097E+0	0.00000E+0	0.00000E+0	2.34018E+1	1.16056E+1	2.34036E+1	1.16034E+1
212	17/03/2023	16:02:53.991	0.00000E+0	0.00000E+0	1.80832E+2	4.31993E-1	0.00000E+0	0.00000E+0	2.40293E+1	1.10335E+1	2.40320E+1	1.10328E+1
213	17/03/2023	16:02:55.493	0.00000E+0	0.00000E+0	-1.86383E+2	-1.98452E+0	0.00000E+0	0.00000E+0	1.85639E+1	1.63149E+1	1.85610E+1	1.63135E+1
214	17/03/2023	16:02:57.076	0.00000E+0	0.00000E+0	1.10623E+2	3.09799E+0	0.00000E+0	0.00000E+0	2.27560E+1	1.22048E+1	2.27558E+1	1.22049E+1
215	17/03/2023	16:02:58.696	0.00000E+0	0.00000E+0	-2.96337E+1	1.27692E-1	0.00000E+0	0.00000E+0	2.09896E+1	1.39209E+1	2.09907E+1	1.39202E+1
216	17/03/2023	16:03:00.202	0.00000E+0	0.00000E+0	-1.44009E+2	-3.12804E+0	0.00000E+0	0.00000E+0	1.91860E+1	1.57277E+1	1.91874E+1	1.57273E+1
217	17/03/2023	16:03:01.784	0.00000E+0	0.00000E+0	1.87825E+2	2.48259E+0	0.00000E+0	0.00000E+0	2.38739E+1	1.10889E+1	2.38753E+1	1.10897E+1
218	17/03/2023	16:03:03.294	0.00000E+0	0.00000E+0	-1.02249E+2	-1.52862E+0	0.00000E+0	0.00000E+0	2.01251E+1	1.48353E+1	2.01215E+1	1.48382E+1
219	17/03/2023	16:03:04.887	0.00000E+0	0.00000E+0	-6.35436E+1	-2.65816E+0	0.00000E+0	0.00000E+0	2.00336E+1	1.48354E+1	2.00333E+1	1.48344E+1
220	17/03/2023	16:03:06.466	0.00000E+0	0.00000E+0	1.80100E+2	7.11294E-1	0.00000E+0	0.00000E+0	2.38324E+1	1.11772E+1	2.38333E+1	1.11769E+1
221	17/03/2023	16:03:07.971	0.00000E+0	0.00000E+0	-1.83922E+2	-4.71101E-1	0.00000E+0	0.00000E+0	1.86512E+1	1.62863E+1	1.86495E+1	1.62876E+1
222	17/03/2023	16:03:09.464	0.00000E+0	0.00000E+0	1.02016E+2	1.37794E+0	0.00000E+0	0.00000E+0	2.25543E+1	1.24028E+1	2.25552E+1	1.24029E+1
223	17/03/2023	16:03:10.976	0.00000E+0	0.00000E+0	2.85718E+1	-2.51405E-1	0.00000E+0	0.00000E+0	2.20003E+1	1.29779E+1	2.20010E+1	1.29791E+1
224	17/03/2023	16:03:12.487	0.00000E+0	0.00000E+0	-2.02435E+2	-2.40666E-1	0.00000E+0	0.00000E+0	1.82647E+1	1.66076E+1	1.82647E+1	1.66083E+1
225	17/03/2023	16:03:13.983	0.00000E+0	0.00000E+0	2.08789E+2	1.56862E+0	0.00000E+0	0.00000E+0	2.42367E+1	1.07952E+1	2.42365E+1	1.07961E+1
226	17/03/2023	16:03:15.482	0.00000E+0	0.00000E+0	-1.72078E+2	-3.35948E-1	0.00000E+0	0.00000E+0	1.88083E+1	1.60570E+1	1.88077E+1	1.60567E+1
227	17/03/2023	16:03:17.115	0.00000E+0	0.00000E+0	7.64439E+1	1.94872E+0	0.00000E+0	0.00000E+0	2.21776E+1	1.27636E+1	2.21754E+1	1.27649E+1
228	17/03/2023	16:03:18.593	0.00000E+0	0.00000E+0	1.06135E+2	-1.94464E-1	0.00000E+0	0.00000E+0	2.29687E+1	1.20088E+1	2.29688E+1	1.20082E+1
229	17/03/2023	16:03:20.193	0.00000E+0	0.00000E+0	-1.56701E+2	-1.40920E+0	0.00000E+0	0.00000E+0	1.88707E+1	1.60795E+1	1.88703E+1	1.60758E+1
230	17/03/2023	16:03:21.697	0.00000E+0	0.00000E+0	2.50521E+2	6.19750E-1	0.00000E+0	0.00000E+0	2.48895E+1	1.01533E+1	2.48898E+1	1.01545E+1
231	17/03/2023	16:03:23.186	0.00000E+0	0.00000E+0	-2.17780E+2	-9.34694E-1	0.00000E+0	0.00000E+0	1.81682E+1	1.66823E+1	1.81694E+1	1.66821E+1
232	17/03/2023	16:03:24.689	0.00000E+0	0.00000E+0	1.13682E+2	2.25466E-1	0.00000E+0	0.00000E+0	2.25909E+1	1.23779E+1	2.25889E+1	1.23760E+1
233	17/03/2023	16:03:26.210	0.00000E+0	0.00000E+0	1.42439E+2	1.24670E+0	0.00000E+0	0.00000E+0	2.33248E+1	1.16283E+1	2.33246E+1	1.16303E+1
234	17/03/2023	16:03:27.683	0.00000E+0	0.00000E+0	-1.92099E+2	-1.24123E+0	0.00000E+0	0.00000E+0	1.85583E+1	1.63870E+1	1.85585E+1	1.63875E+1
235	17/03/2023	16:03:29.209	0.00000E+0	0.00000E+0	1.79582E+2	3.80305E+0	0.00000E+0	0.00000E+0	2.35907E+1	1.14060E+1	2.35914E+1	1.14045E+1
236	17/03/2023	16:03:30.696	0.00000E+0	0.00000E+0	-3.40119E+1	-9.17712E-1	0.00000E+0	0.00000E+0	2.10284E+1	1.38497E+1	2.10285E+1	1.38495E+1
237	17/03/2023	16:03:32.208	0.00000E+0	0.00000E+0	-9.58851E+1	2.82830E+0	0.00000E+0	0.00000E+0	1.95120E+1	1.53724E+1	1.95130E+1	1.53733E+1
238	17/03/2023	16:03:33.722	0.00000E+0	0.00000E+0	2.39791E+2	1.97397E+0	0.00000E+0	0.00000E+0	2.46649E+1	1.02998E+1	2.46668E+1	1.03012E+1
239	17/03/2023	16:03:35.317	0.00000E+0	0.00000E+0	-1.61421E+2	-2.25554E-1	0.00000E+0	0.00000E+0	1.89725E+1	1.60143E+1	1.89722E+1	1.60149E+1
240	17/03/2023	16:03:36.823	0.00000E+0	0.00000E+0	1.83132E+2	1.00412E+0	0.00000E+0	0.00000E+0	2.38638E+1	1.11107E+1	2.38658E+1	1.11120E+1
241	17/03/2023	16:03:38.324	0.00000E+0	0.00000E+0	-1.68925E+2	-1.62399E+0	0.00000E+0	0.00000E+0	1.88324E+1	1.60793E+1	1.88312E+1	1.60784E+1
242	17/03/2023	16:03:39.832	0.00000E+0	0.00000E+0	1.64476E+2	1.95220E+0	0.00000E+0	0.00000E+0	2.35394E+1	1.14368E+1	2.35403E+1	1.14358E+1
