#Iteration	Date	Time	RTPhase	NFringe	AccelAxis	AccelMean	AccelTemp
1	10/05/2023	13:35:01.104	3.47408299E+0	-8.97000000E+2	2.00000000E+0	-9.70224929E+0	7.15857500E+6
2	10/05/2023	13:35:02.591	5.02148611E+0	-8.98000000E+2	2.00000000E+0	-9.70224929E+0	7.15857500E+6
3	10/05/2023	13:35:04.113	1.99034007E+0	-8.97000000E+2	2.00000000E+0	-9.70224929E+0	7.15857500E+6
4	10/05/2023	13:35:05.575	3.45184027E+0	-8.92000000E+2	2.00000000E+0	-9.70224929E+0	7.15857500E+6
5	10/05/2023	13:35:07.016	1.60684488E-1	-8.78000000E+2	2.00000000E+0	-9.70224929E+0	7.15857500E+6
6	10/05/2023	13:35:08.588	5.66000561E+0	-8.66000000E+2	2.00000000E+0	-9.70224929E+0	7.15857500E+6
7	10/05/2023	13:35:10.075	2.80450038E+0	-8.47000000E+2	2.00000000E+0	-9.70224929E+0	7.15857500E+6
8	10/05/2023	13:35:11.564	2.40489838E+0	-8.15000000E+2	2.00000000E+0	-9.70224929E+0	7.15857500E+6
9	10/05/2023	13:35:13.026	4.97661717E+0	-7.99000000E+2	2.00000000E+0	-9.70224929E+0	7.15857500E+6
10	10/05/2023	13:35:14.491	6.39286493E-1	-7.80000000E+2	2.00000000E+0	-9.70224929E+0	7.15857500E+6
11	10/05/2023	13:35:16.155	1.42468466E+0	-8.09000000E+2	2.00000000E+0	-9.70224929E+0	7.15857500E+6
12	10/05/2023	13:35:17.621	4.16130638E+0	-8.42000000E+2	2.00000000E+0	-9.70224929E+0	7.15857500E+6
13	10/05/2023	13:35:19.223	3.20832082E+0	-8.69000000E+2	2.00000000E+0	-9.70224929E+0	7.15857500E+6
14	10/05/2023	13:35:20.729	5.90966099E-1	-8.82000000E+2	2.00000000E+0	-9.70224929E+0	7.15857500E+6
15	10/05/2023	13:35:22.246	1.68277692E+0	-8.98000000E+2	2.00000000E+0	-9.70224929E+0	7.15857500E+6
16	10/05/2023	13:35:23.774	3.98873354E+0	-9.05000000E+2	2.00000000E+0	-9.70224929E+0	7.15857500E+6
17	10/05/2023	13:35:25.243	5.66997649E+0	-9.07000000E+2	2.00000000E+0	-9.70224929E+0	7.15857500E+6
18	10/05/2023	13:35:26.707	2.13606825E-1	-9.04000000E+2	2.00000000E+0	-9.70224929E+0	7.15857500E+6
19	10/05/2023	13:35:28.333	4.60385984E+0	-8.95000000E+2	2.00000000E+0	-9.70224929E+0	7.15857500E+6
20	10/05/2023	13:35:29.825	4.30741805E+0	-8.90000000E+2	2.00000000E+0	-9.70224929E+0	7.15857500E+6
21	10/05/2023	13:35:31.358	5.24314633E+0	-8.72000000E+2	2.00000000E+0	-9.70224929E+0	7.15857500E+6
22	10/05/2023	13:35:32.821	5.00883077E+0	-8.59000000E+2	2.00000000E+0	-9.70224929E+0	7.15857500E+6
23	10/05/2023	13:35:34.324	1.03850499E+0	-8.42000000E+2	2.00000000E+0	-9.70224929E+0	7.15857500E+6
24	10/05/2023	13:35:36.029	4.83855890E+0	-8.14000000E+2	2.00000000E+0	-9.70224929E+0	7.15857500E+6
25	10/05/2023	13:35:37.523	4.52179187E+0	-7.87000000E+2	2.00000000E+0	-9.70224929E+0	7.15857500E+6
26	10/05/2023	13:35:38.988	1.11098559E+0	-7.82000000E+2	2.00000000E+0	-9.70224929E+0	7.15857500E+6
27	10/05/2023	13:35:40.441	5.95414643E+0	-8.05000000E+2	2.00000000E+0	-9.70224929E+0	7.15857500E+6
28	10/05/2023	13:35:41.918	4.56819479E+0	-8.30000000E+2	2.00000000E+0	-9.70224929E+0	7.15857500E+6
29	10/05/2023	13:35:43.493	5.20786477E-1	-8.63000000E+2	2.00000000E+0	-9.70224929E+0	7.15857500E+6
30	10/05/2023	13:35:44.983	1.50368467E+0	-8.80000000E+2	2.00000000E+0	-9.70224929E+0	7.15857500E+6
31	10/05/2023	13:35:46.420	2.63767996E+0	-8.95000000E+2	2.00000000E+0	-9.70224929E+0	7.15857500E+6
32	10/05/2023	13:35:48.004	5.37046674E+0	-9.00000000E+2	2.00000000E+0	-9.70224929E+0	7.15857500E+6
33	10/05/2023	13:35:49.501	2.37038381E+0	-9.07000000E+2	2.00000000E+0	-9.70224929E+0	7.15857500E+6
34	10/05/2023	13:35:50.983	1.21567977E+0	-9.07000000E+2	2.00000000E+0	-9.70224929E+0	7.15857500E+6
35	10/05/2023	13:35:52.458	4.69628218E+0	-9.06000000E+2	2.00000000E+0	-9.70224929E+0	7.15857500E+6
36	10/05/2023	13:35:53.923	5.59519492E+0	-9.03000000E+2	2.00000000E+0	-9.70224929E+0	7.15857500E+6
37	10/05/2023	13:35:55.524	1.45267981E+0	-8.98000000E+2	2.00000000E+0	-9.70224929E+0	7.15857500E+6
38	10/05/2023	13:35:57.014	4.50491808E+0	-8.84000000E+2	2.00000000E+0	-9.70224929E+0	7.15857500E+6
39	10/05/2023	13:35:58.486	4.59158799E+0	-8.72000000E+2	2.00000000E+0	-9.70224929E+0	7.15857500E+6
40	10/05/2023	13:36:00.035	1.07301956E+0	-8.37000000E+2	2.00000000E+0	-9.70224929E+0	7.15857500E+6
41	10/05/2023	13:36:01.510	1.79974296E+0	-8.05000000E+2	2.00000000E+0	-9.70224929E+0	7.15857500E+6
42	10/05/2023	13:36:03.112	2.93680622E+0	-7.80000000E+2	2.00000000E+0	-9.70224929E+0	7.15857500E+6
43	10/05/2023	13:36:04.620	4.16168988E+0	-7.98000000E+2	2.00000000E+0	-9.70224929E+0	7.15857500E+6
44	10/05/2023	13:36:06.089	2.75234503E+0	-8.18000000E+2	2.00000000E+0	-9.70224929E+0	7.15857500E+6
45	10/05/2023	13:36:07.662	6.02931149E+0	-8.49000000E+2	2.00000000E+0	-9.70224929E+0	7.15857500E+6
46	10/05/2023	13:36:09.140	2.85358776E+0	-8.77000000E+2	2.00000000E+0	-9.70224929E+0	7.15857500E+6
47	10/05/2023	13:36:10.705	1.87912647E+0	-8.94000000E+2	2.00000000E+0	-9.70224929E+0	7.15857500E+6
48	10/05/2023	13:36:12.166	3.66046166E+0	-9.02000000E+2	2.00000000E+0	-9.70224929E+0	7.15857500E+6
49	10/05/2023	13:36:13.682	3.33334025E+0	-9.07000000E+2	2.00000000E+0	-9.70224929E+0	7.15857500E+6
50	10/05/2023	13:36:15.261	2.82597611E+0	-9.06000000E+2	2.00000000E+0	-9.70224929E+0	7.15857500E+6
51	10/05/2023	13:36:16.731	6.90291355E-1	-9.05000000E+2	2.00000000E+0	-9.70224929E+0	7.15857500E+6
52	10/05/2023	13:36:18.195	3.49862668E+0	-8.96000000E+2	2.00000000E+0	-9.70224929E+0	7.15857500E+6
53	10/05/2023	13:36:19.785	5.80803476E+0	-8.79000000E+2	2.00000000E+0	-9.70224929E+0	7.15857500E+6
54	10/05/2023	13:36:21.312	2.59702947E+0	-8.64000000E+2	2.00000000E+0	-9.70224929E+0	7.15857500E+6
55	10/05/2023	13:36:22.854	7.98437000E-1	-8.49000000E+2	2.00000000E+0	-9.70224929E+0	7.15857500E+6
56	10/05/2023	13:36:24.327	1.94662162E+0	-8.05000000E+2	2.00000000E+0	-9.70224929E+0	7.15857500E+6
57	10/05/2023	13:36:25.811	4.47347147E+0	-8.07000000E+2	2.00000000E+0	-9.70224929E+0	7.15857500E+6
58	10/05/2023	13:36:27.361	1.66245168E+0	-8.42000000E+2	2.00000000E+0	-9.70224929E+0	7.15857500E+6
59	10/05/2023	13:36:28.833	4.34806854E+0	-8.84000000E+2	2.00000000E+0	-9.70224929E+0	7.15857500E+6
60	10/05/2023	13:36:30.353	3.96495684E+0	-8.99000000E+2	2.00000000E+0	-9.70224929E+0	7.15857500E+6
61	10/05/2023	13:36:31.778	3.72565584E+0	-9.06000000E+2	2.00000000E+0	-9.70224929E+0	7.15857500E+6
62	10/05/2023	13:36:33.319	5.26653954E+0	-9.05000000E+2	2.00000000E+0	-9.70224929E+0	7.15857500E+6
63	10/05/2023	13:36:34.778	3.70878205E+0	-9.02000000E+2	2.00000000E+0	-9.70224929E+0	7.15857500E+6
64	10/05/2023	13:36:36.273	1.58268468E+0	-8.97000000E+2	2.00000000E+0	-9.70224929E+0	7.15857500E+6
65	10/05/2023	13:36:37.776	3.63936942E-1	-8.69000000E+2	2.00000000E+0	-9.70224929E+0	7.15857500E+6
66	10/05/2023	13:36:39.379	4.77528219E+0	-8.37000000E+2	2.00000000E+0	-9.70224929E+0	7.15857500E+6
67	10/05/2023	13:36:40.849	3.99947141E+0	-7.95000000E+2	2.00000000E+0	-9.70224929E+0	7.15857500E+6
68	10/05/2023	13:36:42.352	4.13292774E+0	-7.92000000E+2	2.00000000E+0	-9.70224929E+0	7.15857500E+6
69	10/05/2023	13:36:43.825	3.31800044E+0	-8.29000000E+2	2.00000000E+0	-9.70224929E+0	7.15857500E+6
70	10/05/2023	13:36:45.365	7.06398153E-1	-8.64000000E+2	2.00000000E+0	-9.70224929E+0	7.15857500E+6
71	10/05/2023	13:36:46.934	1.79935946E+0	-8.87000000E+2	2.00000000E+0	-9.70224929E+0	7.15857500E+6
72	10/05/2023	13:36:48.428	3.34331113E+0	-9.00000000E+2	2.00000000E+0	-9.70224929E+0	7.15857500E+6
73	10/05/2023	13:36:49.932	1.14013122E+0	-9.05000000E+2	2.00000000E+0	-9.70224929E+0	7.15857500E+6
74	10/05/2023	13:36:51.481	5.96335031E-1	-9.01000000E+2	2.00000000E+0	-9.70224929E+0	7.15857500E+6
75	10/05/2023	13:36:53.008	5.60976774E+0	-9.00000000E+2	2.00000000E+0	-9.70224929E+0	7.15857500E+6
76	10/05/2023	13:36:54.503	2.77727222E+0	-8.79000000E+2	2.00000000E+0	-9.70224929E+0	7.15857500E+6
77	10/05/2023	13:36:55.969	4.97469970E+0	-8.46000000E+2	2.00000000E+0	-9.70224929E+0	7.15857500E+6
78	10/05/2023	13:36:57.463	2.51304403E+0	-8.05000000E+2	2.00000000E+0	-9.70224929E+0	7.15857500E+6
79	10/05/2023	13:36:59.040	8.11859332E-1	-7.76000000E+2	2.00000000E+0	-9.70224929E+0	7.15857500E+6
80	10/05/2023	13:37:00.527	4.62686955E+0	-8.13000000E+2	2.00000000E+0	-9.70224929E+0	7.15857500E+6
81	10/05/2023	13:37:02.003	3.53966067E+0	-8.59000000E+2	2.00000000E+0	-9.70224929E+0	7.15857500E+6
82	10/05/2023	13:37:03.515	3.19259751E+0	-8.84000000E+2	2.00000000E+0	-9.70224929E+0	7.15857500E+6
83	10/05/2023	13:37:04.996	4.94325309E-1	-9.01000000E+2	2.00000000E+0	-9.70224929E+0	7.15857500E+6
84	10/05/2023	13:37:06.543	3.70763156E+0	-9.07000000E+2	2.00000000E+0	-9.70224929E+0	7.15857500E+6
85	10/05/2023	13:37:08.020	5.70602504E+0	-9.08000000E+2	2.00000000E+0	-9.70224929E+0	7.15857500E+6
86	10/05/2023	13:37:09.492	4.17396172E+0	-8.95000000E+2	2.00000000E+0	-9.70224929E+0	7.15857500E+6
87	10/05/2023	13:37:11.080	2.24996632E+0	-8.78000000E+2	2.00000000E+0	-9.70224929E+0	7.15857500E+6
88	10/05/2023	13:37:12.590	4.42246661E+0	-8.48000000E+2	2.00000000E+0	-9.70224929E+0	7.15857500E+6
89	10/05/2023	13:37:14.048	4.64144237E+0	-8.01000000E+2	2.00000000E+0	-9.70224929E+0	7.15857500E+6
90	10/05/2023	13:37:15.564	5.85136972E+0	-7.78000000E+2	2.00000000E+0	-9.70224929E+0	7.15857500E+6
91	10/05/2023	13:37:17.026	5.01726766E+0	-8.20000000E+2	2.00000000E+0	-9.70224929E+0	7.15857500E+6
92	10/05/2023	13:37:18.602	4.52831129E+0	-8.71000000E+2	2.00000000E+0	-9.70224929E+0	7.15857500E+6
93	10/05/2023	13:37:20.036	5.11966088E-1	-8.94000000E+2	2.00000000E+0	-9.70224929E+0	7.15857500E+6
94	10/05/2023	13:37:21.525	2.86394213E+0	-9.05000000E+2	2.00000000E+0	-9.70224929E+0	7.15857500E+6
95	10/05/2023	13:37:23.105	6.08798625E+0	-9.05000000E+2	2.00000000E+0	-9.70224929E+0	7.15857500E+6
96	10/05/2023	13:37:24.656	1.14703413E+0	-9.01000000E+2	2.00000000E+0	-9.70224929E+0	7.15857500E+6
97	10/05/2023	13:37:26.206	4.75342297E+0	-8.84000000E+2	2.00000000E+0	-9.70224929E+0	7.15857500E+6
98	10/05/2023	13:37:27.668	6.10639402E+0	-8.47000000E+2	2.00000000E+0	-9.70224929E+0	7.15857500E+6
99	10/05/2023	13:37:29.148	5.73056873E+0	-7.99000000E+2	2.00000000E+0	-9.70224929E+0	7.15857500E+6
100	10/05/2023	13:37:30.705	1.21414579E+0	-7.90000000E+2	2.00000000E+0	-9.70224929E+0	7.15857500E+6
101	10/05/2023	13:37:32.191	4.10339861E-2	-8.41000000E+2	2.00000000E+0	-9.70224929E+0	7.15857500E+6
102	10/05/2023	13:37:33.713	4.74882102E+0	-8.79000000E+2	2.00000000E+0	-9.70224929E+0	7.15857500E+6
103	10/05/2023	13:37:35.200	5.33825314E+0	-9.01000000E+2	2.00000000E+0	-9.70224929E+0	7.15857500E+6
104	10/05/2023	13:37:36.686	2.98551011E+0	-9.07000000E+2	2.00000000E+0	-9.70224929E+0	7.15857500E+6
105	10/05/2023	13:37:38.275	4.02171413E+0	-9.05000000E+2	2.00000000E+0	-9.70224929E+0	7.15857500E+6
106	10/05/2023	13:37:39.776	3.14734508E+0	-8.86000000E+2	2.00000000E+0	-9.70224929E+0	7.15857500E+6
107	10/05/2023	13:37:41.251	1.92476239E+0	-8.65000000E+2	2.00000000E+0	-9.70224929E+0	7.15857500E+6
108	10/05/2023	13:37:42.824	6.26055909E+0	-8.32000000E+2	2.00000000E+0	-9.70224929E+0	7.15857500E+6
109	10/05/2023	13:37:44.295	4.08997628E+0	-7.83000000E+2	2.00000000E+0	-9.70224929E+0	7.15857500E+6
110	10/05/2023	13:37:45.805	5.20211235E+0	-8.06000000E+2	2.00000000E+0	-9.70224929E+0	7.15857500E+6
111	10/05/2023	13:37:47.268	3.38434511E+0	-8.68000000E+2	2.00000000E+0	-9.70224929E+0	7.15857500E+6
112	10/05/2023	13:37:48.727	4.10876754E+0	-9.01000000E+2	2.00000000E+0	-9.70224929E+0	7.15857500E+6
113	10/05/2023	13:37:50.367	5.49740365E+0	-9.07000000E+2	2.00000000E+0	-9.70224929E+0	7.15857500E+6
114	10/05/2023	13:37:51.843	4.03935491E+0	-9.04000000E+2	2.00000000E+0	-9.70224929E+0	7.15857500E+6
115	10/05/2023	13:37:53.339	2.63767996E+0	-9.10000000E+2	2.00000000E+0	-9.70224929E+0	7.15857500E+6
116	10/05/2023	13:37:54.803	5.42070461E+0	-9.00000000E+2	2.00000000E+0	-9.70224929E+0	7.15857500E+6
117	10/05/2023	13:37:56.323	1.21491278E+0	-8.84000000E+2	2.00000000E+0	-9.70224929E+0	7.15857500E+6
118	10/05/2023	13:37:57.945	3.09940818E+0	-8.39000000E+2	2.00000000E+0	-9.70224929E+0	7.15857500E+6
119	10/05/2023	13:37:59.393	9.71009839E-1	-8.29000000E+2	2.00000000E+0	-9.70224929E+0	7.15857500E+6
120	10/05/2023	13:38:00.832	2.43135955E+0	-8.68000000E+2	2.00000000E+0	-9.70224929E+0	7.15857500E+6
121	10/05/2023	13:38:02.404	4.37299573E+0	-8.94000000E+2	2.00000000E+0	-9.70224929E+0	7.15857500E+6
122	10/05/2023	13:38:03.940	3.82344711E+0	-9.05000000E+2	2.00000000E+0	-9.70224929E+0	7.15857500E+6
123	10/05/2023	13:38:05.544	8.56344775E-1	-9.07000000E+2	2.00000000E+0	-9.70224929E+0	7.15857500E+6
124	10/05/2023	13:38:07.034	4.03206850E+0	-9.03000000E+2	2.00000000E+0	-9.70224929E+0	7.15857500E+6
125	10/05/2023	13:38:08.533	4.89339871E-1	-8.79000000E+2	2.00000000E+0	-9.70224929E+0	7.15857500E+6
126	10/05/2023	13:38:10.078	9.98237998E-1	-8.48000000E+2	2.00000000E+0	-9.70224929E+0	7.15857500E+6
127	10/05/2023	13:38:11.535	2.68715085E+0	-8.09000000E+2	2.00000000E+0	-9.70224929E+0	7.15857500E+6
128	10/05/2023	13:38:13.002	5.85597166E+0	-7.78000000E+2	2.00000000E+0	-9.70224929E+0	7.15857500E+6
129	10/05/2023	13:38:14.608	6.27244744E+0	-8.13000000E+2	2.00000000E+0	-9.70224929E+0	7.15857500E+6
130	10/05/2023	13:38:16.121	1.28892736E+0	-8.48000000E+2	2.00000000E+0	-9.70224929E+0	7.15857500E+6
131	10/05/2023	13:38:17.705	1.92437890E+0	-8.81000000E+2	2.00000000E+0	-9.70224929E+0	7.15857500E+6
132	10/05/2023	13:38:19.190	3.99448597E+0	-8.98000000E+2	2.00000000E+0	-9.70224929E+0	7.15857500E+6
133	10/05/2023	13:38:20.627	7.32475826E-2	-9.07000000E+2	2.00000000E+0	-9.70224929E+0	7.15857500E+6
134	10/05/2023	13:38:22.210	4.54365109E+0	-9.06000000E+2	2.00000000E+0	-9.70224929E+0	7.15857500E+6
135	10/05/2023	13:38:23.729	3.30764607E+0	-8.96000000E+2	2.00000000E+0	-9.70224929E+0	7.15857500E+6
136	10/05/2023	13:38:25.243	5.37123373E+0	-8.70000000E+2	2.00000000E+0	-9.70224929E+0	7.15857500E+6
137	10/05/2023	13:38:26.738	2.64228191E-1	-8.14000000E+2	2.00000000E+0	-9.70224929E+0	7.15857500E+6
138	10/05/2023	13:38:28.142	5.10853952E+0	-7.82000000E+2	2.00000000E+0	-9.70224929E+0	7.15857500E+6
139	10/05/2023	13:38:29.751	6.66514652E-1	-8.22000000E+2	2.00000000E+0	-9.70224929E+0	7.15857500E+6
140	10/05/2023	13:38:31.214	6.23946685E-1	-8.72000000E+2	2.00000000E+0	-9.70224929E+0	7.15857500E+6
141	10/05/2023	13:38:32.718	3.77052478E+0	-9.01000000E+2	2.00000000E+0	-9.70224929E+0	7.15857500E+6
142	10/05/2023	13:38:34.358	8.58645746E-1	-9.06000000E+2	2.00000000E+0	-9.70224929E+0	7.15857500E+6
143	10/05/2023	13:38:35.930	2.13491776E+0	-9.02000000E+2	2.00000000E+0	-9.70224929E+0	7.15857500E+6
144	10/05/2023	13:38:37.521	6.27781637E-1	-8.81000000E+2	2.00000000E+0	-9.70224929E+0	7.15857500E+6
145	10/05/2023	13:38:39.009	2.81523824E+0	-8.44000000E+2	2.00000000E+0	-9.70224929E+0	7.15857500E+6
146	10/05/2023	13:38:40.489	3.68922379E+0	-7.87000000E+2	2.00000000E+0	-9.70224929E+0	7.15857500E+6
147	10/05/2023	13:38:42.249	5.83449593E+0	-8.15000000E+2	2.00000000E+0	-9.70224929E+0	7.15857500E+6
148	10/05/2023	13:38:43.759	3.85412673E-1	-8.52000000E+2	2.00000000E+0	-9.70224929E+0	7.15857500E+6
149	10/05/2023	13:38:45.254	3.53199076E+0	-8.90000000E+2	2.00000000E+0	-9.70224929E+0	7.15857500E+6
150	10/05/2023	13:38:46.850	5.29300071E+0	-9.06000000E+2	2.00000000E+0	-9.70224929E+0	7.15857500E+6
151	10/05/2023	13:38:48.340	2.32398089E+0	-9.08000000E+2	2.00000000E+0	-9.70224929E+0	7.15857500E+6
152	10/05/2023	13:38:49.826	4.12372385E+0	-8.99000000E+2	2.00000000E+0	-9.70224929E+0	7.15857500E+6
153	10/05/2023	13:38:51.320	1.29237881E+0	-8.71000000E+2	2.00000000E+0	-9.70224929E+0	7.15857500E+6
154	10/05/2023	13:38:52.808	5.94072410E+0	-8.15000000E+2	2.00000000E+0	-9.70224929E+0	7.15857500E+6
155	10/05/2023	13:38:54.375	1.37483028E+0	-7.80000000E+2	2.00000000E+0	-9.70224929E+0	7.15857500E+6
156	10/05/2023	13:38:55.949	5.59020949E+0	-8.15000000E+2	2.00000000E+0	-9.70224929E+0	7.15857500E+6
157	10/05/2023	13:38:57.510	3.97876267E+0	-8.65000000E+2	2.00000000E+0	-9.70224929E+0	7.15857500E+6
158	10/05/2023	13:38:58.996	4.48229186E+0	-8.96000000E+2	2.00000000E+0	-9.70224929E+0	7.15857500E+6
159	10/05/2023	13:39:00.493	1.08030597E+0	-9.05000000E+2	2.00000000E+0	-9.70224929E+0	7.15857500E+6
160	10/05/2023	13:39:02.072	2.39185954E+0	-9.09000000E+2	2.00000000E+0	-9.70224929E+0	7.15857500E+6
161	10/05/2023	13:39:03.540	1.22680114E+0	-8.90000000E+2	2.00000000E+0	-9.70224929E+0	7.15857500E+6
162	10/05/2023	13:39:04.986	2.44094693E+0	-8.53000000E+2	2.00000000E+0	-9.70224929E+0	7.15857500E+6
163	10/05/2023	13:39:06.535	4.22880154E+0	-7.90000000E+2	2.00000000E+0	-9.70224929E+0	7.15857500E+6
164	10/05/2023	13:39:08.040	3.76208788E+0	-7.94000000E+2	2.00000000E+0	-9.70224929E+0	7.15857500E+6
165	10/05/2023	13:39:09.624	4.75188899E+0	-8.67000000E+2	2.00000000E+0	-9.70224929E+0	7.15857500E+6
166	10/05/2023	13:39:11.126	6.05845712E+0	-9.08000000E+2	2.00000000E+0	-9.70224929E+0	7.15857500E+6
167	10/05/2023	13:39:12.611	2.59664598E+0	-9.03000000E+2	2.00000000E+0	-9.70224929E+0	7.15857500E+6
168	10/05/2023	13:39:14.234	1.19420404E+0	-9.07000000E+2	2.00000000E+0	-9.70224929E+0	7.15857500E+6
169	10/05/2023	13:39:15.745	5.47746190E+0	-9.13000000E+2	2.00000000E+0	-9.70224929E+0	7.15857500E+6
170	10/05/2023	13:39:17.256	6.58077758E-1	-8.99000000E+2	2.00000000E+0	-9.70224929E+0	7.15857500E+6
171	10/05/2023	13:39:18.751	3.64665583E+0	-8.94000000E+2	2.00000000E+0	-9.70224929E+0	7.15857500E+6
172	10/05/2023	13:39:20.243	6.17043772E-1	-8.70000000E+2	2.00000000E+0	-9.70224929E+0	7.15857500E+6
173	10/05/2023	13:39:21.821	4.60079188E+0	-8.14000000E+2	2.00000000E+0	-9.70224929E+0	7.15857500E+6
174	10/05/2023	13:39:23.284	1.24060696E+0	-7.85000000E+2	2.00000000E+0	-9.70224929E+0	7.15857500E+6
175	10/05/2023	13:39:24.777	2.16559738E+0	-8.32000000E+2	2.00000000E+0	-9.70224929E+0	7.15857500E+6
176	10/05/2023	13:39:26.348	3.16805382E+0	-8.56000000E+2	2.00000000E+0	-9.70224929E+0	7.15857500E+6
177	10/05/2023	13:39:27.818	3.18991305E+0	-8.74000000E+2	2.00000000E+0	-9.70224929E+0	7.15857500E+6
178	10/05/2023	13:39:29.294	1.36524290E-1	-8.94000000E+2	2.00000000E+0	-9.70224929E+0	7.15857500E+6
179	10/05/2023	13:39:30.763	1.44117495E+0	-9.07000000E+2	2.00000000E+0	-9.70224929E+0	7.15857500E+6
180	10/05/2023	13:39:32.275	5.73670465E+0	-9.07000000E+2	2.00000000E+0	-9.70224929E+0	7.15857500E+6
181	10/05/2023	13:39:33.840	1.12939336E+0	-9.08000000E+2	2.00000000E+0	-9.70224929E+0	7.15857500E+6
182	10/05/2023	13:39:35.340	1.12133996E+0	-9.05000000E+2	2.00000000E+0	-9.70224929E+0	7.15857500E+6
183	10/05/2023	13:39:36.844	5.82567554E+0	-8.87000000E+2	2.00000000E+0	-9.70224929E+0	7.15857500E+6
184	10/05/2023	13:39:38.329	6.26669501E+0	-8.50000000E+2	2.00000000E+0	-9.70224929E+0	7.15857500E+6
185	10/05/2023	13:39:39.844	2.25610224E+0	-8.00000000E+2	2.00000000E+0	-9.70224929E+0	7.15857500E+6
186	10/05/2023	13:39:41.354	2.06895659E+0	-8.05000000E+2	2.00000000E+0	-9.70224929E+0	7.15857500E+6
187	10/05/2023	13:39:42.845	4.47270448E+0	-8.65000000E+2	2.00000000E+0	-9.70224929E+0	7.15857500E+6
188	10/05/2023	13:39:44.359	7.17136018E-1	-8.96000000E+2	2.00000000E+0	-9.70224929E+0	7.15857500E+6
189	10/05/2023	13:39:45.941	1.66667013E+0	-9.07000000E+2	2.00000000E+0	-9.70224929E+0	7.15857500E+6
190	10/05/2023	13:39:47.453	4.20234037E+0	-9.04000000E+2	2.00000000E+0	-9.70224929E+0	7.15857500E+6
191	10/05/2023	13:39:48.983	4.27788892E+0	-8.86000000E+2	2.00000000E+0	-9.70224929E+0	7.15857500E+6
192	10/05/2023	13:39:50.460	4.64182586E+0	-8.42000000E+2	2.00000000E+0	-9.70224929E+0	7.15857500E+6
193	10/05/2023	13:39:51.920	1.14703413E+0	-7.81000000E+2	2.00000000E+0	-9.70224929E+0	7.15857500E+6
194	10/05/2023	13:39:53.494	2.21775272E+0	-8.17000000E+2	2.00000000E+0	-9.70224929E+0	7.15857500E+6
195	10/05/2023	13:39:54.974	3.13008780E+0	-8.75000000E+2	2.00000000E+0	-9.70224929E+0	7.15857500E+6
196	10/05/2023	13:39:56.460	5.49702015E+0	-9.00000000E+2	2.00000000E+0	-9.70224929E+0	7.15857500E+6
197	10/05/2023	13:39:58.025	5.18408807E+0	-9.08000000E+2	2.00000000E+0	-9.70224929E+0	7.15857500E+6
198	10/05/2023	13:39:59.516	1.12440792E+0	-8.97000000E+2	2.00000000E+0	-9.70224929E+0	7.15857500E+6
199	10/05/2023	13:40:01.048	3.64473835E+0	-8.61000000E+2	2.00000000E+0	-9.70224929E+0	7.15857500E+6
200	10/05/2023	13:40:02.542	6.07187945E+0	-8.02000000E+2	2.00000000E+0	-9.70224929E+0	7.15857500E+6
201	10/05/2023	13:40:04.022	1.41701475E+0	-7.97000000E+2	2.00000000E+0	-9.70224929E+0	7.15857500E+6
202	10/05/2023	13:40:05.616	3.58107815E+0	-8.60000000E+2	2.00000000E+0	-9.70224929E+0	7.15857500E+6
203	10/05/2023	13:40:07.108	8.00737971E-1	-8.96000000E+2	2.00000000E+0	-9.70224929E+0	7.15857500E+6
204	10/05/2023	13:40:08.674	5.14267059E+0	-9.07000000E+2	2.00000000E+0	-9.70224929E+0	7.15857500E+6
205	10/05/2023	13:40:10.180	4.30473359E+0	-9.05000000E+2	2.00000000E+0	-9.70224929E+0	7.15857500E+6
206	10/05/2023	13:40:11.714	1.82850510E+0	-8.90000000E+2	2.00000000E+0	-9.70224929E+0	7.15857500E+6
207	10/05/2023	13:40:13.295	5.64121435E-1	-8.55000000E+2	2.00000000E+0	-9.70224929E+0	7.15857500E+6
208	10/05/2023	13:40:14.780	5.50890850E+0	-8.04000000E+2	2.00000000E+0	-9.70224929E+0	7.15857500E+6
209	10/05/2023	13:40:16.266	5.44716578E+0	-7.81000000E+2	2.00000000E+0	-9.70224929E+0	7.15857500E+6
210	10/05/2023	13:40:17.809	7.14451552E-1	-8.28000000E+2	2.00000000E+0	-9.70224929E+0	7.15857500E+6
211	10/05/2023	13:40:19.304	5.49395219E+0	-8.86000000E+2	2.00000000E+0	-9.70224929E+0	7.15857500E+6
212	10/05/2023	13:40:20.752	5.45598617E+0	-9.03000000E+2	2.00000000E+0	-9.70224929E+0	7.15857500E+6
213	10/05/2023	13:40:22.217	1.93665074E-1	-9.07000000E+2	2.00000000E+0	-9.70224929E+0	7.15857500E+6
214	10/05/2023	13:40:23.702	2.48006344E+0	-8.93000000E+2	2.00000000E+0	-9.70224929E+0	7.15857500E+6
215	10/05/2023	13:40:25.310	4.85351521E+0	-8.45000000E+2	2.00000000E+0	-9.70224929E+0	7.15857500E+6
216	10/05/2023	13:40:27.037	4.84124337E+0	-7.79000000E+2	2.00000000E+0	-9.70224929E+0	7.15857500E+6
217	10/05/2023	13:40:28.680	2.17825272E-1	-8.13000000E+2	2.00000000E+0	-9.70224929E+0	7.15857500E+6
218	10/05/2023	13:40:30.126	2.96595185E+0	-8.82000000E+2	2.00000000E+0	-9.70224929E+0	7.15857500E+6
219	10/05/2023	13:40:31.659	1.68699537E+0	-9.07000000E+2	2.00000000E+0	-9.70224929E+0	7.15857500E+6
220	10/05/2023	13:40:33.138	1.62678663E+0	-9.05000000E+2	2.00000000E+0	-9.70224929E+0	7.15857500E+6
221	10/05/2023	13:40:34.659	4.51757342E-1	-9.06000000E+2	2.00000000E+0	-9.70224929E+0	7.15857500E+6
222	10/05/2023	13:40:36.155	2.57747122E+0	-9.07000000E+2	2.00000000E+0	-9.70224929E+0	7.15857500E+6
223	10/05/2023	13:40:37.736	1.29698076E+0	-9.01000000E+2	2.00000000E+0	-9.70224929E+0	7.15857500E+6
224	10/05/2023	13:40:39.197	3.34599559E+0	-8.61000000E+2	2.00000000E+0	-9.70224929E+0	7.15857500E+6
225	10/05/2023	13:40:40.756	3.22711208E+0	-8.17000000E+2	2.00000000E+0	-9.70224929E+0	7.15857500E+6
226	10/05/2023	13:40:42.232	6.13208820E+0	-8.68000000E+2	2.00000000E+0	-9.70224929E+0	7.15857500E+6
227	10/05/2023	13:40:43.691	4.04280637E+0	-8.99000000E+2	2.00000000E+0	-9.70224929E+0	7.15857500E+6
228	10/05/2023	13:40:45.222	3.00353438E+0	-9.04000000E+2	2.00000000E+0	-9.70224929E+0	7.15857500E+6
229	10/05/2023	13:40:46.673	7.41679711E-1	-9.05000000E+2	2.00000000E+0	-9.70224929E+0	7.15857500E+6
230	10/05/2023	13:40:48.123	4.11068502E+0	-8.89000000E+2	2.00000000E+0	-9.70224929E+0	7.15857500E+6
231	10/05/2023	13:40:49.738	6.20073384E+0	-8.36000000E+2	2.00000000E+0	-9.70224929E+0	7.15857500E+6
232	10/05/2023	13:40:51.203	2.42368964E-1	-8.36000000E+2	2.00000000E+0	-9.70224929E+0	7.15857500E+6
233	10/05/2023	13:40:52.797	1.54011671E+0	-8.88000000E+2	2.00000000E+0	-9.70224929E+0	7.15857500E+6
234	10/05/2023	13:40:54.289	3.88710732E+0	-9.07000000E+2	2.00000000E+0	-9.70224929E+0	7.15857500E+6
235	10/05/2023	13:40:55.810	2.56174792E+0	-9.07000000E+2	2.00000000E+0	-9.70224929E+0	7.15857500E+6
236	10/05/2023	13:40:57.385	3.52738882E+0	-8.93000000E+2	2.00000000E+0	-9.70224929E+0	7.15857500E+6
237	10/05/2023	13:40:58.872	2.98512661E+0	-8.35000000E+2	2.00000000E+0	-9.70224929E+0	7.15857500E+6
238	10/05/2023	13:41:00.383	2.96786933E+0	-8.05000000E+2	2.00000000E+0	-9.70224929E+0	7.15857500E+6
239	10/05/2023	13:41:01.853	4.55899090E+0	-8.90000000E+2	2.00000000E+0	-9.70224929E+0	7.15857500E+6
240	10/05/2023	13:41:03.333	3.83073352E+0	-9.06000000E+2	2.00000000E+0	-9.70224929E+0	7.15857500E+6
241	10/05/2023	13:41:04.922	3.45299075E+0	-8.97000000E+2	2.00000000E+0	-9.70224929E+0	7.15857500E+6
242	10/05/2023	13:41:06.423	2.56481588E+0	-8.51000000E+2	2.00000000E+0	-9.70224929E+0	7.15857500E+6
243	10/05/2023	13:41:07.875	5.12272884E+0	-7.81000000E+2	2.00000000E+0	-9.70224929E+0	7.15857500E+6
244	10/05/2023	13:41:09.490	6.27589890E+0	-8.43000000E+2	2.00000000E+0	-9.70224929E+0	7.15857500E+6
245	10/05/2023	13:41:10.988	3.93351024E+0	-8.98000000E+2	2.00000000E+0	-9.70224929E+0	7.15857500E+6
246	10/05/2023	13:41:12.490	5.19559293E+0	-9.05000000E+2	2.00000000E+0	-9.70224929E+0	7.15857500E+6
247	10/05/2023	13:41:13.965	5.95951536E-1	-8.95000000E+2	2.00000000E+0	-9.70224929E+0	7.15857500E+6
248	10/05/2023	13:41:15.451	4.31125300E+0	-8.66000000E+2	2.00000000E+0	-9.70224929E+0	7.15857500E+6
249	10/05/2023	13:41:17.026	4.95629193E+0	-7.94000000E+2	2.00000000E+0	-9.70224929E+0	7.15857500E+6
250	10/05/2023	13:41:18.509	9.00830218E-1	-7.97000000E+2	2.00000000E+0	-9.70224929E+0	7.15857500E+6
251	10/05/2023	13:41:19.993	2.53145180E+0	-8.75000000E+2	2.00000000E+0	-9.70224929E+0	7.15857500E+6
252	10/05/2023	13:41:21.453	1.22680114E+0	-9.06000000E+2	2.00000000E+0	-9.70224929E+0	7.15857500E+6
253	10/05/2023	13:41:23.006	4.62380159E+0	-8.93000000E+2	2.00000000E+0	-9.70224929E+0	7.15857500E+6
254	10/05/2023	13:41:24.587	1.37291281E-1	-8.41000000E+2	2.00000000E+0	-9.70224929E+0	7.15857500E+6
255	10/05/2023	13:41:26.083	5.79844738E-1	-7.87000000E+2	2.00000000E+0	-9.70224929E+0	7.15857500E+6
256	10/05/2023	13:41:27.556	4.58085013E+0	-8.30000000E+2	2.00000000E+0	-9.70224929E+0	7.15857500E+6
257	10/05/2023	13:41:29.164	5.29990362E-1	-8.75000000E+2	2.00000000E+0	-9.70224929E+0	7.15857500E+6
258	10/05/2023	13:41:30.661	4.66713655E+0	-8.99000000E+2	2.00000000E+0	-9.70224929E+0	7.15857500E+6
259	10/05/2023	13:41:32.615	5.49548617E-1	-9.06000000E+2	2.00000000E+0	-9.70224929E+0	7.15857500E+6
260	10/05/2023	13:41:34.091	5.60593279E+0	-9.07000000E+2	2.00000000E+0	-9.70224929E+0	7.15857500E+6
261	10/05/2023	13:41:35.555	4.56282585E+0	-9.05000000E+2	2.00000000E+0	-9.70224929E+0	7.15857500E+6
262	10/05/2023	13:41:37.153	5.34323858E+0	-9.04000000E+2	2.00000000E+0	-9.70224929E+0	7.15857500E+6
263	10/05/2023	13:41:38.639	4.50606856E+0	-9.03000000E+2	2.00000000E+0	-9.70224929E+0	7.15857500E+6
264	10/05/2023	13:41:40.138	5.13883564E-1	-8.99000000E+2	2.00000000E+0	-9.70224929E+0	7.15857500E+6
265	10/05/2023	13:41:41.720	4.36647631E+0	-8.98000000E+2	2.00000000E+0	-9.70224929E+0	7.15857500E+6
266	10/05/2023	13:41:43.226	5.42300558E+0	-8.96000000E+2	2.00000000E+0	-9.70224929E+0	7.15857500E+6
267	10/05/2023	13:41:44.687	1.93626725E+0	-8.94000000E+2	2.00000000E+0	-9.70224929E+0	7.15857500E+6
268	10/05/2023	13:41:46.206	3.96840830E+0	-8.91000000E+2	2.00000000E+0	-9.70224929E+0	7.15857500E+6
269	10/05/2023	13:41:47.678	5.67457843E+0	-8.86000000E+2	2.00000000E+0	-9.70224929E+0	7.15857500E+6
270	10/05/2023	13:41:49.246	2.70440813E+0	-8.82000000E+2	2.00000000E+0	-9.70224929E+0	7.15857500E+6
271	10/05/2023	13:41:50.724	4.31393747E+0	-8.81000000E+2	2.00000000E+0	-9.70224929E+0	7.15857500E+6
272	10/05/2023	13:41:52.269	3.01158778E+0	-8.79000000E+2	2.00000000E+0	-9.70224929E+0	7.15857500E+6
273	10/05/2023	13:41:53.767	1.50905360E+0	-8.77000000E+2	2.00000000E+0	-9.70224929E+0	7.15857500E+6
274	10/05/2023	13:41:55.243	4.76837928E+0	-8.75000000E+2	2.00000000E+0	-9.70224929E+0	7.15857500E+6
275	10/05/2023	13:41:56.758	2.84591786E+0	-8.72000000E+2	2.00000000E+0	-9.70224929E+0	7.15857500E+6
276	10/05/2023	13:41:58.261	1.49754874E+0	-8.67000000E+2	2.00000000E+0	-9.70224929E+0	7.15857500E+6
277	10/05/2023	13:41:59.720	5.29491818E+0	-8.63000000E+2	2.00000000E+0	-9.70224929E+0	7.15857500E+6
278	10/05/2023	13:42:01.319	6.26094259E+0	-8.59000000E+2	2.00000000E+0	-9.70224929E+0	7.15857500E+6
279	10/05/2023	13:42:02.786	2.62770909E+0	-8.50000000E+2	2.00000000E+0	-9.70224929E+0	7.15857500E+6
280	10/05/2023	13:42:04.257	5.78119009E+0	-8.44000000E+2	2.00000000E+0	-9.70224929E+0	7.15857500E+6
281	10/05/2023	13:42:05.727	5.41456869E+0	-8.35000000E+2	2.00000000E+0	-9.70224929E+0	7.15857500E+6
282	10/05/2023	13:42:07.216	3.97837917E+0	-8.29000000E+2	2.00000000E+0	-9.70224929E+0	7.15857500E+6
283	10/05/2023	13:42:08.807	2.31362652E+0	-8.22000000E+2	2.00000000E+0	-9.70224929E+0	7.15857500E+6
284	10/05/2023	13:42:10.298	2.59511200E+0	-8.17000000E+2	2.00000000E+0	-9.70224929E+0	7.15857500E+6
285	10/05/2023	13:42:11.788	1.04655839E+0	-8.08000000E+2	2.00000000E+0	-9.70224929E+0	7.15857500E+6
286	10/05/2023	13:42:13.316	4.78563656E+0	-8.02000000E+2	2.00000000E+0	-9.70224929E+0	7.15857500E+6
287	10/05/2023	13:42:14.826	2.82482562E+0	-7.96000000E+2	2.00000000E+0	-9.70224929E+0	7.15857500E+6
288	10/05/2023	13:42:16.365	1.55814099E+0	-7.88000000E+2	2.00000000E+0	-9.70224929E+0	7.15857500E+6
289	10/05/2023	13:42:17.859	2.91264602E+0	-7.81000000E+2	2.00000000E+0	-9.70224929E+0	7.15857500E+6
290	10/05/2023	13:42:19.363	5.84254933E+0	-7.89000000E+2	2.00000000E+0	-9.70224929E+0	7.15857500E+6
291	10/05/2023	13:42:20.923	4.99924339E+0	-7.97000000E+2	2.00000000E+0	-9.70224929E+0	7.15857500E+6
292	10/05/2023	13:42:22.402	4.92062687E+0	-8.04000000E+2	2.00000000E+0	-9.70224929E+0	7.15857500E+6
293	10/05/2023	13:42:23.928	9.16937016E-1	-8.17000000E+2	2.00000000E+0	-9.70224929E+0	7.15857500E+6
294	10/05/2023	13:42:25.394	6.00783576E+0	-8.25000000E+2	2.00000000E+0	-9.70224929E+0	7.15857500E+6
295	10/05/2023	13:42:26.870	3.34944705E+0	-8.30000000E+2	2.00000000E+0	-9.70224929E+0	7.15857500E+6
296	10/05/2023	13:42:28.428	1.25402929E-1	-8.43000000E+2	2.00000000E+0	-9.70224929E+0	7.15857500E+6
297	10/05/2023	13:42:29.907	5.35781140E+0	-8.48000000E+2	2.00000000E+0	-9.70224929E+0	7.15857500E+6
298	10/05/2023	13:42:31.373	4.77988414E+0	-8.52000000E+2	2.00000000E+0	-9.70224929E+0	7.15857500E+6
299	10/05/2023	13:42:32.929	4.64834528E+0	-8.55000000E+2	2.00000000E+0	-9.70224929E+0	7.15857500E+6
300	10/05/2023	13:42:34.452	4.99770941E+0	-8.57000000E+2	2.00000000E+0	-9.70224929E+0	7.15857500E+6
301	10/05/2023	13:42:36.028	4.58583557E+0	-8.61000000E+2	2.00000000E+0	-9.70224929E+0	7.15857500E+6
302	10/05/2023	13:42:37.516	2.46318965E+0	-8.63000000E+2	2.00000000E+0	-9.70224929E+0	7.15857500E+6
303	10/05/2023	13:42:39.004	3.05032080E+0	-8.68000000E+2	2.00000000E+0	-9.70224929E+0	7.15857500E+6
304	10/05/2023	13:42:40.611	1.68431091E+0	-8.73000000E+2	2.00000000E+0	-9.70224929E+0	7.15857500E+6
305	10/05/2023	13:42:42.097	5.75894737E+0	-8.79000000E+2	2.00000000E+0	-9.70224929E+0	7.15857500E+6
306	10/05/2023	13:42:43.571	3.71108302E+0	-8.81000000E+2	2.00000000E+0	-9.70224929E+0	7.15857500E+6
307	10/05/2023	13:42:45.057	4.89569968E+0	-8.84000000E+2	2.00000000E+0	-9.70224929E+0	7.15857500E+6
308	10/05/2023	13:42:46.534	2.62157317E+0	-8.89000000E+2	2.00000000E+0	-9.70224929E+0	7.15857500E+6
309	10/05/2023	13:42:48.098	4.25104426E+0	-8.92000000E+2	2.00000000E+0	-9.70224929E+0	7.15857500E+6
310	10/05/2023	13:42:49.576	1.46265068E+0	-8.94000000E+2	2.00000000E+0	-9.70224929E+0	7.15857500E+6
311	10/05/2023	13:42:51.057	2.07125756E+0	-8.96000000E+2	2.00000000E+0	-9.70224929E+0	7.15857500E+6
312	10/05/2023	13:42:52.639	2.06972358E+0	-8.98000000E+2	2.00000000E+0	-9.70224929E+0	7.15857500E+6
313	10/05/2023	13:42:54.135	6.03851537E+0	-9.01000000E+2	2.00000000E+0	-9.70224929E+0	7.15857500E+6
314	10/05/2023	13:42:55.697	1.56887885E+0	-9.03000000E+2	2.00000000E+0	-9.70224929E+0	7.15857500E+6
315	10/05/2023	13:42:57.166	3.46449561E+0	-9.04000000E+2	2.00000000E+0	-9.70224929E+0	7.15857500E+6
316	10/05/2023	13:42:58.616	3.45529172E+0	-9.05000000E+2	2.00000000E+0	-9.70224929E+0	7.15857500E+6
317	10/05/2023	13:43:00.201	4.90106862E-1	-9.06000000E+2	2.00000000E+0	-9.70224929E+0	7.15857500E+6
318	10/05/2023	13:43:01.663	1.63752449E-1	-9.06000000E+2	2.00000000E+0	-9.70224929E+0	7.15857500E+6
319	10/05/2023	13:43:03.141	2.16291291E+0	-9.06000000E+2	2.00000000E+0	-9.70224929E+0	7.15857500E+6
320	10/05/2023	13:43:04.579	4.17166075E+0	-9.05000000E+2	2.00000000E+0	-9.70224929E+0	7.15857500E+6
321	10/05/2023	13:43:06.077	1.19228657E+0	-9.02000000E+2	2.00000000E+0	-9.70224929E+0	7.15857500E+6
322	10/05/2023	13:43:07.627	2.35274303E+0	-8.99000000E+2	2.00000000E+0	-9.70224929E+0	7.15857500E+6
323	10/05/2023	13:43:09.103	4.49878216E+0	-8.97000000E+2	2.00000000E+0	-9.70224929E+0	7.15857500E+6
324	10/05/2023	13:43:10.595	6.18386005E+0	-8.94000000E+2	2.00000000E+0	-9.70224929E+0	7.15857500E+6
325	10/05/2023	13:43:12.176	1.26400017E+0	-8.89000000E+2	2.00000000E+0	-9.70224929E+0	7.15857500E+6
326	10/05/2023	13:43:13.651	3.40620434E+0	-8.87000000E+2	2.00000000E+0	-9.70224929E+0	7.15857500E+6
327	10/05/2023	13:43:15.175	5.16184535E-1	-8.84000000E+2	2.00000000E+0	-9.70224929E+0	7.15857500E+6
328	10/05/2023	13:43:16.655	2.42522363E+0	-8.81000000E+2	2.00000000E+0	-9.70224929E+0	7.15857500E+6
329	10/05/2023	13:43:18.133	5.93727264E+0	-8.78000000E+2	2.00000000E+0	-9.70224929E+0	7.15857500E+6
330	10/05/2023	13:43:19.663	3.58568009E-1	-8.75000000E+2	2.00000000E+0	-9.70224929E+0	7.15857500E+6
331	10/05/2023	13:43:21.125	6.09757363E+0	-8.72000000E+2	2.00000000E+0	-9.70224929E+0	7.15857500E+6
332	10/05/2023	13:43:22.599	3.31339850E+0	-8.67000000E+2	2.00000000E+0	-9.70224929E+0	7.15857500E+6
333	10/05/2023	13:43:24.178	4.63607344E+0	-8.63000000E+2	2.00000000E+0	-9.70224929E+0	7.15857500E+6
334	10/05/2023	13:43:25.645	3.23554898E+0	-8.57000000E+2	2.00000000E+0	-9.70224929E+0	7.15857500E+6
335	10/05/2023	13:43:27.194	3.05147128E+0	-8.52000000E+2	2.00000000E+0	-9.70224929E+0	7.15857500E+6
336	10/05/2023	13:43:28.640	2.26914108E+0	-8.44000000E+2	2.00000000E+0	-9.70224929E+0	7.15857500E+6
337	10/05/2023	13:43:30.156	1.59188856E+0	-8.36000000E+2	2.00000000E+0	-9.70224929E+0	7.15857500E+6
338	10/05/2023	13:43:31.721	4.86118512E+0	-8.29000000E+2	2.00000000E+0	-9.70224929E+0	7.15857500E+6
339	10/05/2023	13:43:33.205	2.38917508E+0	-8.21000000E+2	2.00000000E+0	-9.70224929E+0	7.15857500E+6
340	10/05/2023	13:43:34.703	1.61029633E+0	-8.13000000E+2	2.00000000E+0	-9.70224929E+0	7.15857500E+6
341	10/05/2023	13:43:36.229	3.10746158E+0	-8.05000000E+2	2.00000000E+0	-9.70224929E+0	7.15857500E+6
342	10/05/2023	13:43:37.707	4.14328211E+0	-7.99000000E+2	2.00000000E+0	-9.70224929E+0	7.15857500E+6
343	10/05/2023	13:43:39.300	1.46034971E+0	-7.87000000E+2	2.00000000E+0	-9.70224929E+0	7.15857500E+6
344	10/05/2023	13:43:40.752	4.19160250E+0	-7.84000000E+2	2.00000000E+0	-9.70224929E+0	7.15857500E+6
345	10/05/2023	13:43:42.222	1.79092257E-1	-7.92000000E+2	2.00000000E+0	-9.70224929E+0	7.15857500E+6
346	10/05/2023	13:43:43.799	1.38211669E+0	-8.00000000E+2	2.00000000E+0	-9.70224929E+0	7.15857500E+6
347	10/05/2023	13:43:45.273	4.43972390E+0	-8.08000000E+2	2.00000000E+0	-9.70224929E+0	7.15857500E+6
348	10/05/2023	13:43:46.767	2.48044693E+0	-8.18000000E+2	2.00000000E+0	-9.70224929E+0	7.15857500E+6
349	10/05/2023	13:43:48.275	4.82283560E+0	-8.25000000E+2	2.00000000E+0	-9.70224929E+0	7.15857500E+6
350	10/05/2023	13:43:49.737	4.18585007E+0	-8.32000000E+2	2.00000000E+0	-9.70224929E+0	7.15857500E+6
351	10/05/2023	13:43:51.336	6.25749113E+0	-8.44000000E+2	2.00000000E+0	-9.70224929E+0	7.15857500E+6
352	10/05/2023	13:43:52.815	5.79537942E+0	-8.51000000E+2	2.00000000E+0	-9.70224929E+0	7.15857500E+6
353	10/05/2023	13:43:54.280	5.24391332E+0	-8.55000000E+2	2.00000000E+0	-9.70224929E+0	7.15857500E+6
354	10/05/2023	13:43:55.745	3.85911217E+0	-8.62000000E+2	2.00000000E+0	-9.70224929E+0	7.15857500E+6
355	10/05/2023	13:43:57.238	2.53451976E+0	-8.66000000E+2	2.00000000E+0	-9.70224929E+0	7.15857500E+6
356	10/05/2023	13:43:58.680	1.90520414E+0	-8.72000000E+2	2.00000000E+0	-9.70224929E+0	7.15857500E+6
357	10/05/2023	13:44:00.158	3.14542761E+0	-8.79000000E+2	2.00000000E+0	-9.70224929E+0	7.15857500E+6
358	10/05/2023	13:44:01.644	5.45905413E+0	-8.84000000E+2	2.00000000E+0	-9.70224929E+0	7.15857500E+6
359	10/05/2023	13:44:03.214	5.86670952E+0	-8.90000000E+2	2.00000000E+0	-9.70224929E+0	7.15857500E+6
360	10/05/2023	13:44:04.666	5.78962699E+0	-8.93000000E+2	2.00000000E+0	-9.70224929E+0	7.15857500E+6
361	10/05/2023	13:44:06.202	1.49524777E+0	-8.97000000E+2	2.00000000E+0	-9.70224929E+0	7.15857500E+6
362	10/05/2023	13:44:07.715	1.82236918E+0	-8.99000000E+2	2.00000000E+0	-9.70224929E+0	7.15857500E+6
363	10/05/2023	13:44:09.219	2.45436926E-2	-9.02000000E+2	2.00000000E+0	-9.70224929E+0	7.15857500E+6
364	10/05/2023	13:44:10.784	6.59611739E-1	-9.03000000E+2	2.00000000E+0	-9.70224929E+0	7.15857500E+6
365	10/05/2023	13:44:12.262	1.96848085E+0	-9.04000000E+2	2.00000000E+0	-9.70224929E+0	7.15857500E+6
366	10/05/2023	13:44:13.761	2.97515574E+0	-9.07000000E+2	2.00000000E+0	-9.70224929E+0	7.15857500E+6
367	10/05/2023	13:44:15.325	4.26983552E+0	-9.06000000E+2	2.00000000E+0	-9.70224929E+0	7.15857500E+6
368	10/05/2023	13:44:16.795	3.23669946E-1	-9.05000000E+2	2.00000000E+0	-9.70224929E+0	7.15857500E+6
369	10/05/2023	13:44:18.299	4.49954915E+0	-9.07000000E+2	2.00000000E+0	-9.70224929E+0	7.15857500E+6
370	10/05/2023	13:44:19.776	1.15048559E-1	-9.06000000E+2	2.00000000E+0	-9.70224929E+0	7.15857500E+6
371	10/05/2023	13:44:21.297	5.54188909E+0	-9.05000000E+2	2.00000000E+0	-9.70224929E+0	7.15857500E+6
372	10/05/2023	13:44:22.868	9.76378771E-1	-9.02000000E+2	2.00000000E+0	-9.70224929E+0	7.15857500E+6
373	10/05/2023	13:44:24.334	3.30956355E+0	-8.99000000E+2	2.00000000E+0	-9.70224929E+0	7.15857500E+6
374	10/05/2023	13:44:25.833	5.86325807E+0	-8.97000000E+2	2.00000000E+0	-9.70224929E+0	7.15857500E+6
375	10/05/2023	13:44:27.306	3.76132089E+0	-8.96000000E+2	2.00000000E+0	-9.70224929E+0	7.15857500E+6
376	10/05/2023	13:44:28.765	1.67203906E+0	-8.97000000E+2	2.00000000E+0	-9.70224929E+0	7.15857500E+6
377	10/05/2023	13:44:30.339	1.52170894E+0	-9.00000000E+2	2.00000000E+0	-9.70224929E+0	7.15857500E+6
378	10/05/2023	13:44:31.817	2.71783046E+0	-9.02000000E+2	2.00000000E+0	-9.70224929E+0	7.15857500E+6
379	10/05/2023	13:44:33.312	2.60201491E+0	-9.04000000E+2	2.00000000E+0	-9.70224929E+0	7.15857500E+6
380	10/05/2023	13:44:34.904	2.12187892E+0	-9.06000000E+2	2.00000000E+0	-9.70224929E+0	7.15857500E+6
381	10/05/2023	13:44:36.379	3.46487910E+0	-9.06000000E+2	2.00000000E+0	-9.70224929E+0	7.15857500E+6
382	10/05/2023	13:44:37.929	1.96196143E+0	-8.96000000E+2	2.00000000E+0	-9.70224929E+0	7.15857500E+6
383	10/05/2023	13:44:39.408	3.49785969E+0	-9.06000000E+2	2.00000000E+0	-9.70224929E+0	7.15857500E+6
384	10/05/2023	13:44:40.880	2.33548575E+0	-9.01000000E+2	2.00000000E+0	-9.70224929E+0	7.15857500E+6
385	10/05/2023	13:44:42.484	6.32000085E-1	-8.99000000E+2	2.00000000E+0	-9.70224929E+0	7.15857500E+6
386	10/05/2023	13:44:43.972	2.99241302E+0	-9.08000000E+2	2.00000000E+0	-9.70224929E+0	7.15857500E+6
387	10/05/2023	13:44:45.446	2.56673335E+0	-9.04000000E+2	2.00000000E+0	-9.70224929E+0	7.15857500E+6
388	10/05/2023	13:44:46.929	2.30250516E+0	-8.91000000E+2	2.00000000E+0	-9.70224929E+0	7.15857500E+6
389	10/05/2023	13:44:48.410	1.66667013E+0	-8.56000000E+2	2.00000000E+0	-9.70224929E+0	7.15857500E+6
390	10/05/2023	13:44:49.850	6.73417566E-1	-8.88000000E+2	2.00000000E+0	-9.70224929E+0	7.15857500E+6
391	10/05/2023	13:44:51.311	1.74260218E+0	-8.93000000E+2	2.00000000E+0	-9.70224929E+0	7.15857500E+6
392	10/05/2023	13:44:52.789	1.07110209E+0	-8.74000000E+2	2.00000000E+0	-9.70224929E+0	7.15857500E+6
393	10/05/2023	13:44:54.384	3.97952966E+0	-8.74000000E+2	2.00000000E+0	-9.70224929E+0	7.15857500E+6
394	10/05/2023	13:44:55.856	3.70302962E+0	-8.85000000E+2	2.00000000E+0	-9.70224929E+0	7.15857500E+6
395	10/05/2023	13:44:57.487	6.28203482E+0	-9.01000000E+2	2.00000000E+0	-9.70224929E+0	7.15857500E+6
396	10/05/2023	13:44:59.010	5.24391332E+0	-9.03000000E+2	2.00000000E+0	-9.70224929E+0	7.15857500E+6
397	10/05/2023	13:45:00.452	3.92967528E+0	-8.94000000E+2	2.00000000E+0	-9.70224929E+0	7.15857500E+6
398	10/05/2023	13:45:02.016	4.43320448E-1	-8.71000000E+2	2.00000000E+0	-9.70224929E+0	7.15857500E+6
399	10/05/2023	13:45:03.488	2.70977706E+0	-8.32000000E+2	2.00000000E+0	-9.70224929E+0	7.15857500E+6
400	10/05/2023	13:45:04.994	4.63645693E-1	-8.32000000E+2	2.00000000E+0	-9.70224929E+0	7.15857500E+6
401	10/05/2023	13:45:06.564	5.15954438E+0	-8.83000000E+2	2.00000000E+0	-9.70224929E+0	7.15857500E+6
402	10/05/2023	13:45:08.042	5.33441819E+0	-9.05000000E+2	2.00000000E+0	-9.70224929E+0	7.15857500E+6
403	10/05/2023	13:45:09.512	4.44432584E+0	-9.07000000E+2	2.00000000E+0	-9.70224929E+0	7.15857500E+6
404	10/05/2023	13:45:11.009	3.82843255E+0	-9.02000000E+2	2.00000000E+0	-9.70224929E+0	7.15857500E+6
405	10/05/2023	13:45:12.521	1.27243706E+0	-8.96000000E+2	2.00000000E+0	-9.70224929E+0	7.15857500E+6
406	10/05/2023	13:45:14.064	3.42422861E+0	-8.79000000E+2	2.00000000E+0	-9.70224929E+0	7.15857500E+6
407	10/05/2023	13:45:15.540	1.62832061E+0	-8.46000000E+2	2.00000000E+0	-9.70224929E+0	7.15857500E+6
408	10/05/2023	13:45:17.102	4.95552494E+0	-8.01000000E+2	2.00000000E+0	-9.70224929E+0	7.15857500E+6
409	10/05/2023	13:45:18.631	4.35267049E-1	-7.89000000E+2	2.00000000E+0	-9.70224929E+0	7.15857500E+6
410	10/05/2023	13:45:20.105	2.47354402E-1	-8.24000000E+2	2.00000000E+0	-9.70224929E+0	7.15857500E+6
411	10/05/2023	13:45:21.677	4.72351034E+0	-8.74000000E+2	2.00000000E+0	-9.70224929E+0	7.15857500E+6
412	10/05/2023	13:45:23.168	5.39424344E+0	-9.01000000E+2	2.00000000E+0	-9.70224929E+0	7.15857500E+6
413	10/05/2023	13:45:24.637	1.94048570E-1	-9.05000000E+2	2.00000000E+0	-9.70224929E+0	7.15857500E+6
414	10/05/2023	13:45:26.244	4.90682105E+0	-9.06000000E+2	2.00000000E+0	-9.70224929E+0	7.15857500E+6
415	10/05/2023	13:45:27.707	2.60048093E+0	-9.11000000E+2	2.00000000E+0	-9.70224929E+0	7.15857500E+6
416	10/05/2023	13:45:29.201	5.75971436E+0	-8.98000000E+2	2.00000000E+0	-9.70224929E+0	7.15857500E+6
417	10/05/2023	13:45:30.679	6.23639889E+0	-8.90000000E+2	2.00000000E+0	-9.70224929E+0	7.15857500E+6
418	10/05/2023	13:45:32.194	1.19267006E-1	-8.80000000E+2	2.00000000E+0	-9.70224929E+0	7.15857500E+6
419	10/05/2023	13:45:33.754	1.21031084E+0	-8.53000000E+2	2.00000000E+0	-9.70224929E+0	7.15857500E+6
420	10/05/2023	13:45:35.225	1.70118469E+0	-8.20000000E+2	2.00000000E+0	-9.70224929E+0	7.15857500E+6
421	10/05/2023	13:45:36.691	3.06796158E+0	-7.85000000E+2	2.00000000E+0	-9.70224929E+0	7.15857500E+6
422	10/05/2023	13:45:38.169	2.52646636E+0	-7.93000000E+2	2.00000000E+0	-9.70224929E+0	7.15857500E+6
423	10/05/2023	13:45:39.618	3.67465098E+0	-8.31000000E+2	2.00000000E+0	-9.70224929E+0	7.15857500E+6
424	10/05/2023	13:45:41.194	4.92177736E+0	-8.77000000E+2	2.00000000E+0	-9.70224929E+0	7.15857500E+6
425	10/05/2023	13:45:42.666	8.36786520E-1	-8.99000000E+2	2.00000000E+0	-9.70224929E+0	7.15857500E+6
426	10/05/2023	13:45:44.178	3.18761208E+0	-9.05000000E+2	2.00000000E+0	-9.70224929E+0	7.15857500E+6
427	10/05/2023	13:45:45.778	6.41970960E-1	-9.05000000E+2	2.00000000E+0	-9.70224929E+0	7.15857500E+6
428	10/05/2023	13:45:47.274	5.05638417E+0	-9.06000000E+2	2.00000000E+0	-9.70224929E+0	7.15857500E+6
429	10/05/2023	13:45:48.796	1.42200019E+0	-9.08000000E+2	2.00000000E+0	-9.70224929E+0	7.15857500E+6
430	10/05/2023	13:45:50.287	4.23455396E+0	-9.00000000E+2	2.00000000E+0	-9.70224929E+0	7.15857500E+6
431	10/05/2023	13:45:51.751	1.55392254E+0	-8.72000000E+2	2.00000000E+0	-9.70224929E+0	7.15857500E+6
432	10/05/2023	13:45:53.297	3.74214613E+0	-8.41000000E+2	2.00000000E+0	-9.70224929E+0	7.15857500E+6
433	10/05/2023	13:45:54.785	2.64688385E+0	-7.97000000E+2	2.00000000E+0	-9.70224929E+0	7.15857500E+6
434	10/05/2023	13:45:56.303	3.90091314E+0	-7.84000000E+2	2.00000000E+0	-9.70224929E+0	7.15857500E+6
435	10/05/2023	13:45:57.845	1.63215556E+0	-7.89000000E+2	2.00000000E+0	-9.70224929E+0	7.15857500E+6
436	10/05/2023	13:45:59.331	5.41111723E-1	-8.35000000E+2	2.00000000E+0	-9.70224929E+0	7.15857500E+6
437	10/05/2023	13:46:00.867	1.68776236E+0	-8.73000000E+2	2.00000000E+0	-9.70224929E+0	7.15857500E+6
438	10/05/2023	13:46:02.337	3.16498586E+0	-8.83000000E+2	2.00000000E+0	-9.70224929E+0	7.15857500E+6
439	10/05/2023	13:46:03.829	4.69168024E+0	-8.92000000E+2	2.00000000E+0	-9.70224929E+0	7.15857500E+6
440	10/05/2023	13:46:05.411	1.87337404E+0	-8.97000000E+2	2.00000000E+0	-9.70224929E+0	7.15857500E+6
441	10/05/2023	13:46:06.894	1.96042745E+0	-9.01000000E+2	2.00000000E+0	-9.70224929E+0	7.15857500E+6
442	10/05/2023	13:46:08.483	5.20096186E+0	-9.07000000E+2	2.00000000E+0	-9.70224929E+0	7.15857500E+6
443	10/05/2023	13:46:10.092	4.28594232E+0	-9.04000000E+2	2.00000000E+0	-9.70224929E+0	7.15857500E+6
444	10/05/2023	13:46:11.581	4.34960252E+0	-8.92000000E+2	2.00000000E+0	-9.70224929E+0	7.15857500E+6
445	10/05/2023	13:46:13.112	1.53091283E+0	-8.36000000E+2	2.00000000E+0	-9.70224929E+0	7.15857500E+6
446	10/05/2023	13:46:14.608	3.71606846E-1	-8.02000000E+2	2.00000000E+0	-9.70224929E+0	7.15857500E+6
447	10/05/2023	13:46:16.105	3.91280149E+0	-8.64000000E+2	2.00000000E+0	-9.70224929E+0	7.15857500E+6
448	10/05/2023	13:46:17.696	4.39408797E+0	-9.05000000E+2	2.00000000E+0	-9.70224929E+0	7.15857500E+6
449	10/05/2023	13:46:19.196	5.05753466E+0	-9.04000000E+2	2.00000000E+0	-9.70224929E+0	7.15857500E+6
450	10/05/2023	13:46:20.667	4.67327247E+0	-9.04000000E+2	2.00000000E+0	-9.70224929E+0	7.15857500E+6
451	10/05/2023	13:46:22.148	2.22503913E+0	-8.99000000E+2	2.00000000E+0	-9.70224929E+0	7.15857500E+6
452	10/05/2023	13:46:23.641	3.15233052E+0	-8.71000000E+2	2.00000000E+0	-9.70224929E+0	7.15857500E+6
453	10/05/2023	13:46:25.205	2.59434501E+0	-7.93000000E+2	2.00000000E+0	-9.70224929E+0	7.15857500E+6
454	10/05/2023	13:46:26.682	6.15087946E+0	-7.72000000E+2	2.00000000E+0	-9.70224929E+0	7.15857500E+6
455	10/05/2023	13:46:28.200	5.87322894E+0	-8.44000000E+2	2.00000000E+0	-9.70224929E+0	7.15857500E+6
456	10/05/2023	13:46:29.671	3.30572860E+0	-8.96000000E+2	2.00000000E+0	-9.70224929E+0	7.15857500E+6
457	10/05/2023	13:46:31.134	3.53927717E+0	-9.05000000E+2	2.00000000E+0	-9.70224929E+0	7.15857500E+6
458	10/05/2023	13:46:32.742	4.25219474E+0	-9.05000000E+2	2.00000000E+0	-9.70224929E+0	7.15857500E+6
459	10/05/2023	13:46:34.244	3.18339363E+0	-9.04000000E+2	2.00000000E+0	-9.70224929E+0	7.15857500E+6
460	10/05/2023	13:46:35.695	2.84553436E+0	-8.98000000E+2	2.00000000E+0	-9.70224929E+0	7.15857500E+6
461	10/05/2023	13:46:37.278	1.84959733E+0	-8.58000000E+2	2.00000000E+0	-9.70224929E+0	7.15857500E+6
462	10/05/2023	13:46:38.748	2.63077705E+0	-8.05000000E+2	2.00000000E+0	-9.70224929E+0	7.15857500E+6
463	10/05/2023	13:46:40.275	1.06419917E+0	-8.69000000E+2	2.00000000E+0	-9.70224929E+0	7.15857500E+6
464	10/05/2023	13:46:41.760	5.09895214E+0	-8.98000000E+2	2.00000000E+0	-9.70224929E+0	7.15857500E+6
465	10/05/2023	13:46:43.241	2.56558287E+0	-8.84000000E+2	2.00000000E+0	-9.70224929E+0	7.15857500E+6
466	10/05/2023	13:46:44.779	5.50085511E+0	-8.28000000E+2	2.00000000E+0	-9.70224929E+0	7.15857500E+6
467	10/05/2023	13:46:46.303	3.59910242E+0	-7.90000000E+2	2.00000000E+0	-9.70224929E+0	7.15857500E+6
468	10/05/2023	13:46:47.782	2.39684498E-1	-8.19000000E+2	2.00000000E+0	-9.70224929E+0	7.15857500E+6
469	10/05/2023	13:46:49.331	4.03667044E+0	-8.63000000E+2	2.00000000E+0	-9.70224929E+0	7.15857500E+6
470	10/05/2023	13:46:50.809	2.35734498E+0	-8.85000000E+2	2.00000000E+0	-9.70224929E+0	7.15857500E+6
471	10/05/2023	13:46:52.290	4.75188899E+0	-8.73000000E+2	2.00000000E+0	-9.70224929E+0	7.15857500E+6
472	10/05/2023	13:46:53.767	3.42729658E+0	-8.57000000E+2	2.00000000E+0	-9.70224929E+0	7.15857500E+6
473	10/05/2023	13:46:55.250	4.23723843E+0	-8.39000000E+2	2.00000000E+0	-9.70224929E+0	7.15857500E+6
474	10/05/2023	13:46:56.787	4.85888415E-1	-7.90000000E+2	2.00000000E+0	-9.70224929E+0	7.15857500E+6
475	10/05/2023	13:46:58.260	5.60861726E+0	-7.35000000E+2	2.00000000E+0	-9.70224929E+0	7.15857500E+6
476	10/05/2023	13:46:59.750	3.08253439E+0	-6.75000000E+2	2.00000000E+0	-9.70224929E+0	7.15857500E+6
477	10/05/2023	13:47:01.330	4.12564133E+0	-7.04000000E+2	2.00000000E+0	-9.70224929E+0	7.15857500E+6
478	10/05/2023	13:47:02.790	4.57164624E+0	-7.95000000E+2	2.00000000E+0	-9.70224929E+0	7.15857500E+6
479	10/05/2023	13:47:04.300	8.66699145E-1	-8.56000000E+2	2.00000000E+0	-9.70224929E+0	7.15857500E+6
480	10/05/2023	13:47:05.794	3.71415098E+0	-8.91000000E+2	2.00000000E+0	-9.70224929E+0	7.15857500E+6
481	10/05/2023	13:47:07.277	8.60179727E-1	-8.99000000E+2	2.00000000E+0	-9.70224929E+0	7.15857500E+6
482	10/05/2023	13:47:08.837	4.47845691E+0	-8.99000000E+2	2.00000000E+0	-9.70224929E+0	7.15857500E+6
483	10/05/2023	13:47:10.319	5.85942311E+0	-8.96000000E+2	2.00000000E+0	-9.70224929E+0	7.15857500E+6
484	10/05/2023	13:47:11.797	5.13346671E+0	-8.92000000E+2	2.00000000E+0	-9.70224929E+0	7.15857500E+6
485	10/05/2023	13:47:13.283	6.15394743E+0	-8.62000000E+2	2.00000000E+0	-9.70224929E+0	7.15857500E+6
486	10/05/2023	13:47:14.837	5.60976774E+0	-8.39000000E+2	2.00000000E+0	-9.70224929E+0	7.15857500E+6
487	10/05/2023	13:47:16.416	4.48689380E+0	-8.06000000E+2	2.00000000E+0	-9.70224929E+0	7.15857500E+6
488	10/05/2023	13:47:17.888	1.54433516E+0	-7.92000000E+2	2.00000000E+0	-9.70224929E+0	7.15857500E+6
489	10/05/2023	13:47:19.404	2.22810709E-1	-7.94000000E+2	2.00000000E+0	-9.70224929E+0	7.15857500E+6
490	10/05/2023	13:47:20.886	5.28226284E+0	-7.93000000E+2	2.00000000E+0	-9.70224929E+0	7.15857500E+6
491	10/05/2023	13:47:22.374	1.88104394E+0	-7.81000000E+2	2.00000000E+0	-9.70224929E+0	7.15857500E+6
492	10/05/2023	13:47:23.950	7.12150581E-1	-7.90000000E+2	2.00000000E+0	-9.70224929E+0	7.15857500E+6
493	10/05/2023	13:47:25.473	5.59404444E+0	-8.01000000E+2	2.00000000E+0	-9.70224929E+0	7.15857500E+6
494	10/05/2023	13:47:26.952	5.17411720E+0	-8.13000000E+2	2.00000000E+0	-9.70224929E+0	7.15857500E+6
495	10/05/2023	13:47:28.513	3.33065579E+0	-8.21000000E+2	2.00000000E+0	-9.70224929E+0	7.15857500E+6
496	10/05/2023	13:47:29.994	1.88142744E+0	-8.32000000E+2	2.00000000E+0	-9.70224929E+0	7.15857500E+6
497	10/05/2023	13:47:31.530	8.70917592E-1	-8.47000000E+2	2.00000000E+0	-9.70224929E+0	7.15857500E+6
498	10/05/2023	13:47:32.988	1.06611665E-1	-8.52000000E+2	2.00000000E+0	-9.70224929E+0	7.15857500E+6
499	10/05/2023	13:47:34.493	4.56090838E+0	-8.62000000E+2	2.00000000E+0	-9.70224929E+0	7.15857500E+6
500	10/05/2023	13:47:36.056	3.73294225E+0	-8.72000000E+2	2.00000000E+0	-9.70224929E+0	7.15857500E+6
