#Iteration	Date	Time	Chirp	Phase	RamanAxis	RTPhase	NFringe	Ratio
1	10/05/2023	13:35:01.104	0.00000000E+0	-1.56922630E+3	5.00000000E+0	3.47408299E+0	-8.97000000E+2	4.94000358E-1
2	10/05/2023	13:35:02.591	0.00000000E+0	-1.56294311E+3	5.00000000E+0	5.02148611E+0	-8.98000000E+2	4.70354022E-1
3	10/05/2023	13:35:04.113	0.00000000E+0	-1.55665993E+3	5.00000000E+0	1.99034007E+0	-8.97000000E+2	4.35634182E-1
4	10/05/2023	13:35:05.575	0.00000000E+0	-1.55037674E+3	5.00000000E+0	3.45184027E+0	-8.92000000E+2	4.59766063E-1
5	10/05/2023	13:35:07.016	0.00000000E+0	-1.54409356E+3	5.00000000E+0	1.60684488E-1	-8.78000000E+2	4.67685393E-1
6	10/05/2023	13:35:08.588	0.00000000E+0	-1.53781037E+3	5.00000000E+0	5.66000561E+0	-8.66000000E+2	5.88452115E-1
7	10/05/2023	13:35:10.075	0.00000000E+0	-1.53152719E+3	5.00000000E+0	2.80450038E+0	-8.47000000E+2	5.26135404E-1
8	10/05/2023	13:35:11.564	0.00000000E+0	-1.52524400E+3	5.00000000E+0	2.40489838E+0	-8.15000000E+2	6.22294442E-1
9	10/05/2023	13:35:13.026	0.00000000E+0	-1.51896082E+3	5.00000000E+0	4.97661717E+0	-7.99000000E+2	4.95336824E-1
10	10/05/2023	13:35:14.491	0.00000000E+0	-1.51267763E+3	5.00000000E+0	6.39286493E-1	-7.80000000E+2	4.49931797E-1
11	10/05/2023	13:35:16.155	0.00000000E+0	-1.50639444E+3	5.00000000E+0	1.42468466E+0	-8.09000000E+2	3.90682668E-1
12	10/05/2023	13:35:17.621	0.00000000E+0	-1.50011126E+3	5.00000000E+0	4.16130638E+0	-8.42000000E+2	5.29928754E-1
13	10/05/2023	13:35:19.223	0.00000000E+0	-1.49382807E+3	5.00000000E+0	3.20832082E+0	-8.69000000E+2	4.11760474E-1
14	10/05/2023	13:35:20.729	0.00000000E+0	-1.48754489E+3	5.00000000E+0	5.90966099E-1	-8.82000000E+2	4.76874466E-1
15	10/05/2023	13:35:22.246	0.00000000E+0	-1.48126170E+3	5.00000000E+0	1.68277692E+0	-8.98000000E+2	6.16378338E-1
16	10/05/2023	13:35:23.774	0.00000000E+0	-1.47497852E+3	5.00000000E+0	3.98873354E+0	-9.05000000E+2	5.74912202E-1
17	10/05/2023	13:35:25.243	0.00000000E+0	-1.46869533E+3	5.00000000E+0	5.66997649E+0	-9.07000000E+2	5.61869953E-1
18	10/05/2023	13:35:26.707	0.00000000E+0	-1.46241215E+3	5.00000000E+0	2.13606825E-1	-9.04000000E+2	3.94569496E-1
19	10/05/2023	13:35:28.333	0.00000000E+0	-1.45612896E+3	5.00000000E+0	4.60385984E+0	-8.95000000E+2	4.41308769E-1
20	10/05/2023	13:35:29.825	0.00000000E+0	-1.44984578E+3	5.00000000E+0	4.30741805E+0	-8.90000000E+2	4.52981415E-1
21	10/05/2023	13:35:31.358	0.00000000E+0	-1.44356259E+3	5.00000000E+0	5.24314633E+0	-8.72000000E+2	4.61643729E-1
22	10/05/2023	13:35:32.821	0.00000000E+0	-1.43727941E+3	5.00000000E+0	5.00883077E+0	-8.59000000E+2	4.12700103E-1
23	10/05/2023	13:35:34.324	0.00000000E+0	-1.43099622E+3	5.00000000E+0	1.03850499E+0	-8.42000000E+2	5.47681210E-1
24	10/05/2023	13:35:36.029	0.00000000E+0	-1.42471304E+3	5.00000000E+0	4.83855890E+0	-8.14000000E+2	6.22419589E-1
25	10/05/2023	13:35:37.523	0.00000000E+0	-1.41842985E+3	5.00000000E+0	4.52179187E+0	-7.87000000E+2	5.46701899E-1
26	10/05/2023	13:35:38.988	0.00000000E+0	-1.41214666E+3	5.00000000E+0	1.11098559E+0	-7.82000000E+2	3.58580709E-1
27	10/05/2023	13:35:40.441	0.00000000E+0	-1.40586348E+3	5.00000000E+0	5.95414643E+0	-8.05000000E+2	4.78187862E-1
28	10/05/2023	13:35:41.918	0.00000000E+0	-1.39958029E+3	5.00000000E+0	4.56819479E+0	-8.30000000E+2	5.33761893E-1
29	10/05/2023	13:35:43.493	0.00000000E+0	-1.39329711E+3	5.00000000E+0	5.20786477E-1	-8.63000000E+2	4.06154438E-1
30	10/05/2023	13:35:44.983	0.00000000E+0	-1.38701392E+3	5.00000000E+0	1.50368467E+0	-8.80000000E+2	6.36783612E-1
31	10/05/2023	13:35:46.420	0.00000000E+0	-1.38073074E+3	5.00000000E+0	2.63767996E+0	-8.95000000E+2	5.42039653E-1
32	10/05/2023	13:35:48.004	0.00000000E+0	-1.37444755E+3	5.00000000E+0	5.37046674E+0	-9.00000000E+2	5.56348833E-1
33	10/05/2023	13:35:49.501	0.00000000E+0	-1.36816437E+3	5.00000000E+0	2.37038381E+0	-9.07000000E+2	5.04649272E-1
34	10/05/2023	13:35:50.983	0.00000000E+0	-1.36188118E+3	5.00000000E+0	1.21567977E+0	-9.07000000E+2	4.78667181E-1
35	10/05/2023	13:35:52.458	0.00000000E+0	-1.35559800E+3	5.00000000E+0	4.69628218E+0	-9.06000000E+2	4.14866795E-1
36	10/05/2023	13:35:53.923	0.00000000E+0	-1.34931481E+3	5.00000000E+0	5.59519492E+0	-9.03000000E+2	4.15136863E-1
37	10/05/2023	13:35:55.524	0.00000000E+0	-1.34303163E+3	5.00000000E+0	1.45267981E+0	-8.98000000E+2	3.47891494E-1
38	10/05/2023	13:35:57.014	0.00000000E+0	-1.33674844E+3	5.00000000E+0	4.50491808E+0	-8.84000000E+2	5.33385149E-1
39	10/05/2023	13:35:58.486	0.00000000E+0	-1.33046526E+3	5.00000000E+0	4.59158799E+0	-8.72000000E+2	5.00219265E-1
40	10/05/2023	13:36:00.035	0.00000000E+0	-1.32418207E+3	5.00000000E+0	1.07301956E+0	-8.37000000E+2	4.66817136E-1
41	10/05/2023	13:36:01.510	0.00000000E+0	-1.31789889E+3	5.00000000E+0	1.79974296E+0	-8.05000000E+2	4.35930669E-1
42	10/05/2023	13:36:03.112	0.00000000E+0	-1.31161570E+3	5.00000000E+0	2.93680622E+0	-7.80000000E+2	2.82500509E-1
43	10/05/2023	13:36:04.620	0.00000000E+0	-1.30533251E+3	5.00000000E+0	4.16168988E+0	-7.98000000E+2	3.21955397E-1
44	10/05/2023	13:36:06.089	0.00000000E+0	-1.29904933E+3	5.00000000E+0	2.75234503E+0	-8.18000000E+2	3.96364098E-1
45	10/05/2023	13:36:07.662	0.00000000E+0	-1.29276614E+3	5.00000000E+0	6.02931149E+0	-8.49000000E+2	5.07205785E-1
46	10/05/2023	13:36:09.140	0.00000000E+0	-1.28648296E+3	5.00000000E+0	2.85358776E+0	-8.77000000E+2	4.31215539E-1
47	10/05/2023	13:36:10.705	0.00000000E+0	-1.28019977E+3	5.00000000E+0	1.87912647E+0	-8.94000000E+2	6.11974956E-1
48	10/05/2023	13:36:12.166	0.00000000E+0	-1.27391659E+3	5.00000000E+0	3.66046166E+0	-9.02000000E+2	5.74227028E-1
49	10/05/2023	13:36:13.682	0.00000000E+0	-1.26763340E+3	5.00000000E+0	3.33334025E+0	-9.07000000E+2	5.30832398E-1
50	10/05/2023	13:36:15.261	0.00000000E+0	-1.26135022E+3	5.00000000E+0	2.82597611E+0	-9.06000000E+2	4.29211137E-1
51	10/05/2023	13:36:16.731	0.00000000E+0	-1.25506703E+3	5.00000000E+0	6.90291355E-1	-9.05000000E+2	3.94569342E-1
52	10/05/2023	13:36:18.195	0.00000000E+0	-1.24878385E+3	5.00000000E+0	3.49862668E+0	-8.96000000E+2	4.08471547E-1
53	10/05/2023	13:36:19.785	0.00000000E+0	-1.24250066E+3	5.00000000E+0	5.80803476E+0	-8.79000000E+2	5.20430660E-1
54	10/05/2023	13:36:21.312	0.00000000E+0	-1.23621748E+3	5.00000000E+0	2.59702947E+0	-8.64000000E+2	3.57525584E-1
55	10/05/2023	13:36:22.854	0.00000000E+0	-1.22993429E+3	5.00000000E+0	7.98437000E-1	-8.49000000E+2	4.77516343E-1
56	10/05/2023	13:36:24.327	0.00000000E+0	-1.22365111E+3	5.00000000E+0	1.94662162E+0	-8.05000000E+2	3.88688944E-1
57	10/05/2023	13:36:25.811	0.00000000E+0	-1.21736792E+3	5.00000000E+0	4.47347147E+0	-8.07000000E+2	3.74781600E-1
58	10/05/2023	13:36:27.361	0.00000000E+0	-1.21108473E+3	5.00000000E+0	1.66245168E+0	-8.42000000E+2	4.68884618E-1
59	10/05/2023	13:36:28.833	0.00000000E+0	-1.20480155E+3	5.00000000E+0	4.34806854E+0	-8.84000000E+2	4.73036023E-1
60	10/05/2023	13:36:30.353	0.00000000E+0	-1.19851836E+3	5.00000000E+0	3.96495684E+0	-8.99000000E+2	5.68808265E-1
61	10/05/2023	13:36:31.778	0.00000000E+0	-1.19223518E+3	5.00000000E+0	3.72565584E+0	-9.06000000E+2	5.12140256E-1
62	10/05/2023	13:36:33.319	0.00000000E+0	-1.18595199E+3	5.00000000E+0	5.26653954E+0	-9.05000000E+2	4.59596853E-1
63	10/05/2023	13:36:34.778	0.00000000E+0	-1.17966881E+3	5.00000000E+0	3.70878205E+0	-9.02000000E+2	3.93392185E-1
64	10/05/2023	13:36:36.273	0.00000000E+0	-1.17338562E+3	5.00000000E+0	1.58268468E+0	-8.97000000E+2	5.08016648E-1
65	10/05/2023	13:36:37.776	0.00000000E+0	-1.16710244E+3	5.00000000E+0	3.63936942E-1	-8.69000000E+2	4.84886190E-1
66	10/05/2023	13:36:39.379	0.00000000E+0	-1.16081925E+3	5.00000000E+0	4.77528219E+0	-8.37000000E+2	4.95422682E-1
67	10/05/2023	13:36:40.849	0.00000000E+0	-1.15453607E+3	5.00000000E+0	3.99947141E+0	-7.95000000E+2	5.21289439E-1
68	10/05/2023	13:36:42.352	0.00000000E+0	-1.14825288E+3	5.00000000E+0	4.13292774E+0	-7.92000000E+2	5.39279533E-1
69	10/05/2023	13:36:43.825	0.00000000E+0	-1.14196970E+3	5.00000000E+0	3.31800044E+0	-8.29000000E+2	5.19807733E-1
70	10/05/2023	13:36:45.365	0.00000000E+0	-1.13568651E+3	5.00000000E+0	7.06398153E-1	-8.64000000E+2	4.08176767E-1
71	10/05/2023	13:36:46.934	0.00000000E+0	-1.12940333E+3	5.00000000E+0	1.79935946E+0	-8.87000000E+2	4.61733897E-1
72	10/05/2023	13:36:48.428	0.00000000E+0	-1.12312014E+3	5.00000000E+0	3.34331113E+0	-9.00000000E+2	6.02844685E-1
73	10/05/2023	13:36:49.932	0.00000000E+0	-1.11683696E+3	5.00000000E+0	1.14013122E+0	-9.05000000E+2	5.00771512E-1
74	10/05/2023	13:36:51.481	0.00000000E+0	-1.11055377E+3	5.00000000E+0	5.96335031E-1	-9.01000000E+2	4.49817496E-1
75	10/05/2023	13:36:53.008	0.00000000E+0	-1.10427058E+3	5.00000000E+0	5.60976774E+0	-9.00000000E+2	4.92809488E-1
76	10/05/2023	13:36:54.503	0.00000000E+0	-1.09798740E+3	5.00000000E+0	2.77727222E+0	-8.79000000E+2	4.72088860E-1
77	10/05/2023	13:36:55.969	0.00000000E+0	-1.09170421E+3	5.00000000E+0	4.97469970E+0	-8.46000000E+2	4.32314956E-1
78	10/05/2023	13:36:57.463	0.00000000E+0	-1.08542103E+3	5.00000000E+0	2.51304403E+0	-8.05000000E+2	5.01550832E-1
79	10/05/2023	13:36:59.040	0.00000000E+0	-1.07913784E+3	5.00000000E+0	8.11859332E-1	-7.76000000E+2	6.60711743E-1
80	10/05/2023	13:37:00.527	0.00000000E+0	-1.07285466E+3	5.00000000E+0	4.62686955E+0	-8.13000000E+2	4.66565835E-1
81	10/05/2023	13:37:02.003	0.00000000E+0	-1.06657147E+3	5.00000000E+0	3.53966067E+0	-8.59000000E+2	4.97018715E-1
82	10/05/2023	13:37:03.515	0.00000000E+0	-1.06028829E+3	5.00000000E+0	3.19259751E+0	-8.84000000E+2	4.43062668E-1
83	10/05/2023	13:37:04.996	0.00000000E+0	-1.05400510E+3	5.00000000E+0	4.94325309E-1	-9.01000000E+2	5.03148312E-1
84	10/05/2023	13:37:06.543	0.00000000E+0	-1.04772192E+3	5.00000000E+0	3.70763156E+0	-9.07000000E+2	5.55254024E-1
85	10/05/2023	13:37:08.020	0.00000000E+0	-1.04143873E+3	5.00000000E+0	5.70602504E+0	-9.08000000E+2	4.67888768E-1
86	10/05/2023	13:37:09.492	0.00000000E+0	-1.03515555E+3	5.00000000E+0	4.17396172E+0	-8.95000000E+2	3.75315319E-1
87	10/05/2023	13:37:11.080	0.00000000E+0	-1.02887236E+3	5.00000000E+0	2.24996632E+0	-8.78000000E+2	4.92410528E-1
88	10/05/2023	13:37:12.590	0.00000000E+0	-1.02258918E+3	5.00000000E+0	4.42246661E+0	-8.48000000E+2	4.42725286E-1
89	10/05/2023	13:37:14.048	0.00000000E+0	-1.01630599E+3	5.00000000E+0	4.64144237E+0	-8.01000000E+2	4.69743736E-1
90	10/05/2023	13:37:15.564	0.00000000E+0	-1.01002281E+3	5.00000000E+0	5.85136972E+0	-7.78000000E+2	3.47970748E-1
91	10/05/2023	13:37:17.026	0.00000000E+0	-1.00373962E+3	5.00000000E+0	5.01726766E+0	-8.20000000E+2	4.66528793E-1
92	10/05/2023	13:37:18.602	0.00000000E+0	-9.97456435E+2	5.00000000E+0	4.52831129E+0	-8.71000000E+2	4.61963285E-1
93	10/05/2023	13:37:20.036	0.00000000E+0	-9.91173249E+2	5.00000000E+0	5.11966088E-1	-8.94000000E+2	4.85680558E-1
94	10/05/2023	13:37:21.525	0.00000000E+0	-9.84890064E+2	5.00000000E+0	2.86394213E+0	-9.05000000E+2	5.12685549E-1
95	10/05/2023	13:37:23.105	0.00000000E+0	-9.78606879E+2	5.00000000E+0	6.08798625E+0	-9.05000000E+2	5.12264164E-1
96	10/05/2023	13:37:24.656	0.00000000E+0	-9.72323693E+2	5.00000000E+0	1.14703413E+0	-9.01000000E+2	4.77500714E-1
97	10/05/2023	13:37:26.206	0.00000000E+0	-9.66040508E+2	5.00000000E+0	4.75342297E+0	-8.84000000E+2	4.82298643E-1
98	10/05/2023	13:37:27.668	0.00000000E+0	-9.59757323E+2	5.00000000E+0	6.10639402E+0	-8.47000000E+2	4.62672913E-1
99	10/05/2023	13:37:29.148	0.00000000E+0	-9.53474137E+2	5.00000000E+0	5.73056873E+0	-7.99000000E+2	5.01683225E-1
100	10/05/2023	13:37:30.705	0.00000000E+0	-9.47190952E+2	5.00000000E+0	1.21414579E+0	-7.90000000E+2	5.30601521E-1
101	10/05/2023	13:37:32.191	0.00000000E+0	-9.40907767E+2	5.00000000E+0	4.10339861E-2	-8.41000000E+2	4.98917550E-1
102	10/05/2023	13:37:33.713	0.00000000E+0	-9.34624581E+2	5.00000000E+0	4.74882102E+0	-8.79000000E+2	4.59447945E-1
103	10/05/2023	13:37:35.200	0.00000000E+0	-9.28341396E+2	5.00000000E+0	5.33825314E+0	-9.01000000E+2	5.00401196E-1
104	10/05/2023	13:37:36.686	0.00000000E+0	-9.22058211E+2	5.00000000E+0	2.98551011E+0	-9.07000000E+2	5.81745363E-1
105	10/05/2023	13:37:38.275	0.00000000E+0	-9.15775026E+2	5.00000000E+0	4.02171413E+0	-9.05000000E+2	4.92362991E-1
106	10/05/2023	13:37:39.776	0.00000000E+0	-9.09491840E+2	5.00000000E+0	3.14734508E+0	-8.86000000E+2	5.20858549E-1
107	10/05/2023	13:37:41.251	0.00000000E+0	-9.03208655E+2	5.00000000E+0	1.92476239E+0	-8.65000000E+2	4.64386665E-1
108	10/05/2023	13:37:42.824	0.00000000E+0	-8.96925470E+2	5.00000000E+0	6.26055909E+0	-8.32000000E+2	5.00081222E-1
109	10/05/2023	13:37:44.295	0.00000000E+0	-8.90642284E+2	5.00000000E+0	4.08997628E+0	-7.83000000E+2	5.49687272E-1
110	10/05/2023	13:37:45.805	0.00000000E+0	-8.84359099E+2	5.00000000E+0	5.20211235E+0	-8.06000000E+2	4.77093399E-1
111	10/05/2023	13:37:47.268	0.00000000E+0	-8.78075914E+2	5.00000000E+0	3.38434511E+0	-8.68000000E+2	4.93199277E-1
112	10/05/2023	13:37:48.727	0.00000000E+0	-8.71792728E+2	5.00000000E+0	4.10876754E+0	-9.01000000E+2	4.96026010E-1
113	10/05/2023	13:37:50.367	0.00000000E+0	-8.65509543E+2	5.00000000E+0	5.49740365E+0	-9.07000000E+2	4.50359575E-1
114	10/05/2023	13:37:51.843	0.00000000E+0	-8.59226358E+2	5.00000000E+0	4.03935491E+0	-9.04000000E+2	5.05159919E-1
115	10/05/2023	13:37:53.339	0.00000000E+0	-8.52943172E+2	5.00000000E+0	2.63767996E+0	-9.10000000E+2	5.10825136E-1
116	10/05/2023	13:37:54.803	0.00000000E+0	-8.46659987E+2	5.00000000E+0	5.42070461E+0	-9.00000000E+2	5.01206680E-1
117	10/05/2023	13:37:56.323	0.00000000E+0	-8.40376802E+2	5.00000000E+0	1.21491278E+0	-8.84000000E+2	5.16410767E-1
118	10/05/2023	13:37:57.945	0.00000000E+0	-8.34093617E+2	5.00000000E+0	3.09940818E+0	-8.39000000E+2	5.16989190E-1
119	10/05/2023	13:37:59.393	0.00000000E+0	-8.27810431E+2	5.00000000E+0	9.71009839E-1	-8.29000000E+2	3.30363627E-1
120	10/05/2023	13:38:00.832	0.00000000E+0	-8.21527246E+2	5.00000000E+0	2.43135955E+0	-8.68000000E+2	4.44208687E-1
121	10/05/2023	13:38:02.404	0.00000000E+0	-8.15244061E+2	5.00000000E+0	4.37299573E+0	-8.94000000E+2	4.72276936E-1
122	10/05/2023	13:38:03.940	0.00000000E+0	-8.08960875E+2	5.00000000E+0	3.82344711E+0	-9.05000000E+2	5.04890359E-1
123	10/05/2023	13:38:05.544	0.00000000E+0	-8.02677690E+2	5.00000000E+0	8.56344775E-1	-9.07000000E+2	4.07765815E-1
124	10/05/2023	13:38:07.034	0.00000000E+0	-7.96394505E+2	5.00000000E+0	4.03206850E+0	-9.03000000E+2	4.98659875E-1
125	10/05/2023	13:38:08.533	0.00000000E+0	-7.90111319E+2	5.00000000E+0	4.89339871E-1	-8.79000000E+2	4.69681466E-1
126	10/05/2023	13:38:10.078	0.00000000E+0	-7.83828134E+2	5.00000000E+0	9.98237998E-1	-8.48000000E+2	4.18245204E-1
127	10/05/2023	13:38:11.535	0.00000000E+0	-7.77544949E+2	5.00000000E+0	2.68715085E+0	-8.09000000E+2	4.04434420E-1
128	10/05/2023	13:38:13.002	0.00000000E+0	-7.71261763E+2	5.00000000E+0	5.85597166E+0	-7.78000000E+2	4.98450247E-1
129	10/05/2023	13:38:14.608	0.00000000E+0	-7.64978578E+2	5.00000000E+0	6.27244744E+0	-8.13000000E+2	5.33733254E-1
130	10/05/2023	13:38:16.121	0.00000000E+0	-7.58695393E+2	5.00000000E+0	1.28892736E+0	-8.48000000E+2	5.05437214E-1
131	10/05/2023	13:38:17.705	0.00000000E+0	-7.52412208E+2	5.00000000E+0	1.92437890E+0	-8.81000000E+2	4.40364051E-1
132	10/05/2023	13:38:19.190	0.00000000E+0	-7.46129022E+2	5.00000000E+0	3.99448597E+0	-8.98000000E+2	5.63291129E-1
133	10/05/2023	13:38:20.627	0.00000000E+0	-7.39845837E+2	5.00000000E+0	7.32475826E-2	-9.07000000E+2	4.87986424E-1
134	10/05/2023	13:38:22.210	0.00000000E+0	-7.33562652E+2	5.00000000E+0	4.54365109E+0	-9.06000000E+2	4.37101371E-1
135	10/05/2023	13:38:23.729	0.00000000E+0	-7.27279466E+2	5.00000000E+0	3.30764607E+0	-8.96000000E+2	5.11811968E-1
136	10/05/2023	13:38:25.243	0.00000000E+0	-7.20996281E+2	5.00000000E+0	5.37123373E+0	-8.70000000E+2	5.01967458E-1
137	10/05/2023	13:38:26.738	0.00000000E+0	-7.14713096E+2	5.00000000E+0	2.64228191E-1	-8.14000000E+2	4.59391259E-1
138	10/05/2023	13:38:28.142	0.00000000E+0	-7.08429910E+2	5.00000000E+0	5.10853952E+0	-7.82000000E+2	6.73974586E-1
139	10/05/2023	13:38:29.751	0.00000000E+0	-7.02146725E+2	5.00000000E+0	6.66514652E-1	-8.22000000E+2	4.71633348E-1
140	10/05/2023	13:38:31.214	0.00000000E+0	-6.95863540E+2	5.00000000E+0	6.23946685E-1	-8.72000000E+2	4.81389283E-1
141	10/05/2023	13:38:32.718	0.00000000E+0	-6.89580354E+2	5.00000000E+0	3.77052478E+0	-9.01000000E+2	5.00392715E-1
142	10/05/2023	13:38:34.358	0.00000000E+0	-6.83297169E+2	5.00000000E+0	8.58645746E-1	-9.06000000E+2	4.90341005E-1
143	10/05/2023	13:38:35.930	0.00000000E+0	-6.77013984E+2	5.00000000E+0	2.13491776E+0	-9.02000000E+2	4.58477290E-1
144	10/05/2023	13:38:37.521	0.00000000E+0	-6.70730799E+2	5.00000000E+0	6.27781637E-1	-8.81000000E+2	4.82990388E-1
145	10/05/2023	13:38:39.009	0.00000000E+0	-6.64447613E+2	5.00000000E+0	2.81523824E+0	-8.44000000E+2	5.09664762E-1
146	10/05/2023	13:38:40.489	0.00000000E+0	-6.58164428E+2	5.00000000E+0	3.68922379E+0	-7.87000000E+2	4.83324205E-1
147	10/05/2023	13:38:42.249	0.00000000E+0	-6.51881243E+2	5.00000000E+0	5.83449593E+0	-8.15000000E+2	5.25212357E-1
148	10/05/2023	13:38:43.759	0.00000000E+0	-6.45598057E+2	5.00000000E+0	3.85412673E-1	-8.52000000E+2	4.91805577E-1
149	10/05/2023	13:38:45.254	0.00000000E+0	-6.39314872E+2	5.00000000E+0	3.53199076E+0	-8.90000000E+2	4.63908040E-1
150	10/05/2023	13:38:46.850	0.00000000E+0	-6.33031687E+2	5.00000000E+0	5.29300071E+0	-9.06000000E+2	4.80728999E-1
151	10/05/2023	13:38:48.340	0.00000000E+0	-6.26748501E+2	5.00000000E+0	2.32398089E+0	-9.08000000E+2	4.21806163E-1
152	10/05/2023	13:38:49.826	0.00000000E+0	-6.20465316E+2	5.00000000E+0	4.12372385E+0	-8.99000000E+2	4.98016419E-1
153	10/05/2023	13:38:51.320	0.00000000E+0	-6.14182131E+2	5.00000000E+0	1.29237881E+0	-8.71000000E+2	4.85801672E-1
154	10/05/2023	13:38:52.808	0.00000000E+0	-6.07898945E+2	5.00000000E+0	5.94072410E+0	-8.15000000E+2	4.81794722E-1
155	10/05/2023	13:38:54.375	0.00000000E+0	-6.01615760E+2	5.00000000E+0	1.37483028E+0	-7.80000000E+2	6.27684927E-1
156	10/05/2023	13:38:55.949	0.00000000E+0	-5.95332575E+2	5.00000000E+0	5.59020949E+0	-8.15000000E+2	4.71490288E-1
157	10/05/2023	13:38:57.510	0.00000000E+0	-5.89049390E+2	5.00000000E+0	3.97876267E+0	-8.65000000E+2	5.08049614E-1
158	10/05/2023	13:38:58.996	0.00000000E+0	-5.82766204E+2	5.00000000E+0	4.48229186E+0	-8.96000000E+2	4.73671079E-1
159	10/05/2023	13:39:00.493	0.00000000E+0	-5.76483019E+2	5.00000000E+0	1.08030597E+0	-9.05000000E+2	4.89219397E-1
160	10/05/2023	13:39:02.072	0.00000000E+0	-5.70199834E+2	5.00000000E+0	2.39185954E+0	-9.09000000E+2	4.74997325E-1
161	10/05/2023	13:39:03.540	0.00000000E+0	-5.63916648E+2	5.00000000E+0	1.22680114E+0	-8.90000000E+2	4.91547866E-1
162	10/05/2023	13:39:04.986	0.00000000E+0	-5.57633463E+2	5.00000000E+0	2.44094693E+0	-8.53000000E+2	4.71623772E-1
163	10/05/2023	13:39:06.535	0.00000000E+0	-5.51350278E+2	5.00000000E+0	4.22880154E+0	-7.90000000E+2	4.55364154E-1
164	10/05/2023	13:39:08.040	0.00000000E+0	-5.45067092E+2	5.00000000E+0	3.76208788E+0	-7.94000000E+2	4.57596585E-1
165	10/05/2023	13:39:09.624	0.00000000E+0	-5.38783907E+2	5.00000000E+0	4.75188899E+0	-8.67000000E+2	5.04932778E-1
166	10/05/2023	13:39:11.126	0.00000000E+0	-5.32500722E+2	5.00000000E+0	6.05845712E+0	-9.08000000E+2	4.67985773E-1
167	10/05/2023	13:39:12.611	0.00000000E+0	-5.26217536E+2	5.00000000E+0	2.59664598E+0	-9.03000000E+2	5.70445776E-1
168	10/05/2023	13:39:14.234	0.00000000E+0	-5.19934351E+2	5.00000000E+0	1.19420404E+0	-9.07000000E+2	4.62773625E-1
169	10/05/2023	13:39:15.745	0.00000000E+0	-5.13651166E+2	5.00000000E+0	5.47746190E+0	-9.13000000E+2	4.48833497E-1
170	10/05/2023	13:39:17.256	0.00000000E+0	-5.07367981E+2	5.00000000E+0	6.58077758E-1	-8.99000000E+2	3.62264972E-1
171	10/05/2023	13:39:18.751	0.00000000E+0	-5.01084795E+2	5.00000000E+0	3.64665583E+0	-8.94000000E+2	3.69965812E-1
172	10/05/2023	13:39:20.243	0.00000000E+0	-4.94801610E+2	5.00000000E+0	6.17043772E-1	-8.70000000E+2	4.85956967E-1
173	10/05/2023	13:39:21.821	0.00000000E+0	-4.88518425E+2	5.00000000E+0	4.60079188E+0	-8.14000000E+2	4.60633686E-1
174	10/05/2023	13:39:23.284	0.00000000E+0	-4.82235239E+2	5.00000000E+0	1.24060696E+0	-7.85000000E+2	5.47120658E-1
175	10/05/2023	13:39:24.777	0.00000000E+0	-4.75952054E+2	5.00000000E+0	2.16559738E+0	-8.32000000E+2	4.59413714E-1
176	10/05/2023	13:39:26.348	0.00000000E+0	-4.69668869E+2	5.00000000E+0	3.16805382E+0	-8.56000000E+2	4.28555954E-1
177	10/05/2023	13:39:27.818	0.00000000E+0	-4.63385683E+2	5.00000000E+0	3.18991305E+0	-8.74000000E+2	4.32963110E-1
178	10/05/2023	13:39:29.294	0.00000000E+0	-4.57102498E+2	5.00000000E+0	1.36524290E-1	-8.94000000E+2	4.63973905E-1
179	10/05/2023	13:39:30.763	0.00000000E+0	-4.50819313E+2	5.00000000E+0	1.44117495E+0	-9.07000000E+2	4.67805340E-1
180	10/05/2023	13:39:32.275	0.00000000E+0	-4.44536127E+2	5.00000000E+0	5.73670465E+0	-9.07000000E+2	5.97756165E-1
181	10/05/2023	13:39:33.840	0.00000000E+0	-4.38252942E+2	5.00000000E+0	1.12939336E+0	-9.08000000E+2	4.49691312E-1
182	10/05/2023	13:39:35.340	0.00000000E+0	-4.31969757E+2	5.00000000E+0	1.12133996E+0	-9.05000000E+2	4.10621611E-1
183	10/05/2023	13:39:36.844	0.00000000E+0	-4.25686572E+2	5.00000000E+0	5.82567554E+0	-8.87000000E+2	4.76907104E-1
184	10/05/2023	13:39:38.329	0.00000000E+0	-4.19403386E+2	5.00000000E+0	6.26669501E+0	-8.50000000E+2	4.71900214E-1
185	10/05/2023	13:39:39.844	0.00000000E+0	-4.13120201E+2	5.00000000E+0	2.25610224E+0	-8.00000000E+2	4.91920773E-1
186	10/05/2023	13:39:41.354	0.00000000E+0	-4.06837016E+2	5.00000000E+0	2.06895659E+0	-8.05000000E+2	4.92408235E-1
187	10/05/2023	13:39:42.845	0.00000000E+0	-4.00553830E+2	5.00000000E+0	4.47270448E+0	-8.65000000E+2	5.04203972E-1
188	10/05/2023	13:39:44.359	0.00000000E+0	-3.94270645E+2	5.00000000E+0	7.17136018E-1	-8.96000000E+2	4.73229956E-1
189	10/05/2023	13:39:45.941	0.00000000E+0	-3.87987460E+2	5.00000000E+0	1.66667013E+0	-9.07000000E+2	5.96325739E-1
190	10/05/2023	13:39:47.453	0.00000000E+0	-3.81704274E+2	5.00000000E+0	4.20234037E+0	-9.04000000E+2	4.93822044E-1
191	10/05/2023	13:39:48.983	0.00000000E+0	-3.75421089E+2	5.00000000E+0	4.27788892E+0	-8.86000000E+2	4.75301799E-1
192	10/05/2023	13:39:50.460	0.00000000E+0	-3.69137904E+2	5.00000000E+0	4.64182586E+0	-8.42000000E+2	4.80769836E-1
193	10/05/2023	13:39:51.920	0.00000000E+0	-3.62854718E+2	5.00000000E+0	1.14703413E+0	-7.81000000E+2	3.43338482E-1
194	10/05/2023	13:39:53.494	0.00000000E+0	-3.56571533E+2	5.00000000E+0	2.21775272E+0	-8.17000000E+2	4.90915711E-1
195	10/05/2023	13:39:54.974	0.00000000E+0	-3.50288348E+2	5.00000000E+0	3.13008780E+0	-8.75000000E+2	4.98170626E-1
196	10/05/2023	13:39:56.460	0.00000000E+0	-3.44005163E+2	5.00000000E+0	5.49702015E+0	-9.00000000E+2	5.01813978E-1
197	10/05/2023	13:39:58.025	0.00000000E+0	-3.37721977E+2	5.00000000E+0	5.18408807E+0	-9.08000000E+2	5.44351003E-1
198	10/05/2023	13:39:59.516	0.00000000E+0	-3.31438792E+2	5.00000000E+0	1.12440792E+0	-8.97000000E+2	4.99723814E-1
199	10/05/2023	13:40:01.048	0.00000000E+0	-3.25155607E+2	5.00000000E+0	3.64473835E+0	-8.61000000E+2	4.82397178E-1
200	10/05/2023	13:40:02.542	0.00000000E+0	-3.18872421E+2	5.00000000E+0	6.07187945E+0	-8.02000000E+2	4.85532123E-1
201	10/05/2023	13:40:04.022	0.00000000E+0	-3.12589236E+2	5.00000000E+0	1.41701475E+0	-7.97000000E+2	4.50884440E-1
202	10/05/2023	13:40:05.616	0.00000000E+0	-3.06306051E+2	5.00000000E+0	3.58107815E+0	-8.60000000E+2	4.86466412E-1
203	10/05/2023	13:40:07.108	0.00000000E+0	-3.00022865E+2	5.00000000E+0	8.00737971E-1	-8.96000000E+2	4.93432912E-1
204	10/05/2023	13:40:08.674	0.00000000E+0	-2.93739680E+2	5.00000000E+0	5.14267059E+0	-9.07000000E+2	5.62845002E-1
205	10/05/2023	13:40:10.180	0.00000000E+0	-2.87456495E+2	5.00000000E+0	4.30473359E+0	-9.05000000E+2	4.43663938E-1
206	10/05/2023	13:40:11.714	0.00000000E+0	-2.81173309E+2	5.00000000E+0	1.82850510E+0	-8.90000000E+2	5.18232156E-1
207	10/05/2023	13:40:13.295	0.00000000E+0	-2.74890124E+2	5.00000000E+0	5.64121435E-1	-8.55000000E+2	4.87862282E-1
208	10/05/2023	13:40:14.780	0.00000000E+0	-2.68606939E+2	5.00000000E+0	5.50890850E+0	-8.04000000E+2	4.60623218E-1
209	10/05/2023	13:40:16.266	0.00000000E+0	-2.62323754E+2	5.00000000E+0	5.44716578E+0	-7.81000000E+2	3.20394933E-1
210	10/05/2023	13:40:17.809	0.00000000E+0	-2.56040568E+2	5.00000000E+0	7.14451552E-1	-8.28000000E+2	4.78253827E-1
211	10/05/2023	13:40:19.304	0.00000000E+0	-2.49757383E+2	5.00000000E+0	5.49395219E+0	-8.86000000E+2	4.98513464E-1
212	10/05/2023	13:40:20.752	0.00000000E+0	-2.43474198E+2	5.00000000E+0	5.45598617E+0	-9.03000000E+2	5.00191819E-1
213	10/05/2023	13:40:22.217	0.00000000E+0	-2.37191012E+2	5.00000000E+0	1.93665074E-1	-9.07000000E+2	4.78074200E-1
214	10/05/2023	13:40:23.702	0.00000000E+0	-2.30907827E+2	5.00000000E+0	2.48006344E+0	-8.93000000E+2	4.58499268E-1
215	10/05/2023	13:40:25.310	0.00000000E+0	-2.24624642E+2	5.00000000E+0	4.85351521E+0	-8.45000000E+2	4.75050122E-1
216	10/05/2023	13:40:27.037	0.00000000E+0	-2.18341456E+2	5.00000000E+0	4.84124337E+0	-7.79000000E+2	3.80576153E-1
217	10/05/2023	13:40:28.680	0.00000000E+0	-2.12058271E+2	5.00000000E+0	2.17825272E-1	-8.13000000E+2	4.85491567E-1
218	10/05/2023	13:40:30.126	0.00000000E+0	-2.05775086E+2	5.00000000E+0	2.96595185E+0	-8.82000000E+2	5.02170471E-1
219	10/05/2023	13:40:31.659	0.00000000E+0	-1.99491900E+2	5.00000000E+0	1.68699537E+0	-9.07000000E+2	5.52595152E-1
220	10/05/2023	13:40:33.138	0.00000000E+0	-1.93208715E+2	5.00000000E+0	1.62678663E+0	-9.05000000E+2	4.38648871E-1
221	10/05/2023	13:40:34.659	0.00000000E+0	-1.86925530E+2	5.00000000E+0	4.51757342E-1	-9.06000000E+2	5.30038888E-1
222	10/05/2023	13:40:36.155	0.00000000E+0	-1.80642345E+2	5.00000000E+0	2.57747122E+0	-9.07000000E+2	4.53877151E-1
223	10/05/2023	13:40:37.736	0.00000000E+0	-1.74359159E+2	5.00000000E+0	1.29698076E+0	-9.01000000E+2	4.89087996E-1
224	10/05/2023	13:40:39.197	0.00000000E+0	-1.68075974E+2	5.00000000E+0	3.34599559E+0	-8.61000000E+2	4.86785185E-1
225	10/05/2023	13:40:40.756	0.00000000E+0	-1.61792789E+2	5.00000000E+0	3.22711208E+0	-8.17000000E+2	3.30578648E-1
226	10/05/2023	13:40:42.232	0.00000000E+0	-1.55509603E+2	5.00000000E+0	6.13208820E+0	-8.68000000E+2	4.85057342E-1
227	10/05/2023	13:40:43.691	0.00000000E+0	-1.49226418E+2	5.00000000E+0	4.04280637E+0	-8.99000000E+2	5.02963421E-1
228	10/05/2023	13:40:45.222	0.00000000E+0	-1.42943233E+2	5.00000000E+0	3.00353438E+0	-9.04000000E+2	4.72216128E-1
229	10/05/2023	13:40:46.673	0.00000000E+0	-1.36660047E+2	5.00000000E+0	7.41679711E-1	-9.05000000E+2	4.81890540E-1
230	10/05/2023	13:40:48.123	0.00000000E+0	-1.30376862E+2	5.00000000E+0	4.11068502E+0	-8.89000000E+2	4.92727121E-1
231	10/05/2023	13:40:49.738	0.00000000E+0	-1.24093677E+2	5.00000000E+0	6.20073384E+0	-8.36000000E+2	5.05926419E-1
232	10/05/2023	13:40:51.203	0.00000000E+0	-1.17810492E+2	5.00000000E+0	2.42368964E-1	-8.36000000E+2	4.88655770E-1
233	10/05/2023	13:40:52.797	0.00000000E+0	-1.11527306E+2	5.00000000E+0	1.54011671E+0	-8.88000000E+2	4.95485521E-1
234	10/05/2023	13:40:54.289	0.00000000E+0	-1.05244121E+2	5.00000000E+0	3.88710732E+0	-9.07000000E+2	4.98456386E-1
235	10/05/2023	13:40:55.810	0.00000000E+0	-9.89609356E+1	5.00000000E+0	2.56174792E+0	-9.07000000E+2	4.99752879E-1
236	10/05/2023	13:40:57.385	0.00000000E+0	-9.26777503E+1	5.00000000E+0	3.52738882E+0	-8.93000000E+2	4.73631348E-1
237	10/05/2023	13:40:58.872	0.00000000E+0	-8.63945650E+1	5.00000000E+0	2.98512661E+0	-8.35000000E+2	4.83686578E-1
238	10/05/2023	13:41:00.383	0.00000000E+0	-8.01113797E+1	5.00000000E+0	2.96786933E+0	-8.05000000E+2	4.73000886E-1
239	10/05/2023	13:41:01.853	0.00000000E+0	-7.38281943E+1	5.00000000E+0	4.55899090E+0	-8.90000000E+2	4.82303865E-1
240	10/05/2023	13:41:03.333	0.00000000E+0	-6.75450090E+1	5.00000000E+0	3.83073352E+0	-9.06000000E+2	4.99139503E-1
241	10/05/2023	13:41:04.922	0.00000000E+0	-6.12618237E+1	5.00000000E+0	3.45299075E+0	-8.97000000E+2	5.06573627E-1
242	10/05/2023	13:41:06.423	0.00000000E+0	-5.49786384E+1	5.00000000E+0	2.56481588E+0	-8.51000000E+2	4.77728367E-1
243	10/05/2023	13:41:07.875	0.00000000E+0	-4.86954531E+1	5.00000000E+0	5.12272884E+0	-7.81000000E+2	4.57141700E-1
244	10/05/2023	13:41:09.490	0.00000000E+0	-4.24122678E+1	5.00000000E+0	6.27589890E+0	-8.43000000E+2	4.79823983E-1
245	10/05/2023	13:41:10.988	0.00000000E+0	-3.61290825E+1	5.00000000E+0	3.93351024E+0	-8.98000000E+2	4.80435849E-1
246	10/05/2023	13:41:12.490	0.00000000E+0	-2.98458972E+1	5.00000000E+0	5.19559293E+0	-9.05000000E+2	4.71745996E-1
247	10/05/2023	13:41:13.965	0.00000000E+0	-2.35627119E+1	5.00000000E+0	5.95951536E-1	-8.95000000E+2	5.06844059E-1
248	10/05/2023	13:41:15.451	0.00000000E+0	-1.72795266E+1	5.00000000E+0	4.31125300E+0	-8.66000000E+2	4.71631518E-1
249	10/05/2023	13:41:17.026	0.00000000E+0	-1.09963413E+1	5.00000000E+0	4.95629193E+0	-7.94000000E+2	4.81392259E-1
250	10/05/2023	13:41:18.509	0.00000000E+0	-4.71315597E+0	5.00000000E+0	9.00830218E-1	-7.97000000E+2	4.86319164E-1
251	10/05/2023	13:41:19.993	0.00000000E+0	1.57002934E+0	5.00000000E+0	2.53145180E+0	-8.75000000E+2	4.77175578E-1
252	10/05/2023	13:41:21.453	0.00000000E+0	7.85321464E+0	5.00000000E+0	1.22680114E+0	-9.06000000E+2	5.58102341E-1
253	10/05/2023	13:41:23.006	0.00000000E+0	1.41364000E+1	5.00000000E+0	4.62380159E+0	-8.93000000E+2	4.74418083E-1
254	10/05/2023	13:41:24.587	0.00000000E+0	2.04195853E+1	5.00000000E+0	1.37291281E-1	-8.41000000E+2	4.83256966E-1
255	10/05/2023	13:41:26.083	0.00000000E+0	2.67027706E+1	5.00000000E+0	5.79844738E-1	-7.87000000E+2	2.75092945E-1
256	10/05/2023	13:41:27.556	0.00000000E+0	3.29859559E+1	5.00000000E+0	4.58085013E+0	-8.30000000E+2	4.64909701E-1
257	10/05/2023	13:41:29.164	0.00000000E+0	3.92691412E+1	5.00000000E+0	5.29990362E-1	-8.75000000E+2	4.61281857E-1
258	10/05/2023	13:41:30.661	0.00000000E+0	4.55523265E+1	5.00000000E+0	4.66713655E+0	-8.99000000E+2	5.23950884E-1
259	10/05/2023	13:41:32.615	0.00000000E+0	5.18355118E+1	5.00000000E+0	5.49548617E-1	-9.06000000E+2	5.43233976E-1
260	10/05/2023	13:41:34.091	0.00000000E+0	5.81186971E+1	5.00000000E+0	5.60593279E+0	-9.07000000E+2	4.74597667E-1
261	10/05/2023	13:41:35.555	0.00000000E+0	6.44018824E+1	5.00000000E+0	4.56282585E+0	-9.05000000E+2	3.95210479E-1
262	10/05/2023	13:41:37.153	0.00000000E+0	7.06850677E+1	5.00000000E+0	5.34323858E+0	-9.04000000E+2	5.00015355E-1
263	10/05/2023	13:41:38.639	0.00000000E+0	7.69682530E+1	5.00000000E+0	4.50606856E+0	-9.03000000E+2	3.89660806E-1
264	10/05/2023	13:41:40.138	0.00000000E+0	8.32514383E+1	5.00000000E+0	5.13883564E-1	-8.99000000E+2	5.07449973E-1
265	10/05/2023	13:41:41.720	0.00000000E+0	8.95346236E+1	5.00000000E+0	4.36647631E+0	-8.98000000E+2	4.34236356E-1
266	10/05/2023	13:41:43.226	0.00000000E+0	9.58178089E+1	5.00000000E+0	5.42300558E+0	-8.96000000E+2	3.53257974E-1
267	10/05/2023	13:41:44.687	0.00000000E+0	1.02100994E+2	5.00000000E+0	1.93626725E+0	-8.94000000E+2	3.81799979E-1
268	10/05/2023	13:41:46.206	0.00000000E+0	1.08384180E+2	5.00000000E+0	3.96840830E+0	-8.91000000E+2	3.82401416E-1
269	10/05/2023	13:41:47.678	0.00000000E+0	1.14667365E+2	5.00000000E+0	5.67457843E+0	-8.86000000E+2	3.13262583E-1
270	10/05/2023	13:41:49.246	0.00000000E+0	1.20950550E+2	5.00000000E+0	2.70440813E+0	-8.82000000E+2	3.79763161E-1
271	10/05/2023	13:41:50.724	0.00000000E+0	1.27233735E+2	5.00000000E+0	4.31393747E+0	-8.81000000E+2	4.56711700E-1
272	10/05/2023	13:41:52.269	0.00000000E+0	1.33516921E+2	5.00000000E+0	3.01158778E+0	-8.79000000E+2	4.01795355E-1
273	10/05/2023	13:41:53.767	0.00000000E+0	1.39800106E+2	5.00000000E+0	1.50905360E+0	-8.77000000E+2	3.99702807E-1
274	10/05/2023	13:41:55.243	0.00000000E+0	1.46083291E+2	5.00000000E+0	4.76837928E+0	-8.75000000E+2	3.89514637E-1
275	10/05/2023	13:41:56.758	0.00000000E+0	1.52366477E+2	5.00000000E+0	2.84591786E+0	-8.72000000E+2	3.88478567E-1
276	10/05/2023	13:41:58.261	0.00000000E+0	1.58649662E+2	5.00000000E+0	1.49754874E+0	-8.67000000E+2	3.24083172E-1
277	10/05/2023	13:41:59.720	0.00000000E+0	1.64932847E+2	5.00000000E+0	5.29491818E+0	-8.63000000E+2	3.47848163E-1
278	10/05/2023	13:42:01.319	0.00000000E+0	1.71216033E+2	5.00000000E+0	6.26094259E+0	-8.59000000E+2	3.13946714E-1
279	10/05/2023	13:42:02.786	0.00000000E+0	1.77499218E+2	5.00000000E+0	2.62770909E+0	-8.50000000E+2	2.85314887E-1
280	10/05/2023	13:42:04.257	0.00000000E+0	1.83782403E+2	5.00000000E+0	5.78119009E+0	-8.44000000E+2	3.21253554E-1
281	10/05/2023	13:42:05.727	0.00000000E+0	1.90065589E+2	5.00000000E+0	5.41456869E+0	-8.35000000E+2	2.97327258E-1
282	10/05/2023	13:42:07.216	0.00000000E+0	1.96348774E+2	5.00000000E+0	3.97837917E+0	-8.29000000E+2	3.65979117E-1
283	10/05/2023	13:42:08.807	0.00000000E+0	2.02631959E+2	5.00000000E+0	2.31362652E+0	-8.22000000E+2	2.74384380E-1
284	10/05/2023	13:42:10.298	0.00000000E+0	2.08915144E+2	5.00000000E+0	2.59511200E+0	-8.17000000E+2	2.89123489E-1
285	10/05/2023	13:42:11.788	0.00000000E+0	2.15198330E+2	5.00000000E+0	1.04655839E+0	-8.08000000E+2	3.26096764E-1
286	10/05/2023	13:42:13.316	0.00000000E+0	2.21481515E+2	5.00000000E+0	4.78563656E+0	-8.02000000E+2	2.85299737E-1
287	10/05/2023	13:42:14.826	0.00000000E+0	2.27764700E+2	5.00000000E+0	2.82482562E+0	-7.96000000E+2	2.85247968E-1
288	10/05/2023	13:42:16.365	0.00000000E+0	2.34047886E+2	5.00000000E+0	1.55814099E+0	-7.88000000E+2	2.76316854E-1
289	10/05/2023	13:42:17.859	0.00000000E+0	2.40331071E+2	5.00000000E+0	2.91264602E+0	-7.81000000E+2	2.75755562E-1
290	10/05/2023	13:42:19.363	0.00000000E+0	2.46614256E+2	5.00000000E+0	5.84254933E+0	-7.89000000E+2	6.71017433E-1
291	10/05/2023	13:42:20.923	0.00000000E+0	2.52897442E+2	5.00000000E+0	4.99924339E+0	-7.97000000E+2	6.71367879E-1
292	10/05/2023	13:42:22.402	0.00000000E+0	2.59180627E+2	5.00000000E+0	4.92062687E+0	-8.04000000E+2	6.55076118E-1
293	10/05/2023	13:42:23.928	0.00000000E+0	2.65463812E+2	5.00000000E+0	9.16937016E-1	-8.17000000E+2	5.46434559E-1
294	10/05/2023	13:42:25.394	0.00000000E+0	2.71746998E+2	5.00000000E+0	6.00783576E+0	-8.25000000E+2	6.59287520E-1
295	10/05/2023	13:42:26.870	0.00000000E+0	2.78030183E+2	5.00000000E+0	3.34944705E+0	-8.30000000E+2	5.70845924E-1
296	10/05/2023	13:42:28.428	0.00000000E+0	2.84313368E+2	5.00000000E+0	1.25402929E-1	-8.43000000E+2	6.26154192E-1
297	10/05/2023	13:42:29.907	0.00000000E+0	2.90596553E+2	5.00000000E+0	5.35781140E+0	-8.48000000E+2	5.31356453E-1
298	10/05/2023	13:42:31.373	0.00000000E+0	2.96879739E+2	5.00000000E+0	4.77988414E+0	-8.52000000E+2	6.03669318E-1
299	10/05/2023	13:42:32.929	0.00000000E+0	3.03162924E+2	5.00000000E+0	4.64834528E+0	-8.55000000E+2	6.32140449E-1
300	10/05/2023	13:42:34.452	0.00000000E+0	3.09446109E+2	5.00000000E+0	4.99770941E+0	-8.57000000E+2	6.25360999E-1
301	10/05/2023	13:42:36.028	0.00000000E+0	3.15729295E+2	5.00000000E+0	4.58583557E+0	-8.61000000E+2	5.08614309E-1
302	10/05/2023	13:42:37.516	0.00000000E+0	3.22012480E+2	5.00000000E+0	2.46318965E+0	-8.63000000E+2	6.24923918E-1
303	10/05/2023	13:42:39.004	0.00000000E+0	3.28295665E+2	5.00000000E+0	3.05032080E+0	-8.68000000E+2	6.62309540E-1
304	10/05/2023	13:42:40.611	0.00000000E+0	3.34578851E+2	5.00000000E+0	1.68431091E+0	-8.73000000E+2	6.65684331E-1
305	10/05/2023	13:42:42.097	0.00000000E+0	3.40862036E+2	5.00000000E+0	5.75894737E+0	-8.79000000E+2	5.73332278E-1
306	10/05/2023	13:42:43.571	0.00000000E+0	3.47145221E+2	5.00000000E+0	3.71108302E+0	-8.81000000E+2	5.93755282E-1
307	10/05/2023	13:42:45.057	0.00000000E+0	3.53428407E+2	5.00000000E+0	4.89569968E+0	-8.84000000E+2	6.52010905E-1
308	10/05/2023	13:42:46.534	0.00000000E+0	3.59711592E+2	5.00000000E+0	2.62157317E+0	-8.89000000E+2	6.07981805E-1
309	10/05/2023	13:42:48.098	0.00000000E+0	3.65994777E+2	5.00000000E+0	4.25104426E+0	-8.92000000E+2	5.77942347E-1
310	10/05/2023	13:42:49.576	0.00000000E+0	3.72277962E+2	5.00000000E+0	1.46265068E+0	-8.94000000E+2	6.10410990E-1
311	10/05/2023	13:42:51.057	0.00000000E+0	3.78561148E+2	5.00000000E+0	2.07125756E+0	-8.96000000E+2	5.72307587E-1
312	10/05/2023	13:42:52.639	0.00000000E+0	3.84844333E+2	5.00000000E+0	2.06972358E+0	-8.98000000E+2	5.51606578E-1
313	10/05/2023	13:42:54.135	0.00000000E+0	3.91127518E+2	5.00000000E+0	6.03851537E+0	-9.01000000E+2	5.52843565E-1
314	10/05/2023	13:42:55.697	0.00000000E+0	3.97410704E+2	5.00000000E+0	1.56887885E+0	-9.03000000E+2	5.76174923E-1
315	10/05/2023	13:42:57.166	0.00000000E+0	4.03693889E+2	5.00000000E+0	3.46449561E+0	-9.04000000E+2	4.97614687E-1
316	10/05/2023	13:42:58.616	0.00000000E+0	4.09977074E+2	5.00000000E+0	3.45529172E+0	-9.05000000E+2	5.42440823E-1
317	10/05/2023	13:43:00.201	0.00000000E+0	4.16260260E+2	5.00000000E+0	4.90106862E-1	-9.06000000E+2	5.26450489E-1
318	10/05/2023	13:43:01.663	0.00000000E+0	4.22543445E+2	5.00000000E+0	1.63752449E-1	-9.06000000E+2	5.04545409E-1
319	10/05/2023	13:43:03.141	0.00000000E+0	4.28826630E+2	5.00000000E+0	2.16291291E+0	-9.06000000E+2	4.61811911E-1
320	10/05/2023	13:43:04.579	0.00000000E+0	4.35109816E+2	5.00000000E+0	4.17166075E+0	-9.05000000E+2	4.46924781E-1
321	10/05/2023	13:43:06.077	0.00000000E+0	4.41393001E+2	5.00000000E+0	1.19228657E+0	-9.02000000E+2	4.03054664E-1
322	10/05/2023	13:43:07.627	0.00000000E+0	4.47676186E+2	5.00000000E+0	2.35274303E+0	-8.99000000E+2	4.74319158E-1
323	10/05/2023	13:43:09.103	0.00000000E+0	4.53959371E+2	5.00000000E+0	4.49878216E+0	-8.97000000E+2	3.72564592E-1
324	10/05/2023	13:43:10.595	0.00000000E+0	4.60242557E+2	5.00000000E+0	6.18386005E+0	-8.94000000E+2	4.01759721E-1
325	10/05/2023	13:43:12.176	0.00000000E+0	4.66525742E+2	5.00000000E+0	1.26400017E+0	-8.89000000E+2	3.50165373E-1
326	10/05/2023	13:43:13.651	0.00000000E+0	4.72808927E+2	5.00000000E+0	3.40620434E+0	-8.87000000E+2	3.88157721E-1
327	10/05/2023	13:43:15.175	0.00000000E+0	4.79092113E+2	5.00000000E+0	5.16184535E-1	-8.84000000E+2	3.65624133E-1
328	10/05/2023	13:43:16.655	0.00000000E+0	4.85375298E+2	5.00000000E+0	2.42522363E+0	-8.81000000E+2	3.79833248E-1
329	10/05/2023	13:43:18.133	0.00000000E+0	4.91658483E+2	5.00000000E+0	5.93727264E+0	-8.78000000E+2	4.11037192E-1
330	10/05/2023	13:43:19.663	0.00000000E+0	4.97941669E+2	5.00000000E+0	3.58568009E-1	-8.75000000E+2	3.64431052E-1
331	10/05/2023	13:43:21.125	0.00000000E+0	5.04224854E+2	5.00000000E+0	6.09757363E+0	-8.72000000E+2	2.94707190E-1
332	10/05/2023	13:43:22.599	0.00000000E+0	5.10508039E+2	5.00000000E+0	3.31339850E+0	-8.67000000E+2	3.16836792E-1
333	10/05/2023	13:43:24.178	0.00000000E+0	5.16791225E+2	5.00000000E+0	4.63607344E+0	-8.63000000E+2	3.25075238E-1
334	10/05/2023	13:43:25.645	0.00000000E+0	5.23074410E+2	5.00000000E+0	3.23554898E+0	-8.57000000E+2	3.37361180E-1
335	10/05/2023	13:43:27.194	0.00000000E+0	5.29357595E+2	5.00000000E+0	3.05147128E+0	-8.52000000E+2	3.38901786E-1
336	10/05/2023	13:43:28.640	0.00000000E+0	5.35640780E+2	5.00000000E+0	2.26914108E+0	-8.44000000E+2	2.94952617E-1
337	10/05/2023	13:43:30.156	0.00000000E+0	5.41923966E+2	5.00000000E+0	1.59188856E+0	-8.36000000E+2	2.88526344E-1
338	10/05/2023	13:43:31.721	0.00000000E+0	5.48207151E+2	5.00000000E+0	4.86118512E+0	-8.29000000E+2	3.23728108E-1
339	10/05/2023	13:43:33.205	0.00000000E+0	5.54490336E+2	5.00000000E+0	2.38917508E+0	-8.21000000E+2	2.77995427E-1
340	10/05/2023	13:43:34.703	0.00000000E+0	5.60773522E+2	5.00000000E+0	1.61029633E+0	-8.13000000E+2	3.14125478E-1
341	10/05/2023	13:43:36.229	0.00000000E+0	5.67056707E+2	5.00000000E+0	3.10746158E+0	-8.05000000E+2	2.99841134E-1
342	10/05/2023	13:43:37.707	0.00000000E+0	5.73339892E+2	5.00000000E+0	4.14328211E+0	-7.99000000E+2	2.82568726E-1
343	10/05/2023	13:43:39.300	0.00000000E+0	5.79623078E+2	5.00000000E+0	1.46034971E+0	-7.87000000E+2	3.47478173E-1
344	10/05/2023	13:43:40.752	0.00000000E+0	5.85906263E+2	5.00000000E+0	4.19160250E+0	-7.84000000E+2	6.07429481E-1
345	10/05/2023	13:43:42.222	0.00000000E+0	5.92189448E+2	5.00000000E+0	1.79092257E-1	-7.92000000E+2	6.56311832E-1
346	10/05/2023	13:43:43.799	0.00000000E+0	5.98472634E+2	5.00000000E+0	1.38211669E+0	-8.00000000E+2	6.60609206E-1
347	10/05/2023	13:43:45.273	0.00000000E+0	6.04755819E+2	5.00000000E+0	4.43972390E+0	-8.08000000E+2	5.14109497E-1
348	10/05/2023	13:43:46.767	0.00000000E+0	6.11039004E+2	5.00000000E+0	2.48044693E+0	-8.18000000E+2	5.83259356E-1
349	10/05/2023	13:43:48.275	0.00000000E+0	6.17322189E+2	5.00000000E+0	4.82283560E+0	-8.25000000E+2	6.76601993E-1
350	10/05/2023	13:43:49.737	0.00000000E+0	6.23605375E+2	5.00000000E+0	4.18585007E+0	-8.32000000E+2	4.86581415E-1
351	10/05/2023	13:43:51.336	0.00000000E+0	6.29888560E+2	5.00000000E+0	6.25749113E+0	-8.44000000E+2	6.10210378E-1
352	10/05/2023	13:43:52.815	0.00000000E+0	6.36171745E+2	5.00000000E+0	5.79537942E+0	-8.51000000E+2	6.71493858E-1
353	10/05/2023	13:43:54.280	0.00000000E+0	6.42454931E+2	5.00000000E+0	5.24391332E+0	-8.55000000E+2	6.72644132E-1
354	10/05/2023	13:43:55.745	0.00000000E+0	6.48738116E+2	5.00000000E+0	3.85911217E+0	-8.62000000E+2	6.27342436E-1
355	10/05/2023	13:43:57.238	0.00000000E+0	6.55021301E+2	5.00000000E+0	2.53451976E+0	-8.66000000E+2	6.70731231E-1
356	10/05/2023	13:43:58.680	0.00000000E+0	6.61304487E+2	5.00000000E+0	1.90520414E+0	-8.72000000E+2	6.41288936E-1
357	10/05/2023	13:44:00.158	0.00000000E+0	6.67587672E+2	5.00000000E+0	3.14542761E+0	-8.79000000E+2	6.08167804E-1
358	10/05/2023	13:44:01.644	0.00000000E+0	6.73870857E+2	5.00000000E+0	5.45905413E+0	-8.84000000E+2	6.47140472E-1
359	10/05/2023	13:44:03.214	0.00000000E+0	6.80154043E+2	5.00000000E+0	5.86670952E+0	-8.90000000E+2	6.17608183E-1
360	10/05/2023	13:44:04.666	0.00000000E+0	6.86437228E+2	5.00000000E+0	5.78962699E+0	-8.93000000E+2	6.21652528E-1
361	10/05/2023	13:44:06.202	0.00000000E+0	6.92720413E+2	5.00000000E+0	1.49524777E+0	-8.97000000E+2	5.43743451E-1
362	10/05/2023	13:44:07.715	0.00000000E+0	6.99003598E+2	5.00000000E+0	1.82236918E+0	-8.99000000E+2	5.37300441E-1
363	10/05/2023	13:44:09.219	0.00000000E+0	7.05286784E+2	5.00000000E+0	2.45436926E-2	-9.02000000E+2	5.51569074E-1
364	10/05/2023	13:44:10.784	0.00000000E+0	7.11569969E+2	5.00000000E+0	6.59611739E-1	-9.03000000E+2	5.18420758E-1
365	10/05/2023	13:44:12.262	0.00000000E+0	7.17853154E+2	5.00000000E+0	1.96848085E+0	-9.04000000E+2	5.14583968E-1
366	10/05/2023	13:44:13.761	0.00000000E+0	7.24136340E+2	5.00000000E+0	2.97515574E+0	-9.07000000E+2	5.21484024E-1
367	10/05/2023	13:44:15.325	0.00000000E+0	7.30419525E+2	5.00000000E+0	4.26983552E+0	-9.06000000E+2	5.21652998E-1
368	10/05/2023	13:44:16.795	0.00000000E+0	7.36702710E+2	5.00000000E+0	3.23669946E-1	-9.05000000E+2	4.34428097E-1
369	10/05/2023	13:44:18.299	0.00000000E+0	7.42985896E+2	5.00000000E+0	4.49954915E+0	-9.07000000E+2	4.29394800E-1
370	10/05/2023	13:44:19.776	0.00000000E+0	7.49269081E+2	5.00000000E+0	1.15048559E-1	-9.06000000E+2	4.32657045E-1
371	10/05/2023	13:44:21.297	0.00000000E+0	7.55552266E+2	5.00000000E+0	5.54188909E+0	-9.05000000E+2	3.96591046E-1
372	10/05/2023	13:44:22.868	0.00000000E+0	7.61835452E+2	5.00000000E+0	9.76378771E-1	-9.02000000E+2	3.74713451E-1
373	10/05/2023	13:44:24.334	0.00000000E+0	7.68118637E+2	5.00000000E+0	3.30956355E+0	-8.99000000E+2	3.48020682E-1
374	10/05/2023	13:44:25.833	0.00000000E+0	7.74401822E+2	5.00000000E+0	5.86325807E+0	-8.97000000E+2	3.26949862E-1
375	10/05/2023	13:44:27.306	0.00000000E+0	7.80685007E+2	5.00000000E+0	3.76132089E+0	-8.96000000E+2	5.65659287E-1
376	10/05/2023	13:44:28.765	0.00000000E+0	7.86968193E+2	5.00000000E+0	1.67203906E+0	-8.97000000E+2	5.77980207E-1
377	10/05/2023	13:44:30.339	0.00000000E+0	7.93251378E+2	5.00000000E+0	1.52170894E+0	-9.00000000E+2	5.65673008E-1
378	10/05/2023	13:44:31.817	0.00000000E+0	7.99534563E+2	5.00000000E+0	2.71783046E+0	-9.02000000E+2	5.36614094E-1
379	10/05/2023	13:44:33.312	0.00000000E+0	8.05817749E+2	5.00000000E+0	2.60201491E+0	-9.04000000E+2	5.39042487E-1
380	10/05/2023	13:44:34.904	0.00000000E+0	8.12100934E+2	5.00000000E+0	2.12187892E+0	-9.06000000E+2	5.02610351E-1
381	10/05/2023	13:44:36.379	0.00000000E+0	8.18384119E+2	5.00000000E+0	3.46487910E+0	-9.06000000E+2	4.11353279E-1
382	10/05/2023	13:44:37.929	0.00000000E+0	8.24667305E+2	5.00000000E+0	1.96196143E+0	-8.96000000E+2	3.63739031E-1
383	10/05/2023	13:44:39.408	0.00000000E+0	8.30950490E+2	5.00000000E+0	3.49785969E+0	-9.06000000E+2	5.12377389E-1
384	10/05/2023	13:44:40.880	0.00000000E+0	8.37233675E+2	5.00000000E+0	2.33548575E+0	-9.01000000E+2	4.90017036E-1
385	10/05/2023	13:44:42.484	0.00000000E+0	8.43516860E+2	5.00000000E+0	6.32000085E-1	-8.99000000E+2	5.44931031E-1
386	10/05/2023	13:44:43.972	0.00000000E+0	8.49800046E+2	5.00000000E+0	2.99241302E+0	-9.08000000E+2	4.80881953E-1
387	10/05/2023	13:44:45.446	0.00000000E+0	8.56083231E+2	5.00000000E+0	2.56673335E+0	-9.04000000E+2	4.74869564E-1
388	10/05/2023	13:44:46.929	0.00000000E+0	8.62366416E+2	5.00000000E+0	2.30250516E+0	-8.91000000E+2	5.33638355E-1
389	10/05/2023	13:44:48.410	0.00000000E+0	8.68649602E+2	5.00000000E+0	1.66667013E+0	-8.56000000E+2	5.27086959E-1
390	10/05/2023	13:44:49.850	0.00000000E+0	8.74932787E+2	5.00000000E+0	6.73417566E-1	-8.88000000E+2	4.75813333E-1
391	10/05/2023	13:44:51.311	0.00000000E+0	8.81215972E+2	5.00000000E+0	1.74260218E+0	-8.93000000E+2	5.21605419E-1
392	10/05/2023	13:44:52.789	0.00000000E+0	8.87499158E+2	5.00000000E+0	1.07110209E+0	-8.74000000E+2	4.07326066E-1
393	10/05/2023	13:44:54.384	0.00000000E+0	8.93782343E+2	5.00000000E+0	3.97952966E+0	-8.74000000E+2	5.97222201E-1
394	10/05/2023	13:44:55.856	0.00000000E+0	9.00065528E+2	5.00000000E+0	3.70302962E+0	-8.85000000E+2	4.69533492E-1
395	10/05/2023	13:44:57.487	0.00000000E+0	9.06348714E+2	5.00000000E+0	6.28203482E+0	-9.01000000E+2	5.92555931E-1
396	10/05/2023	13:44:59.010	0.00000000E+0	9.12631899E+2	5.00000000E+0	5.24391332E+0	-9.03000000E+2	4.15017214E-1
397	10/05/2023	13:45:00.452	0.00000000E+0	9.18915084E+2	5.00000000E+0	3.92967528E+0	-8.94000000E+2	5.10012045E-1
398	10/05/2023	13:45:02.016	0.00000000E+0	9.25198269E+2	5.00000000E+0	4.43320448E-1	-8.71000000E+2	4.57284493E-1
399	10/05/2023	13:45:03.488	0.00000000E+0	9.31481455E+2	5.00000000E+0	2.70977706E+0	-8.32000000E+2	5.02078233E-1
400	10/05/2023	13:45:04.994	0.00000000E+0	9.37764640E+2	5.00000000E+0	4.63645693E-1	-8.32000000E+2	5.12953513E-1
401	10/05/2023	13:45:06.564	0.00000000E+0	9.44047825E+2	5.00000000E+0	5.15954438E+0	-8.83000000E+2	4.88124444E-1
402	10/05/2023	13:45:08.042	0.00000000E+0	9.50331011E+2	5.00000000E+0	5.33441819E+0	-9.05000000E+2	5.06366980E-1
403	10/05/2023	13:45:09.512	0.00000000E+0	9.56614196E+2	5.00000000E+0	4.44432584E+0	-9.07000000E+2	4.54160814E-1
404	10/05/2023	13:45:11.009	0.00000000E+0	9.62897381E+2	5.00000000E+0	3.82843255E+0	-9.02000000E+2	4.10310161E-1
405	10/05/2023	13:45:12.521	0.00000000E+0	9.69180567E+2	5.00000000E+0	1.27243706E+0	-8.96000000E+2	4.59751073E-1
406	10/05/2023	13:45:14.064	0.00000000E+0	9.75463752E+2	5.00000000E+0	3.42422861E+0	-8.79000000E+2	4.56467149E-1
407	10/05/2023	13:45:15.540	0.00000000E+0	9.81746937E+2	5.00000000E+0	1.62832061E+0	-8.46000000E+2	4.21884016E-1
408	10/05/2023	13:45:17.102	0.00000000E+0	9.88030123E+2	5.00000000E+0	4.95552494E+0	-8.01000000E+2	5.06847364E-1
409	10/05/2023	13:45:18.631	0.00000000E+0	9.94313308E+2	5.00000000E+0	4.35267049E-1	-7.89000000E+2	4.07470544E-1
410	10/05/2023	13:45:20.105	0.00000000E+0	1.00059649E+3	5.00000000E+0	2.47354402E-1	-8.24000000E+2	4.80065789E-1
411	10/05/2023	13:45:21.677	0.00000000E+0	1.00687968E+3	5.00000000E+0	4.72351034E+0	-8.74000000E+2	4.82874018E-1
412	10/05/2023	13:45:23.168	0.00000000E+0	1.01316286E+3	5.00000000E+0	5.39424344E+0	-9.01000000E+2	5.16922714E-1
413	10/05/2023	13:45:24.637	0.00000000E+0	1.01944605E+3	5.00000000E+0	1.94048570E-1	-9.05000000E+2	4.75309147E-1
414	10/05/2023	13:45:26.244	0.00000000E+0	1.02572923E+3	5.00000000E+0	4.90682105E+0	-9.06000000E+2	4.69998419E-1
415	10/05/2023	13:45:27.707	0.00000000E+0	1.03201242E+3	5.00000000E+0	2.60048093E+0	-9.11000000E+2	4.05026454E-1
416	10/05/2023	13:45:29.201	0.00000000E+0	1.03829561E+3	5.00000000E+0	5.75971436E+0	-8.98000000E+2	3.59310737E-1
417	10/05/2023	13:45:30.679	0.00000000E+0	1.04457879E+3	5.00000000E+0	6.23639889E+0	-8.90000000E+2	3.83456510E-1
418	10/05/2023	13:45:32.194	0.00000000E+0	1.05086198E+3	5.00000000E+0	1.19267006E-1	-8.80000000E+2	5.17271393E-1
419	10/05/2023	13:45:33.754	0.00000000E+0	1.05714516E+3	5.00000000E+0	1.21031084E+0	-8.53000000E+2	5.85545792E-1
420	10/05/2023	13:45:35.225	0.00000000E+0	1.06342835E+3	5.00000000E+0	1.70118469E+0	-8.20000000E+2	5.16733269E-1
421	10/05/2023	13:45:36.691	0.00000000E+0	1.06971153E+3	5.00000000E+0	3.06796158E+0	-7.85000000E+2	6.20488342E-1
422	10/05/2023	13:45:38.169	0.00000000E+0	1.07599472E+3	5.00000000E+0	2.52646636E+0	-7.93000000E+2	5.75415479E-1
423	10/05/2023	13:45:39.618	0.00000000E+0	1.08227790E+3	5.00000000E+0	3.67465098E+0	-8.31000000E+2	5.20325801E-1
424	10/05/2023	13:45:41.194	0.00000000E+0	1.08856109E+3	5.00000000E+0	4.92177736E+0	-8.77000000E+2	4.82131795E-1
425	10/05/2023	13:45:42.666	0.00000000E+0	1.09484427E+3	5.00000000E+0	8.36786520E-1	-8.99000000E+2	5.60804327E-1
426	10/05/2023	13:45:44.178	0.00000000E+0	1.10112746E+3	5.00000000E+0	3.18761208E+0	-9.05000000E+2	5.74782644E-1
427	10/05/2023	13:45:45.778	0.00000000E+0	1.10741064E+3	5.00000000E+0	6.41970960E-1	-9.05000000E+2	4.49351022E-1
428	10/05/2023	13:45:47.274	0.00000000E+0	1.11369383E+3	5.00000000E+0	5.05638417E+0	-9.06000000E+2	4.49533220E-1
429	10/05/2023	13:45:48.796	0.00000000E+0	1.11997701E+3	5.00000000E+0	1.42200019E+0	-9.08000000E+2	3.95851018E-1
430	10/05/2023	13:45:50.287	0.00000000E+0	1.12626020E+3	5.00000000E+0	4.23455396E+0	-9.00000000E+2	4.99957285E-1
431	10/05/2023	13:45:51.751	0.00000000E+0	1.13254338E+3	5.00000000E+0	1.55392254E+0	-8.72000000E+2	4.71213375E-1
432	10/05/2023	13:45:53.297	0.00000000E+0	1.13882657E+3	5.00000000E+0	3.74214613E+0	-8.41000000E+2	4.38905812E-1
433	10/05/2023	13:45:54.785	0.00000000E+0	1.14510976E+3	5.00000000E+0	2.64688385E+0	-7.97000000E+2	3.93845697E-1
434	10/05/2023	13:45:56.303	0.00000000E+0	1.15139294E+3	5.00000000E+0	3.90091314E+0	-7.84000000E+2	5.39284031E-1
435	10/05/2023	13:45:57.845	0.00000000E+0	1.15767613E+3	5.00000000E+0	1.63215556E+0	-7.89000000E+2	4.48153308E-1
436	10/05/2023	13:45:59.331	0.00000000E+0	1.16395931E+3	5.00000000E+0	5.41111723E-1	-8.35000000E+2	4.76248839E-1
437	10/05/2023	13:46:00.867	0.00000000E+0	1.17024250E+3	5.00000000E+0	1.68776236E+0	-8.73000000E+2	5.40877781E-1
438	10/05/2023	13:46:02.337	0.00000000E+0	1.17652568E+3	5.00000000E+0	3.16498586E+0	-8.83000000E+2	6.77024909E-1
439	10/05/2023	13:46:03.829	0.00000000E+0	1.18280887E+3	5.00000000E+0	4.69168024E+0	-8.92000000E+2	6.25373950E-1
440	10/05/2023	13:46:05.411	0.00000000E+0	1.18909205E+3	5.00000000E+0	1.87337404E+0	-8.97000000E+2	6.04956733E-1
441	10/05/2023	13:46:06.894	0.00000000E+0	1.19537524E+3	5.00000000E+0	1.96042745E+0	-9.01000000E+2	5.72849402E-1
442	10/05/2023	13:46:08.483	0.00000000E+0	1.20165842E+3	5.00000000E+0	5.20096186E+0	-9.07000000E+2	5.07080927E-1
443	10/05/2023	13:46:10.092	0.00000000E+0	1.20794161E+3	5.00000000E+0	4.28594232E+0	-9.04000000E+2	4.37649048E-1
444	10/05/2023	13:46:11.581	0.00000000E+0	1.21422479E+3	5.00000000E+0	4.34960252E+0	-8.92000000E+2	4.71570253E-1
445	10/05/2023	13:46:13.112	0.00000000E+0	1.22050798E+3	5.00000000E+0	1.53091283E+0	-8.36000000E+2	4.68697794E-1
446	10/05/2023	13:46:14.608	0.00000000E+0	1.22679116E+3	5.00000000E+0	3.71606846E-1	-8.02000000E+2	5.61633515E-1
447	10/05/2023	13:46:16.105	0.00000000E+0	1.23307435E+3	5.00000000E+0	3.91280149E+0	-8.64000000E+2	4.86146832E-1
448	10/05/2023	13:46:17.696	0.00000000E+0	1.23935753E+3	5.00000000E+0	4.39408797E+0	-9.05000000E+2	4.82577746E-1
449	10/05/2023	13:46:19.196	0.00000000E+0	1.24564072E+3	5.00000000E+0	5.05753466E+0	-9.04000000E+2	4.80993325E-1
450	10/05/2023	13:46:20.667	0.00000000E+0	1.25192391E+3	5.00000000E+0	4.67327247E+0	-9.04000000E+2	4.54682011E-1
451	10/05/2023	13:46:22.148	0.00000000E+0	1.25820709E+3	5.00000000E+0	2.22503913E+0	-8.99000000E+2	4.82522413E-1
452	10/05/2023	13:46:23.641	0.00000000E+0	1.26449028E+3	5.00000000E+0	3.15233052E+0	-8.71000000E+2	4.85609622E-1
453	10/05/2023	13:46:25.205	0.00000000E+0	1.27077346E+3	5.00000000E+0	2.59434501E+0	-7.93000000E+2	4.65112148E-1
454	10/05/2023	13:46:26.682	0.00000000E+0	1.27705665E+3	5.00000000E+0	6.15087946E+0	-7.72000000E+2	4.18220558E-1
455	10/05/2023	13:46:28.200	0.00000000E+0	1.28333983E+3	5.00000000E+0	5.87322894E+0	-8.44000000E+2	4.92320584E-1
456	10/05/2023	13:46:29.671	0.00000000E+0	1.28962302E+3	5.00000000E+0	3.30572860E+0	-8.96000000E+2	4.67677866E-1
457	10/05/2023	13:46:31.134	0.00000000E+0	1.29590620E+3	5.00000000E+0	3.53927717E+0	-9.05000000E+2	4.76479227E-1
458	10/05/2023	13:46:32.742	0.00000000E+0	1.30218939E+3	5.00000000E+0	4.25219474E+0	-9.05000000E+2	5.22082260E-1
459	10/05/2023	13:46:34.244	0.00000000E+0	1.30847257E+3	5.00000000E+0	3.18339363E+0	-9.04000000E+2	4.80723662E-1
460	10/05/2023	13:46:35.695	0.00000000E+0	1.31475576E+3	5.00000000E+0	2.84553436E+0	-8.98000000E+2	4.86647876E-1
461	10/05/2023	13:46:37.278	0.00000000E+0	1.32103894E+3	5.00000000E+0	1.84959733E+0	-8.58000000E+2	4.81685580E-1
462	10/05/2023	13:46:38.748	0.00000000E+0	1.32732213E+3	5.00000000E+0	2.63077705E+0	-8.05000000E+2	2.72011939E-1
463	10/05/2023	13:46:40.275	0.00000000E+0	1.33360531E+3	5.00000000E+0	1.06419917E+0	-8.69000000E+2	4.77482805E-1
464	10/05/2023	13:46:41.760	0.00000000E+0	1.33988850E+3	5.00000000E+0	5.09895214E+0	-8.98000000E+2	5.61864113E-1
465	10/05/2023	13:46:43.241	0.00000000E+0	1.34617169E+3	5.00000000E+0	2.56558287E+0	-8.84000000E+2	4.77790236E-1
466	10/05/2023	13:46:44.779	0.00000000E+0	1.35245487E+3	5.00000000E+0	5.50085511E+0	-8.28000000E+2	4.71437773E-1
467	10/05/2023	13:46:46.303	0.00000000E+0	1.35873806E+3	5.00000000E+0	3.59910242E+0	-7.90000000E+2	4.13987367E-1
468	10/05/2023	13:46:47.782	0.00000000E+0	1.36502124E+3	5.00000000E+0	2.39684498E-1	-8.19000000E+2	5.39253386E-1
469	10/05/2023	13:46:49.331	0.00000000E+0	1.37130443E+3	5.00000000E+0	4.03667044E+0	-8.63000000E+2	4.52213127E-1
470	10/05/2023	13:46:50.809	0.00000000E+0	1.37758761E+3	5.00000000E+0	2.35734498E+0	-8.85000000E+2	4.58961634E-1
471	10/05/2023	13:46:52.290	0.00000000E+0	1.38387080E+3	5.00000000E+0	4.75188899E+0	-8.73000000E+2	5.57069400E-1
472	10/05/2023	13:46:53.767	0.00000000E+0	1.39015398E+3	5.00000000E+0	3.42729658E+0	-8.57000000E+2	4.63129411E-1
473	10/05/2023	13:46:55.250	0.00000000E+0	1.39643717E+3	5.00000000E+0	4.23723843E+0	-8.39000000E+2	4.28197134E-1
474	10/05/2023	13:46:56.787	0.00000000E+0	1.40272035E+3	5.00000000E+0	4.85888415E-1	-7.90000000E+2	5.12114192E-1
475	10/05/2023	13:46:58.260	0.00000000E+0	1.40900354E+3	5.00000000E+0	5.60861726E+0	-7.35000000E+2	4.31229702E-1
476	10/05/2023	13:46:59.750	0.00000000E+0	1.41528672E+3	5.00000000E+0	3.08253439E+0	-6.75000000E+2	5.50673647E-1
477	10/05/2023	13:47:01.330	0.00000000E+0	1.42156991E+3	5.00000000E+0	4.12564133E+0	-7.04000000E+2	4.59588987E-1
478	10/05/2023	13:47:02.790	0.00000000E+0	1.42785309E+3	5.00000000E+0	4.57164624E+0	-7.95000000E+2	4.69096852E-1
479	10/05/2023	13:47:04.300	0.00000000E+0	1.43413628E+3	5.00000000E+0	8.66699145E-1	-8.56000000E+2	4.94671136E-1
480	10/05/2023	13:47:05.794	0.00000000E+0	1.44041946E+3	5.00000000E+0	3.71415098E+0	-8.91000000E+2	4.63540124E-1
481	10/05/2023	13:47:07.277	0.00000000E+0	1.44670265E+3	5.00000000E+0	8.60179727E-1	-8.99000000E+2	5.84303387E-1
482	10/05/2023	13:47:08.837	0.00000000E+0	1.45298584E+3	5.00000000E+0	4.47845691E+0	-8.99000000E+2	3.55767181E-1
483	10/05/2023	13:47:10.319	0.00000000E+0	1.45926902E+3	5.00000000E+0	5.85942311E+0	-8.96000000E+2	4.16420707E-1
484	10/05/2023	13:47:11.797	0.00000000E+0	1.46555221E+3	5.00000000E+0	5.13346671E+0	-8.92000000E+2	5.43433031E-1
485	10/05/2023	13:47:13.283	0.00000000E+0	1.47183539E+3	5.00000000E+0	6.15394743E+0	-8.62000000E+2	4.52204478E-1
486	10/05/2023	13:47:14.837	0.00000000E+0	1.47811858E+3	5.00000000E+0	5.60976774E+0	-8.39000000E+2	4.20446743E-1
487	10/05/2023	13:47:16.416	0.00000000E+0	1.48440176E+3	5.00000000E+0	4.48689380E+0	-8.06000000E+2	5.29330156E-1
488	10/05/2023	13:47:17.888	0.00000000E+0	1.49068495E+3	5.00000000E+0	1.54433516E+0	-7.92000000E+2	6.13201512E-1
489	10/05/2023	13:47:19.404	0.00000000E+0	1.49696813E+3	5.00000000E+0	2.22810709E-1	-7.94000000E+2	4.83113677E-1
490	10/05/2023	13:47:20.886	0.00000000E+0	1.50325132E+3	5.00000000E+0	5.28226284E+0	-7.93000000E+2	4.26056634E-1
491	10/05/2023	13:47:22.374	0.00000000E+0	1.50953450E+3	5.00000000E+0	1.88104394E+0	-7.81000000E+2	3.99922292E-1
492	10/05/2023	13:47:23.950	0.00000000E+0	1.51581769E+3	5.00000000E+0	7.12150581E-1	-7.90000000E+2	6.61833115E-1
493	10/05/2023	13:47:25.473	0.00000000E+0	1.52210087E+3	5.00000000E+0	5.59404444E+0	-8.01000000E+2	6.41061768E-1
494	10/05/2023	13:47:26.952	0.00000000E+0	1.52838406E+3	5.00000000E+0	5.17411720E+0	-8.13000000E+2	5.58594068E-1
495	10/05/2023	13:47:28.513	0.00000000E+0	1.53466724E+3	5.00000000E+0	3.33065579E+0	-8.21000000E+2	6.33086639E-1
496	10/05/2023	13:47:29.994	0.00000000E+0	1.54095043E+3	5.00000000E+0	1.88142744E+0	-8.32000000E+2	4.67594750E-1
497	10/05/2023	13:47:31.530	0.00000000E+0	1.54723361E+3	5.00000000E+0	8.70917592E-1	-8.47000000E+2	6.54242270E-1
498	10/05/2023	13:47:32.988	0.00000000E+0	1.55351680E+3	5.00000000E+0	1.06611665E-1	-8.52000000E+2	6.52038574E-1
499	10/05/2023	13:47:34.493	0.00000000E+0	1.55979999E+3	5.00000000E+0	4.56090838E+0	-8.62000000E+2	6.26110825E-1
500	10/05/2023	13:47:36.056	0.00000000E+0	1.56608317E+3	5.00000000E+0	3.73294225E+0	-8.72000000E+2	5.96301990E-1
