#Iteration	Date	Time	STSX	STSY	RotationRateX	RotationRateY	FrCntX	FrCntY	TiptiltCmd1	TiptiltCmd2	TiptiltMonitor1	TiptiltMonitor2
1	10/05/2023	13:35:01.104	0.00000E+0	0.00000E+0	-1.65726E-1	-4.28763E-2	0.00000E+0	0.00000E+0	1.95200E+1	1.35000E+1	1.95178E+1	1.35014E+1
2	10/05/2023	13:35:02.591	0.00000E+0	0.00000E+0	-3.36612E-1	-9.79695E-2	0.00000E+0	0.00000E+0	1.95200E+1	1.35000E+1	1.95209E+1	1.35007E+1
3	10/05/2023	13:35:04.113	0.00000E+0	0.00000E+0	5.69261E+0	8.27657E+0	0.00000E+0	0.00000E+0	1.95200E+1	1.35000E+1	1.95181E+1	1.34990E+1
4	10/05/2023	13:35:05.575	0.00000E+0	0.00000E+0	3.65659E+1	3.66846E+1	0.00000E+0	0.00000E+0	1.95200E+1	1.35000E+1	1.95186E+1	1.34993E+1
5	10/05/2023	13:35:07.016	0.00000E+0	0.00000E+0	2.97609E+1	3.03069E+1	0.00000E+0	0.00000E+0	1.95200E+1	1.35000E+1	1.95197E+1	1.34978E+1
6	10/05/2023	13:35:08.588	0.00000E+0	0.00000E+0	3.82406E+1	3.81117E+1	0.00000E+0	0.00000E+0	1.95200E+1	1.35000E+1	1.95176E+1	1.34984E+1
7	10/05/2023	13:35:10.075	0.00000E+0	0.00000E+0	3.57298E+1	3.66468E+1	0.00000E+0	0.00000E+0	1.95200E+1	1.35000E+1	1.95194E+1	1.35008E+1
8	10/05/2023	13:35:11.564	0.00000E+0	0.00000E+0	2.18838E+1	2.11333E+1	0.00000E+0	0.00000E+0	1.95200E+1	1.35000E+1	1.95185E+1	1.34993E+1
9	10/05/2023	13:35:13.026	0.00000E+0	0.00000E+0	1.49071E+1	1.44771E+1	0.00000E+0	0.00000E+0	1.95200E+1	1.35000E+1	1.95177E+1	1.35006E+1
10	10/05/2023	13:35:14.491	0.00000E+0	0.00000E+0	-5.96145E+0	-9.85522E+0	0.00000E+0	0.00000E+0	1.95200E+1	1.35000E+1	1.95193E+1	1.34994E+1
11	10/05/2023	13:35:16.155	0.00000E+0	0.00000E+0	-3.01232E+1	-3.08608E+1	0.00000E+0	0.00000E+0	1.95200E+1	1.35000E+1	1.95194E+1	1.35002E+1
12	10/05/2023	13:35:17.621	0.00000E+0	0.00000E+0	-5.22313E+1	-5.65150E+1	0.00000E+0	0.00000E+0	1.95200E+1	1.35000E+1	1.95180E+1	1.34987E+1
13	10/05/2023	13:35:19.223	0.00000E+0	0.00000E+0	-3.60582E+1	-3.75441E+1	0.00000E+0	0.00000E+0	1.95200E+1	1.35000E+1	1.95182E+1	1.35011E+1
14	10/05/2023	13:35:20.729	0.00000E+0	0.00000E+0	-4.38001E+1	-4.80585E+1	0.00000E+0	0.00000E+0	1.95200E+1	1.35000E+1	1.95181E+1	1.34982E+1
15	10/05/2023	13:35:22.246	0.00000E+0	0.00000E+0	-1.96642E+1	-2.10833E+1	0.00000E+0	0.00000E+0	1.95200E+1	1.35000E+1	1.95190E+1	1.34970E+1
16	10/05/2023	13:35:23.774	0.00000E+0	0.00000E+0	-2.37490E+1	-2.47048E+1	0.00000E+0	0.00000E+0	1.95200E+1	1.35000E+1	1.95199E+1	1.35027E+1
17	10/05/2023	13:35:25.243	0.00000E+0	0.00000E+0	-3.21966E+0	3.79492E+0	0.00000E+0	0.00000E+0	1.95200E+1	1.35000E+1	1.95229E+1	1.34997E+1
18	10/05/2023	13:35:26.707	0.00000E+0	0.00000E+0	4.00386E+1	3.83628E+1	0.00000E+0	0.00000E+0	1.95200E+1	1.35000E+1	1.95192E+1	1.35000E+1
19	10/05/2023	13:35:28.333	0.00000E+0	0.00000E+0	3.42791E+1	3.30117E+1	0.00000E+0	0.00000E+0	1.95200E+1	1.35000E+1	1.95202E+1	1.34995E+1
20	10/05/2023	13:35:29.825	0.00000E+0	0.00000E+0	3.09830E+1	3.41430E+1	0.00000E+0	0.00000E+0	1.95200E+1	1.35000E+1	1.95222E+1	1.35010E+1
21	10/05/2023	13:35:31.358	0.00000E+0	0.00000E+0	2.43666E+1	2.58597E+1	0.00000E+0	0.00000E+0	1.95200E+1	1.35000E+1	1.95201E+1	1.34999E+1
22	10/05/2023	13:35:32.821	0.00000E+0	0.00000E+0	2.07322E+1	2.14177E+1	0.00000E+0	0.00000E+0	1.95200E+1	1.35000E+1	1.95202E+1	1.35006E+1
23	10/05/2023	13:35:34.324	0.00000E+0	0.00000E+0	3.36275E+1	3.56786E+1	0.00000E+0	0.00000E+0	1.95200E+1	1.35000E+1	1.95208E+1	1.35013E+1
24	10/05/2023	13:35:36.029	0.00000E+0	0.00000E+0	2.63906E+1	2.78337E+1	0.00000E+0	0.00000E+0	1.95200E+1	1.35000E+1	1.95183E+1	1.34975E+1
25	10/05/2023	13:35:37.523	0.00000E+0	0.00000E+0	2.49961E+1	2.54970E+1	0.00000E+0	0.00000E+0	1.95200E+1	1.35000E+1	1.95197E+1	1.35030E+1
26	10/05/2023	13:35:38.988	0.00000E+0	0.00000E+0	-2.48794E+1	-2.51462E+1	0.00000E+0	0.00000E+0	1.95200E+1	1.35000E+1	1.95201E+1	1.35021E+1
27	10/05/2023	13:35:40.441	0.00000E+0	0.00000E+0	-3.54374E+1	-3.77870E+1	0.00000E+0	0.00000E+0	1.95200E+1	1.35000E+1	1.95210E+1	1.35000E+1
28	10/05/2023	13:35:41.918	0.00000E+0	0.00000E+0	-4.66735E+1	-4.92057E+1	0.00000E+0	0.00000E+0	1.95200E+1	1.35000E+1	1.95178E+1	1.34988E+1
29	10/05/2023	13:35:43.493	0.00000E+0	0.00000E+0	-3.21786E+1	-3.17615E+1	0.00000E+0	0.00000E+0	1.95200E+1	1.35000E+1	1.95202E+1	1.35007E+1
30	10/05/2023	13:35:44.983	0.00000E+0	0.00000E+0	-1.92795E+1	-2.06319E+1	0.00000E+0	0.00000E+0	1.95200E+1	1.35000E+1	1.95210E+1	1.35006E+1
31	10/05/2023	13:35:46.420	0.00000E+0	0.00000E+0	-3.80411E+1	-3.75620E+1	0.00000E+0	0.00000E+0	1.95200E+1	1.35000E+1	1.95201E+1	1.35014E+1
32	10/05/2023	13:35:48.004	0.00000E+0	0.00000E+0	-3.45459E+1	-3.22905E+1	0.00000E+0	0.00000E+0	1.95200E+1	1.35000E+1	1.95209E+1	1.35004E+1
33	10/05/2023	13:35:49.501	0.00000E+0	0.00000E+0	-3.92671E+1	-3.83136E+1	0.00000E+0	0.00000E+0	1.95200E+1	1.35000E+1	1.95191E+1	1.34981E+1
34	10/05/2023	13:35:50.983	0.00000E+0	0.00000E+0	2.41622E+1	2.59861E+1	0.00000E+0	0.00000E+0	1.95200E+1	1.35000E+1	1.95217E+1	1.34995E+1
35	10/05/2023	13:35:52.458	0.00000E+0	0.00000E+0	3.09929E+1	3.15733E+1	0.00000E+0	0.00000E+0	1.95200E+1	1.35000E+1	1.95217E+1	1.35009E+1
36	10/05/2023	13:35:53.923	0.00000E+0	0.00000E+0	1.47692E+1	1.41106E+1	0.00000E+0	0.00000E+0	1.95200E+1	1.35000E+1	1.95200E+1	1.35013E+1
37	10/05/2023	13:35:55.524	0.00000E+0	0.00000E+0	1.84418E+1	1.58775E+1	0.00000E+0	0.00000E+0	1.95200E+1	1.35000E+1	1.95211E+1	1.34999E+1
38	10/05/2023	13:35:57.014	0.00000E+0	0.00000E+0	4.12287E+1	4.29045E+1	0.00000E+0	0.00000E+0	1.95200E+1	1.35000E+1	1.95216E+1	1.35000E+1
39	10/05/2023	13:35:58.486	0.00000E+0	0.00000E+0	4.29463E+1	4.42679E+1	0.00000E+0	0.00000E+0	1.95200E+1	1.35000E+1	1.95190E+1	1.34988E+1
40	10/05/2023	13:36:00.035	0.00000E+0	0.00000E+0	5.00483E+1	5.09593E+1	0.00000E+0	0.00000E+0	1.95200E+1	1.35000E+1	1.95174E+1	1.34989E+1
41	10/05/2023	13:36:01.510	0.00000E+0	0.00000E+0	3.33219E+1	3.40483E+1	0.00000E+0	0.00000E+0	1.95200E+1	1.35000E+1	1.95197E+1	1.35012E+1
42	10/05/2023	13:36:03.112	0.00000E+0	0.00000E+0	-1.78154E+0	-4.42112E+0	0.00000E+0	0.00000E+0	1.95200E+1	1.35000E+1	1.95200E+1	1.34972E+1
43	10/05/2023	13:36:04.620	0.00000E+0	0.00000E+0	-2.31102E+1	-2.33162E+1	0.00000E+0	0.00000E+0	1.95200E+1	1.35000E+1	1.95199E+1	1.34971E+1
44	10/05/2023	13:36:06.089	0.00000E+0	0.00000E+0	-3.02745E+1	-3.03357E+1	0.00000E+0	0.00000E+0	1.95200E+1	1.35000E+1	1.95173E+1	1.35006E+1
45	10/05/2023	13:36:07.662	0.00000E+0	0.00000E+0	-5.76773E+1	-5.91227E+1	0.00000E+0	0.00000E+0	1.95200E+1	1.35000E+1	1.95224E+1	1.34999E+1
46	10/05/2023	13:36:09.140	0.00000E+0	0.00000E+0	-4.94799E+1	-4.98328E+1	0.00000E+0	0.00000E+0	1.95200E+1	1.35000E+1	1.95199E+1	1.35002E+1
47	10/05/2023	13:36:10.705	0.00000E+0	0.00000E+0	-2.76212E+1	-2.83846E+1	0.00000E+0	0.00000E+0	1.95200E+1	1.35000E+1	1.95234E+1	1.35000E+1
48	10/05/2023	13:36:12.166	0.00000E+0	0.00000E+0	-3.87284E+1	-3.58233E+1	0.00000E+0	0.00000E+0	1.95200E+1	1.35000E+1	1.95187E+1	1.35004E+1
49	10/05/2023	13:36:13.682	0.00000E+0	0.00000E+0	-3.48552E+1	-3.44830E+1	0.00000E+0	0.00000E+0	1.95200E+1	1.35000E+1	1.95195E+1	1.35015E+1
50	10/05/2023	13:36:15.261	0.00000E+0	0.00000E+0	1.63975E+1	1.61042E+1	0.00000E+0	0.00000E+0	1.95200E+1	1.35000E+1	1.95184E+1	1.35009E+1
51	10/05/2023	13:36:16.731	0.00000E+0	0.00000E+0	3.16463E+1	3.09582E+1	0.00000E+0	0.00000E+0	1.95200E+1	1.35000E+1	1.95195E+1	1.34972E+1
52	10/05/2023	13:36:18.195	0.00000E+0	0.00000E+0	3.52550E+1	3.50709E+1	0.00000E+0	0.00000E+0	1.95200E+1	1.35000E+1	1.95199E+1	1.35013E+1
53	10/05/2023	13:36:19.785	0.00000E+0	0.00000E+0	4.91754E+1	4.81723E+1	0.00000E+0	0.00000E+0	1.95200E+1	1.35000E+1	1.95200E+1	1.34979E+1
54	10/05/2023	13:36:21.312	0.00000E+0	0.00000E+0	1.89314E+1	1.91906E+1	0.00000E+0	0.00000E+0	1.95200E+1	1.35000E+1	1.95195E+1	1.35002E+1
55	10/05/2023	13:36:22.854	0.00000E+0	0.00000E+0	4.66615E+1	5.06149E+1	0.00000E+0	0.00000E+0	1.95200E+1	1.35000E+1	1.95198E+1	1.34997E+1
56	10/05/2023	13:36:24.327	0.00000E+0	0.00000E+0	3.34698E+1	3.15192E+1	0.00000E+0	0.00000E+0	1.95200E+1	1.35000E+1	1.95184E+1	1.35003E+1
57	10/05/2023	13:36:25.811	0.00000E+0	0.00000E+0	-3.22823E+1	-3.80339E+1	0.00000E+0	0.00000E+0	1.95200E+1	1.35000E+1	1.95194E+1	1.35000E+1
58	10/05/2023	13:36:27.361	0.00000E+0	0.00000E+0	-8.29846E+1	-8.84589E+1	0.00000E+0	0.00000E+0	1.95200E+1	1.35000E+1	1.95198E+1	1.35012E+1
59	10/05/2023	13:36:28.833	0.00000E+0	0.00000E+0	-5.27076E+1	-5.47551E+1	0.00000E+0	0.00000E+0	1.95200E+1	1.35000E+1	1.95187E+1	1.34984E+1
60	10/05/2023	13:36:30.353	0.00000E+0	0.00000E+0	-3.64736E+1	-3.69574E+1	0.00000E+0	0.00000E+0	1.95200E+1	1.35000E+1	1.95221E+1	1.34998E+1
61	10/05/2023	13:36:31.778	0.00000E+0	0.00000E+0	-3.66715E+1	-3.84183E+1	0.00000E+0	0.00000E+0	1.95200E+1	1.35000E+1	1.95191E+1	1.34985E+1
62	10/05/2023	13:36:33.319	0.00000E+0	0.00000E+0	2.37889E+1	2.58911E+1	0.00000E+0	0.00000E+0	1.95200E+1	1.35000E+1	1.95195E+1	1.35003E+1
63	10/05/2023	13:36:34.778	0.00000E+0	0.00000E+0	3.06767E+1	3.29908E+1	0.00000E+0	0.00000E+0	1.95200E+1	1.35000E+1	1.95197E+1	1.35000E+1
64	10/05/2023	13:36:36.273	0.00000E+0	0.00000E+0	4.53567E+1	4.60748E+1	0.00000E+0	0.00000E+0	1.95200E+1	1.35000E+1	1.95176E+1	1.35018E+1
65	10/05/2023	13:36:37.776	0.00000E+0	0.00000E+0	5.29145E+1	5.44781E+1	0.00000E+0	0.00000E+0	1.95200E+1	1.35000E+1	1.95200E+1	1.35024E+1
66	10/05/2023	13:36:39.379	0.00000E+0	0.00000E+0	5.90881E+1	6.21884E+1	0.00000E+0	0.00000E+0	1.95200E+1	1.35000E+1	1.95209E+1	1.34996E+1
67	10/05/2023	13:36:40.849	0.00000E+0	0.00000E+0	4.69482E+1	4.76614E+1	0.00000E+0	0.00000E+0	1.95200E+1	1.35000E+1	1.95215E+1	1.35021E+1
68	10/05/2023	13:36:42.352	0.00000E+0	0.00000E+0	-4.41087E+1	-4.62953E+1	0.00000E+0	0.00000E+0	1.95200E+1	1.35000E+1	1.95175E+1	1.34992E+1
69	10/05/2023	13:36:43.825	0.00000E+0	0.00000E+0	-4.81465E+1	-4.84771E+1	0.00000E+0	0.00000E+0	1.95200E+1	1.35000E+1	1.95198E+1	1.34998E+1
70	10/05/2023	13:36:45.365	0.00000E+0	0.00000E+0	-4.10004E+1	-4.13220E+1	0.00000E+0	0.00000E+0	1.95200E+1	1.35000E+1	1.95196E+1	1.35013E+1
71	10/05/2023	13:36:46.934	0.00000E+0	0.00000E+0	-5.09463E+1	-5.16710E+1	0.00000E+0	0.00000E+0	1.95200E+1	1.35000E+1	1.95189E+1	1.35005E+1
72	10/05/2023	13:36:48.428	0.00000E+0	0.00000E+0	-3.06630E+1	-3.26085E+1	0.00000E+0	0.00000E+0	1.95200E+1	1.35000E+1	1.95214E+1	1.35000E+1
73	10/05/2023	13:36:49.932	0.00000E+0	0.00000E+0	-4.93908E+1	-5.04376E+1	0.00000E+0	0.00000E+0	1.95200E+1	1.35000E+1	1.95202E+1	1.35010E+1
74	10/05/2023	13:36:51.481	0.00000E+0	0.00000E+0	5.39628E+1	5.30011E+1	0.00000E+0	0.00000E+0	1.95200E+1	1.35000E+1	1.95206E+1	1.34980E+1
75	10/05/2023	13:36:53.008	0.00000E+0	0.00000E+0	4.61946E+1	4.25224E+1	0.00000E+0	0.00000E+0	1.95200E+1	1.35000E+1	1.95188E+1	1.34998E+1
76	10/05/2023	13:36:54.503	0.00000E+0	0.00000E+0	5.41034E+1	5.46348E+1	0.00000E+0	0.00000E+0	1.95200E+1	1.35000E+1	1.95206E+1	1.34983E+1
77	10/05/2023	13:36:55.969	0.00000E+0	0.00000E+0	4.32389E+1	4.29696E+1	0.00000E+0	0.00000E+0	1.95200E+1	1.35000E+1	1.95226E+1	1.34969E+1
78	10/05/2023	13:36:57.463	0.00000E+0	0.00000E+0	4.66720E+1	4.87158E+1	0.00000E+0	0.00000E+0	1.95200E+1	1.35000E+1	1.95222E+1	1.34998E+1
79	10/05/2023	13:36:59.040	0.00000E+0	0.00000E+0	-9.66334E+0	-1.17220E+1	0.00000E+0	0.00000E+0	1.95200E+1	1.35000E+1	1.95191E+1	1.34974E+1
80	10/05/2023	13:37:00.527	0.00000E+0	0.00000E+0	-6.47850E+1	-6.50244E+1	0.00000E+0	0.00000E+0	1.95200E+1	1.35000E+1	1.95210E+1	1.35026E+1
81	10/05/2023	13:37:02.003	0.00000E+0	0.00000E+0	-5.85959E+1	-5.81503E+1	0.00000E+0	0.00000E+0	1.95200E+1	1.35000E+1	1.95204E+1	1.34984E+1
82	10/05/2023	13:37:03.515	0.00000E+0	0.00000E+0	-5.25698E+1	-5.47715E+1	0.00000E+0	0.00000E+0	1.95200E+1	1.35000E+1	1.95188E+1	1.34990E+1
83	10/05/2023	13:37:04.996	0.00000E+0	0.00000E+0	-6.81260E+1	-6.76965E+1	0.00000E+0	0.00000E+0	1.95200E+1	1.35000E+1	1.95210E+1	1.35024E+1
84	10/05/2023	13:37:06.543	0.00000E+0	0.00000E+0	6.82410E+0	1.24192E+1	0.00000E+0	0.00000E+0	1.95200E+1	1.35000E+1	1.95202E+1	1.35012E+1
85	10/05/2023	13:37:08.020	0.00000E+0	0.00000E+0	5.01844E+1	4.65414E+1	0.00000E+0	0.00000E+0	1.95200E+1	1.35000E+1	1.95209E+1	1.35024E+1
86	10/05/2023	13:37:09.492	0.00000E+0	0.00000E+0	2.79809E+1	2.69391E+1	0.00000E+0	0.00000E+0	1.95200E+1	1.35000E+1	1.95192E+1	1.35001E+1
87	10/05/2023	13:37:11.080	0.00000E+0	0.00000E+0	4.94361E+1	5.08802E+1	0.00000E+0	0.00000E+0	1.95200E+1	1.35000E+1	1.95203E+1	1.35021E+1
88	10/05/2023	13:37:12.590	0.00000E+0	0.00000E+0	4.84325E+1	5.03321E+1	0.00000E+0	0.00000E+0	1.95200E+1	1.35000E+1	1.95199E+1	1.34970E+1
89	10/05/2023	13:37:14.048	0.00000E+0	0.00000E+0	5.79490E+1	5.84113E+1	0.00000E+0	0.00000E+0	1.95200E+1	1.35000E+1	1.95183E+1	1.35006E+1
90	10/05/2023	13:37:15.564	0.00000E+0	0.00000E+0	-2.79174E+1	-3.07307E+1	0.00000E+0	0.00000E+0	1.95200E+1	1.35000E+1	1.95207E+1	1.35018E+1
91	10/05/2023	13:37:17.026	0.00000E+0	0.00000E+0	-6.84619E+1	-7.02899E+1	0.00000E+0	0.00000E+0	1.95200E+1	1.35000E+1	1.95201E+1	1.35006E+1
92	10/05/2023	13:37:18.602	0.00000E+0	0.00000E+0	-5.34450E+1	-5.52083E+1	0.00000E+0	0.00000E+0	1.95200E+1	1.35000E+1	1.95191E+1	1.34998E+1
93	10/05/2023	13:37:20.036	0.00000E+0	0.00000E+0	-5.74299E+1	-5.83367E+1	0.00000E+0	0.00000E+0	1.95200E+1	1.35000E+1	1.95200E+1	1.35013E+1
94	10/05/2023	13:37:21.525	0.00000E+0	0.00000E+0	-4.98547E+1	-5.02025E+1	0.00000E+0	0.00000E+0	1.95200E+1	1.35000E+1	1.95186E+1	1.35008E+1
95	10/05/2023	13:37:23.105	0.00000E+0	0.00000E+0	2.77067E+1	2.86103E+1	0.00000E+0	0.00000E+0	1.95200E+1	1.35000E+1	1.95200E+1	1.35001E+1
96	10/05/2023	13:37:24.656	0.00000E+0	0.00000E+0	5.32408E+1	5.39844E+1	0.00000E+0	0.00000E+0	1.95200E+1	1.35000E+1	1.95191E+1	1.34987E+1
97	10/05/2023	13:37:26.206	0.00000E+0	0.00000E+0	6.97315E+1	7.29794E+1	0.00000E+0	0.00000E+0	1.95200E+1	1.35000E+1	1.95211E+1	1.34997E+1
98	10/05/2023	13:37:27.668	0.00000E+0	0.00000E+0	5.71014E+1	5.76000E+1	0.00000E+0	0.00000E+0	1.95200E+1	1.35000E+1	1.95191E+1	1.35011E+1
99	10/05/2023	13:37:29.148	0.00000E+0	0.00000E+0	5.22399E+1	5.22091E+1	0.00000E+0	0.00000E+0	1.95200E+1	1.35000E+1	1.95179E+1	1.34984E+1
100	10/05/2023	13:37:30.705	0.00000E+0	0.00000E+0	-4.94114E+1	-4.97599E+1	0.00000E+0	0.00000E+0	1.95200E+1	1.35000E+1	1.95197E+1	1.35007E+1
101	10/05/2023	13:37:32.191	0.00000E+0	0.00000E+0	-6.52023E+1	-6.62690E+1	0.00000E+0	0.00000E+0	1.95200E+1	1.35000E+1	1.95201E+1	1.35028E+1
102	10/05/2023	13:37:33.713	0.00000E+0	0.00000E+0	-5.96323E+1	-6.07887E+1	0.00000E+0	0.00000E+0	1.95200E+1	1.35000E+1	1.95189E+1	1.34986E+1
103	10/05/2023	13:37:35.200	0.00000E+0	0.00000E+0	-5.53563E+1	-5.67560E+1	0.00000E+0	0.00000E+0	1.95200E+1	1.35000E+1	1.95207E+1	1.35005E+1
104	10/05/2023	13:37:36.686	0.00000E+0	0.00000E+0	-1.51401E+1	-8.04097E+0	0.00000E+0	0.00000E+0	1.95200E+1	1.35000E+1	1.95205E+1	1.35002E+1
105	10/05/2023	13:37:38.275	0.00000E+0	0.00000E+0	5.45578E+1	5.41976E+1	0.00000E+0	0.00000E+0	1.95200E+1	1.35000E+1	1.95204E+1	1.34989E+1
106	10/05/2023	13:37:39.776	0.00000E+0	0.00000E+0	4.29103E+1	4.37260E+1	0.00000E+0	0.00000E+0	1.95200E+1	1.35000E+1	1.95188E+1	1.34971E+1
107	10/05/2023	13:37:41.251	0.00000E+0	0.00000E+0	4.50774E+1	4.49390E+1	0.00000E+0	0.00000E+0	1.95200E+1	1.35000E+1	1.95190E+1	1.34992E+1
108	10/05/2023	13:37:42.824	0.00000E+0	0.00000E+0	6.05980E+1	6.12070E+1	0.00000E+0	0.00000E+0	1.95200E+1	1.35000E+1	1.95178E+1	1.34985E+1
109	10/05/2023	13:37:44.295	0.00000E+0	0.00000E+0	4.38894E+1	4.15255E+1	0.00000E+0	0.00000E+0	1.95200E+1	1.35000E+1	1.95225E+1	1.34984E+1
110	10/05/2023	13:37:45.805	0.00000E+0	0.00000E+0	-8.76041E+1	-9.27530E+1	0.00000E+0	0.00000E+0	1.95200E+1	1.35000E+1	1.95185E+1	1.34993E+1
111	10/05/2023	13:37:47.268	0.00000E+0	0.00000E+0	-8.07077E+1	-8.36287E+1	0.00000E+0	0.00000E+0	1.95200E+1	1.35000E+1	1.95217E+1	1.34980E+1
112	10/05/2023	13:37:48.727	0.00000E+0	0.00000E+0	-7.19304E+1	-7.15340E+1	0.00000E+0	0.00000E+0	1.95200E+1	1.35000E+1	1.95221E+1	1.34980E+1
113	10/05/2023	13:37:50.367	0.00000E+0	0.00000E+0	-3.94340E+1	-4.20677E+1	0.00000E+0	0.00000E+0	1.95200E+1	1.35000E+1	1.95204E+1	1.35030E+1
114	10/05/2023	13:37:51.843	0.00000E+0	0.00000E+0	-1.28233E-1	3.75656E+0	0.00000E+0	0.00000E+0	1.95200E+1	1.35000E+1	1.95221E+1	1.35002E+1
115	10/05/2023	13:37:53.339	0.00000E+0	0.00000E+0	4.80738E+1	4.72662E+1	0.00000E+0	0.00000E+0	1.95200E+1	1.35000E+1	1.95200E+1	1.34998E+1
116	10/05/2023	13:37:54.803	0.00000E+0	0.00000E+0	6.72313E+1	6.74061E+1	0.00000E+0	0.00000E+0	1.95200E+1	1.35000E+1	1.95185E+1	1.35006E+1
117	10/05/2023	13:37:56.323	0.00000E+0	0.00000E+0	5.40444E+1	5.72736E+1	0.00000E+0	0.00000E+0	1.95200E+1	1.35000E+1	1.95187E+1	1.34989E+1
118	10/05/2023	13:37:57.945	0.00000E+0	0.00000E+0	5.84102E+1	5.69629E+1	0.00000E+0	0.00000E+0	1.95200E+1	1.35000E+1	1.95214E+1	1.35021E+1
119	10/05/2023	13:37:59.393	0.00000E+0	0.00000E+0	-3.52379E+1	-4.26149E+1	0.00000E+0	0.00000E+0	1.95200E+1	1.35000E+1	1.95189E+1	1.35009E+1
120	10/05/2023	13:38:00.832	0.00000E+0	0.00000E+0	-5.19734E+1	-5.34927E+1	0.00000E+0	0.00000E+0	1.95200E+1	1.35000E+1	1.95199E+1	1.35009E+1
121	10/05/2023	13:38:02.404	0.00000E+0	0.00000E+0	-6.37983E+1	-6.45711E+1	0.00000E+0	0.00000E+0	1.95200E+1	1.35000E+1	1.95213E+1	1.34997E+1
122	10/05/2023	13:38:03.940	0.00000E+0	0.00000E+0	-5.00891E+1	-5.32814E+1	0.00000E+0	0.00000E+0	1.95200E+1	1.35000E+1	1.95177E+1	1.35021E+1
123	10/05/2023	13:38:05.544	0.00000E+0	0.00000E+0	3.82718E+1	4.05702E+1	0.00000E+0	0.00000E+0	1.95200E+1	1.35000E+1	1.95190E+1	1.35007E+1
124	10/05/2023	13:38:07.034	0.00000E+0	0.00000E+0	5.46540E+1	5.83979E+1	0.00000E+0	0.00000E+0	1.95200E+1	1.35000E+1	1.95201E+1	1.34999E+1
125	10/05/2023	13:38:08.533	0.00000E+0	0.00000E+0	6.19631E+1	6.16870E+1	0.00000E+0	0.00000E+0	1.95200E+1	1.35000E+1	1.95186E+1	1.34960E+1
126	10/05/2023	13:38:10.078	0.00000E+0	0.00000E+0	4.50417E+1	4.64817E+1	0.00000E+0	0.00000E+0	1.95200E+1	1.35000E+1	1.95215E+1	1.34996E+1
127	10/05/2023	13:38:11.535	0.00000E+0	0.00000E+0	3.93749E+1	4.03408E+1	0.00000E+0	0.00000E+0	1.95200E+1	1.35000E+1	1.95199E+1	1.34999E+1
128	10/05/2023	13:38:13.002	0.00000E+0	0.00000E+0	4.21612E+0	-1.14644E+0	0.00000E+0	0.00000E+0	1.95200E+1	1.35000E+1	1.95162E+1	1.34972E+1
129	10/05/2023	13:38:14.608	0.00000E+0	0.00000E+0	-3.62734E+1	-3.82867E+1	0.00000E+0	0.00000E+0	1.95200E+1	1.35000E+1	1.95218E+1	1.34999E+1
130	10/05/2023	13:38:16.121	0.00000E+0	0.00000E+0	-6.72065E+1	-6.81685E+1	0.00000E+0	0.00000E+0	1.95200E+1	1.35000E+1	1.95186E+1	1.35011E+1
131	10/05/2023	13:38:17.705	0.00000E+0	0.00000E+0	-4.79070E+1	-5.01272E+1	0.00000E+0	0.00000E+0	1.95200E+1	1.35000E+1	1.95209E+1	1.34991E+1
132	10/05/2023	13:38:19.190	0.00000E+0	0.00000E+0	-4.42361E+1	-4.40546E+1	0.00000E+0	0.00000E+0	1.95200E+1	1.35000E+1	1.95213E+1	1.35006E+1
133	10/05/2023	13:38:20.627	0.00000E+0	0.00000E+0	-5.39032E+1	-5.83507E+1	0.00000E+0	0.00000E+0	1.95200E+1	1.35000E+1	1.95210E+1	1.35008E+1
134	10/05/2023	13:38:22.210	0.00000E+0	0.00000E+0	4.33361E+1	4.77727E+1	0.00000E+0	0.00000E+0	1.95200E+1	1.35000E+1	1.95211E+1	1.35004E+1
135	10/05/2023	13:38:23.729	0.00000E+0	0.00000E+0	5.92737E+1	5.86960E+1	0.00000E+0	0.00000E+0	1.95200E+1	1.35000E+1	1.95202E+1	1.35007E+1
136	10/05/2023	13:38:25.243	0.00000E+0	0.00000E+0	7.70718E+1	7.96601E+1	0.00000E+0	0.00000E+0	1.95200E+1	1.35000E+1	1.95196E+1	1.35001E+1
137	10/05/2023	13:38:26.738	0.00000E+0	0.00000E+0	6.35729E+1	6.32229E+1	0.00000E+0	0.00000E+0	1.95200E+1	1.35000E+1	1.95192E+1	1.34990E+1
138	10/05/2023	13:38:28.142	0.00000E+0	0.00000E+0	-1.31384E+1	-1.81122E+1	0.00000E+0	0.00000E+0	1.95200E+1	1.35000E+1	1.95202E+1	1.34982E+1
139	10/05/2023	13:38:29.751	0.00000E+0	0.00000E+0	-6.28473E+1	-6.34367E+1	0.00000E+0	0.00000E+0	1.95200E+1	1.35000E+1	1.95202E+1	1.35027E+1
140	10/05/2023	13:38:31.214	0.00000E+0	0.00000E+0	-8.37823E+1	-8.48495E+1	0.00000E+0	0.00000E+0	1.95200E+1	1.35000E+1	1.95199E+1	1.34982E+1
141	10/05/2023	13:38:32.718	0.00000E+0	0.00000E+0	-5.95340E+1	-6.00510E+1	0.00000E+0	0.00000E+0	1.95200E+1	1.35000E+1	1.95188E+1	1.35011E+1
142	10/05/2023	13:38:34.358	0.00000E+0	0.00000E+0	4.44259E+0	1.21247E+1	0.00000E+0	0.00000E+0	1.95200E+1	1.35000E+1	1.95211E+1	1.35020E+1
143	10/05/2023	13:38:35.930	0.00000E+0	0.00000E+0	5.30743E+1	5.48547E+1	0.00000E+0	0.00000E+0	1.95200E+1	1.35000E+1	1.95201E+1	1.34997E+1
144	10/05/2023	13:38:37.521	0.00000E+0	0.00000E+0	8.81187E+1	8.85442E+1	0.00000E+0	0.00000E+0	1.95200E+1	1.35000E+1	1.95167E+1	1.35007E+1
145	10/05/2023	13:38:39.009	0.00000E+0	0.00000E+0	6.74166E+1	7.31267E+1	0.00000E+0	0.00000E+0	1.95200E+1	1.35000E+1	1.95200E+1	1.34954E+1
146	10/05/2023	13:38:40.489	0.00000E+0	0.00000E+0	3.93411E+1	3.63639E+1	0.00000E+0	0.00000E+0	1.95200E+1	1.35000E+1	1.95205E+1	1.34991E+1
147	10/05/2023	13:38:42.249	0.00000E+0	0.00000E+0	-4.71749E+1	-4.98655E+1	0.00000E+0	0.00000E+0	1.95200E+1	1.35000E+1	1.95184E+1	1.35021E+1
148	10/05/2023	13:38:43.759	0.00000E+0	0.00000E+0	-7.57652E+1	-7.58794E+1	0.00000E+0	0.00000E+0	1.95200E+1	1.35000E+1	1.95193E+1	1.34989E+1
149	10/05/2023	13:38:45.254	0.00000E+0	0.00000E+0	-7.85336E+1	-7.80300E+1	0.00000E+0	0.00000E+0	1.95200E+1	1.35000E+1	1.95190E+1	1.35019E+1
150	10/05/2023	13:38:46.850	0.00000E+0	0.00000E+0	-7.00082E+1	-6.98862E+1	0.00000E+0	0.00000E+0	1.95200E+1	1.35000E+1	1.95175E+1	1.35010E+1
151	10/05/2023	13:38:48.340	0.00000E+0	0.00000E+0	4.39085E+1	4.47126E+1	0.00000E+0	0.00000E+0	1.95200E+1	1.35000E+1	1.95194E+1	1.34999E+1
152	10/05/2023	13:38:49.826	0.00000E+0	0.00000E+0	6.84150E+1	7.05115E+1	0.00000E+0	0.00000E+0	1.95200E+1	1.35000E+1	1.95210E+1	1.34995E+1
153	10/05/2023	13:38:51.320	0.00000E+0	0.00000E+0	8.08559E+1	8.08644E+1	0.00000E+0	0.00000E+0	1.95200E+1	1.35000E+1	1.95202E+1	1.35010E+1
154	10/05/2023	13:38:52.808	0.00000E+0	0.00000E+0	6.62293E+1	6.52420E+1	0.00000E+0	0.00000E+0	1.95200E+1	1.35000E+1	1.95185E+1	1.35022E+1
155	10/05/2023	13:38:54.375	0.00000E+0	0.00000E+0	-1.27964E+1	-1.61115E+1	0.00000E+0	0.00000E+0	1.95200E+1	1.35000E+1	1.95184E+1	1.35012E+1
156	10/05/2023	13:38:55.949	0.00000E+0	0.00000E+0	-6.13334E+1	-6.03917E+1	0.00000E+0	0.00000E+0	1.95200E+1	1.35000E+1	1.95207E+1	1.35003E+1
157	10/05/2023	13:38:57.510	0.00000E+0	0.00000E+0	-6.36074E+1	-6.39489E+1	0.00000E+0	0.00000E+0	1.95200E+1	1.35000E+1	1.95191E+1	1.35001E+1
158	10/05/2023	13:38:58.996	0.00000E+0	0.00000E+0	-7.46608E+1	-7.47725E+1	0.00000E+0	0.00000E+0	1.95200E+1	1.35000E+1	1.95191E+1	1.35006E+1
159	10/05/2023	13:39:00.493	0.00000E+0	0.00000E+0	-5.73586E+1	-5.70804E+1	0.00000E+0	0.00000E+0	1.95200E+1	1.35000E+1	1.95188E+1	1.34997E+1
160	10/05/2023	13:39:02.072	0.00000E+0	0.00000E+0	6.32320E+1	6.42266E+1	0.00000E+0	0.00000E+0	1.95200E+1	1.35000E+1	1.95202E+1	1.34992E+1
161	10/05/2023	13:39:03.540	0.00000E+0	0.00000E+0	6.94138E+1	7.12061E+1	0.00000E+0	0.00000E+0	1.95200E+1	1.35000E+1	1.95195E+1	1.35010E+1
162	10/05/2023	13:39:04.986	0.00000E+0	0.00000E+0	8.40997E+1	8.51515E+1	0.00000E+0	0.00000E+0	1.95200E+1	1.35000E+1	1.95207E+1	1.35001E+1
163	10/05/2023	13:39:06.535	0.00000E+0	0.00000E+0	5.96549E+1	5.83686E+1	0.00000E+0	0.00000E+0	1.95200E+1	1.35000E+1	1.95198E+1	1.35003E+1
164	10/05/2023	13:39:08.040	0.00000E+0	0.00000E+0	-6.06381E+1	-6.39521E+1	0.00000E+0	0.00000E+0	1.95200E+1	1.35000E+1	1.95178E+1	1.34980E+1
165	10/05/2023	13:39:09.624	0.00000E+0	0.00000E+0	-1.06291E+2	-1.08644E+2	0.00000E+0	0.00000E+0	1.95200E+1	1.35000E+1	1.95208E+1	1.34996E+1
166	10/05/2023	13:39:11.126	0.00000E+0	0.00000E+0	-1.05824E+2	-1.05331E+2	0.00000E+0	0.00000E+0	1.95200E+1	1.35000E+1	1.95189E+1	1.35002E+1
167	10/05/2023	13:39:12.611	0.00000E+0	0.00000E+0	1.48205E+1	1.56906E+1	0.00000E+0	0.00000E+0	1.95200E+1	1.35000E+1	1.95197E+1	1.35014E+1
168	10/05/2023	13:39:14.234	0.00000E+0	0.00000E+0	2.56622E+1	2.57583E+1	0.00000E+0	0.00000E+0	1.95200E+1	1.35000E+1	1.95199E+1	1.35003E+1
169	10/05/2023	13:39:15.745	0.00000E+0	0.00000E+0	4.32296E+1	4.53472E+1	0.00000E+0	0.00000E+0	1.95200E+1	1.35000E+1	1.95196E+1	1.34990E+1
170	10/05/2023	13:39:17.256	0.00000E+0	0.00000E+0	2.81355E+1	2.87123E+1	0.00000E+0	0.00000E+0	1.95200E+1	1.35000E+1	1.95196E+1	1.35007E+1
171	10/05/2023	13:39:18.751	0.00000E+0	0.00000E+0	2.90327E+1	3.14836E+1	0.00000E+0	0.00000E+0	1.95200E+1	1.35000E+1	1.95181E+1	1.34989E+1
172	10/05/2023	13:39:20.243	0.00000E+0	0.00000E+0	7.61704E+1	8.09111E+1	0.00000E+0	0.00000E+0	1.95200E+1	1.35000E+1	1.95219E+1	1.35007E+1
173	10/05/2023	13:39:21.821	0.00000E+0	0.00000E+0	7.05831E+1	7.30285E+1	0.00000E+0	0.00000E+0	1.95200E+1	1.35000E+1	1.95188E+1	1.34995E+1
174	10/05/2023	13:39:23.284	0.00000E+0	0.00000E+0	-4.04175E+1	-4.10048E+1	0.00000E+0	0.00000E+0	1.95200E+1	1.35000E+1	1.95182E+1	1.35012E+1
175	10/05/2023	13:39:24.777	0.00000E+0	0.00000E+0	-3.81510E+1	-3.82822E+1	0.00000E+0	0.00000E+0	1.95200E+1	1.35000E+1	1.95215E+1	1.34987E+1
176	10/05/2023	13:39:26.348	0.00000E+0	0.00000E+0	-2.70169E+1	-2.79535E+1	0.00000E+0	0.00000E+0	1.95200E+1	1.35000E+1	1.95233E+1	1.34992E+1
177	10/05/2023	13:39:27.818	0.00000E+0	0.00000E+0	-4.94347E+1	-5.08115E+1	0.00000E+0	0.00000E+0	1.95200E+1	1.35000E+1	1.95224E+1	1.35006E+1
178	10/05/2023	13:39:29.294	0.00000E+0	0.00000E+0	-5.51284E+1	-5.58882E+1	0.00000E+0	0.00000E+0	1.95200E+1	1.35000E+1	1.95200E+1	1.35008E+1
179	10/05/2023	13:39:30.763	0.00000E+0	0.00000E+0	-6.44284E+1	-6.58997E+1	0.00000E+0	0.00000E+0	1.95200E+1	1.35000E+1	1.95225E+1	1.34987E+1
180	10/05/2023	13:39:32.275	0.00000E+0	0.00000E+0	1.66394E+1	1.80874E+1	0.00000E+0	0.00000E+0	1.95200E+1	1.35000E+1	1.95197E+1	1.34983E+1
181	10/05/2023	13:39:33.840	0.00000E+0	0.00000E+0	4.59031E+1	4.16526E+1	0.00000E+0	0.00000E+0	1.95200E+1	1.35000E+1	1.95211E+1	1.34972E+1
182	10/05/2023	13:39:35.340	0.00000E+0	0.00000E+0	3.28874E+1	3.58790E+1	0.00000E+0	0.00000E+0	1.95200E+1	1.35000E+1	1.95204E+1	1.34997E+1
183	10/05/2023	13:39:36.844	0.00000E+0	0.00000E+0	7.10663E+1	7.41137E+1	0.00000E+0	0.00000E+0	1.95200E+1	1.35000E+1	1.95208E+1	1.34990E+1
184	10/05/2023	13:39:38.329	0.00000E+0	0.00000E+0	7.12499E+1	7.09087E+1	0.00000E+0	0.00000E+0	1.95200E+1	1.35000E+1	1.95201E+1	1.35005E+1
185	10/05/2023	13:39:39.844	0.00000E+0	0.00000E+0	5.52900E+1	5.47663E+1	0.00000E+0	0.00000E+0	1.95200E+1	1.35000E+1	1.95201E+1	1.34998E+1
186	10/05/2023	13:39:41.354	0.00000E+0	0.00000E+0	-7.76871E+1	-8.15368E+1	0.00000E+0	0.00000E+0	1.95200E+1	1.35000E+1	1.95197E+1	1.34993E+1
187	10/05/2023	13:39:42.845	0.00000E+0	0.00000E+0	-7.06203E+1	-7.31667E+1	0.00000E+0	0.00000E+0	1.95200E+1	1.35000E+1	1.95186E+1	1.34989E+1
188	10/05/2023	13:39:44.359	0.00000E+0	0.00000E+0	-6.83537E+1	-6.87599E+1	0.00000E+0	0.00000E+0	1.95200E+1	1.35000E+1	1.95226E+1	1.34990E+1
189	10/05/2023	13:39:45.941	0.00000E+0	0.00000E+0	-7.56232E+0	4.46382E-1	0.00000E+0	0.00000E+0	1.95200E+1	1.35000E+1	1.95177E+1	1.35006E+1
190	10/05/2023	13:39:47.453	0.00000E+0	0.00000E+0	5.65763E+1	5.63196E+1	0.00000E+0	0.00000E+0	1.95200E+1	1.35000E+1	1.95208E+1	1.34998E+1
191	10/05/2023	13:39:48.983	0.00000E+0	0.00000E+0	6.91840E+1	7.18477E+1	0.00000E+0	0.00000E+0	1.95200E+1	1.35000E+1	1.95199E+1	1.34985E+1
192	10/05/2023	13:39:50.460	0.00000E+0	0.00000E+0	7.54410E+1	7.78856E+1	0.00000E+0	0.00000E+0	1.95200E+1	1.35000E+1	1.95193E+1	1.34993E+1
193	10/05/2023	13:39:51.920	0.00000E+0	0.00000E+0	2.81273E+1	2.29164E+1	0.00000E+0	0.00000E+0	1.95200E+1	1.35000E+1	1.95187E+1	1.35003E+1
194	10/05/2023	13:39:53.494	0.00000E+0	0.00000E+0	-7.17239E+1	-7.39131E+1	0.00000E+0	0.00000E+0	1.95200E+1	1.35000E+1	1.95211E+1	1.35024E+1
195	10/05/2023	13:39:54.974	0.00000E+0	0.00000E+0	-8.00243E+1	-8.14549E+1	0.00000E+0	0.00000E+0	1.95200E+1	1.35000E+1	1.95208E+1	1.34998E+1
196	10/05/2023	13:39:56.460	0.00000E+0	0.00000E+0	-6.76650E+1	-6.74963E+1	0.00000E+0	0.00000E+0	1.95200E+1	1.35000E+1	1.95219E+1	1.35020E+1
197	10/05/2023	13:39:58.025	0.00000E+0	0.00000E+0	2.01869E+1	2.38186E+1	0.00000E+0	0.00000E+0	1.95200E+1	1.35000E+1	1.95202E+1	1.34975E+1
198	10/05/2023	13:39:59.516	0.00000E+0	0.00000E+0	7.30427E+1	7.43699E+1	0.00000E+0	0.00000E+0	1.95200E+1	1.35000E+1	1.95180E+1	1.34992E+1
199	10/05/2023	13:40:01.048	0.00000E+0	0.00000E+0	9.49237E+1	9.59096E+1	0.00000E+0	0.00000E+0	1.95200E+1	1.35000E+1	1.95190E+1	1.34993E+1
200	10/05/2023	13:40:02.542	0.00000E+0	0.00000E+0	7.14495E+1	7.11594E+1	0.00000E+0	0.00000E+0	1.95200E+1	1.35000E+1	1.95197E+1	1.34984E+1
201	10/05/2023	13:40:04.022	0.00000E+0	0.00000E+0	-6.04045E+1	-6.33938E+1	0.00000E+0	0.00000E+0	1.95200E+1	1.35000E+1	1.95207E+1	1.34995E+1
202	10/05/2023	13:40:05.616	0.00000E+0	0.00000E+0	-9.22948E+1	-9.29384E+1	0.00000E+0	0.00000E+0	1.95200E+1	1.35000E+1	1.95187E+1	1.35014E+1
203	10/05/2023	13:40:07.108	0.00000E+0	0.00000E+0	-7.62584E+1	-7.61570E+1	0.00000E+0	0.00000E+0	1.95200E+1	1.35000E+1	1.95206E+1	1.35005E+1
204	10/05/2023	13:40:08.674	0.00000E+0	0.00000E+0	-1.18314E+1	-5.58453E+0	0.00000E+0	0.00000E+0	1.95200E+1	1.35000E+1	1.95198E+1	1.34995E+1
205	10/05/2023	13:40:10.180	0.00000E+0	0.00000E+0	5.38912E+1	5.66788E+1	0.00000E+0	0.00000E+0	1.95200E+1	1.35000E+1	1.95182E+1	1.35009E+1
206	10/05/2023	13:40:11.714	0.00000E+0	0.00000E+0	5.57744E+1	5.70411E+1	0.00000E+0	0.00000E+0	1.95200E+1	1.35000E+1	1.95189E+1	1.35018E+1
207	10/05/2023	13:40:13.295	0.00000E+0	0.00000E+0	6.26348E+1	6.40854E+1	0.00000E+0	0.00000E+0	1.95200E+1	1.35000E+1	1.95182E+1	1.34984E+1
208	10/05/2023	13:40:14.780	0.00000E+0	0.00000E+0	6.88830E+1	6.88421E+1	0.00000E+0	0.00000E+0	1.95200E+1	1.35000E+1	1.95189E+1	1.35011E+1
209	10/05/2023	13:40:16.266	0.00000E+0	0.00000E+0	-2.59169E+1	-2.95158E+1	0.00000E+0	0.00000E+0	1.95200E+1	1.35000E+1	1.95240E+1	1.34979E+1
210	10/05/2023	13:40:17.809	0.00000E+0	0.00000E+0	-8.20361E+1	-8.60161E+1	0.00000E+0	0.00000E+0	1.95200E+1	1.35000E+1	1.95198E+1	1.35007E+1
211	10/05/2023	13:40:19.304	0.00000E+0	0.00000E+0	-9.04715E+1	-9.17622E+1	0.00000E+0	0.00000E+0	1.95200E+1	1.35000E+1	1.95197E+1	1.35001E+1
212	10/05/2023	13:40:20.752	0.00000E+0	0.00000E+0	-5.90589E+1	-5.86880E+1	0.00000E+0	0.00000E+0	1.95200E+1	1.35000E+1	1.95218E+1	1.34988E+1
213	10/05/2023	13:40:22.217	0.00000E+0	0.00000E+0	3.86952E+1	4.21505E+1	0.00000E+0	0.00000E+0	1.95200E+1	1.35000E+1	1.95215E+1	1.34998E+1
214	10/05/2023	13:40:23.702	0.00000E+0	0.00000E+0	8.63741E+1	8.62020E+1	0.00000E+0	0.00000E+0	1.95200E+1	1.35000E+1	1.95223E+1	1.35013E+1
215	10/05/2023	13:40:25.310	0.00000E+0	0.00000E+0	8.05159E+1	7.89949E+1	0.00000E+0	0.00000E+0	1.95200E+1	1.35000E+1	1.95223E+1	1.35014E+1
216	10/05/2023	13:40:27.037	0.00000E+0	0.00000E+0	3.37404E+1	3.38642E+1	0.00000E+0	0.00000E+0	1.95200E+1	1.35000E+1	1.95196E+1	1.35020E+1
217	10/05/2023	13:40:28.680	0.00000E+0	0.00000E+0	-8.09201E+1	-8.38008E+1	0.00000E+0	0.00000E+0	1.95200E+1	1.35000E+1	1.95228E+1	1.34986E+1
218	10/05/2023	13:40:30.126	0.00000E+0	0.00000E+0	-1.20240E+2	-1.20840E+2	0.00000E+0	0.00000E+0	1.95200E+1	1.35000E+1	1.95203E+1	1.35025E+1
219	10/05/2023	13:40:31.659	0.00000E+0	0.00000E+0	-4.67938E+1	-4.46967E+1	0.00000E+0	0.00000E+0	1.95200E+1	1.35000E+1	1.95232E+1	1.35025E+1
220	10/05/2023	13:40:33.138	0.00000E+0	0.00000E+0	-3.12475E+1	-2.80048E+1	0.00000E+0	0.00000E+0	1.95200E+1	1.35000E+1	1.95194E+1	1.35001E+1
221	10/05/2023	13:40:34.659	0.00000E+0	0.00000E+0	2.38289E+1	2.47760E+1	0.00000E+0	0.00000E+0	1.95200E+1	1.35000E+1	1.95201E+1	1.35008E+1
222	10/05/2023	13:40:36.155	0.00000E+0	0.00000E+0	3.50382E+1	3.76024E+1	0.00000E+0	0.00000E+0	1.95200E+1	1.35000E+1	1.95211E+1	1.35002E+1
223	10/05/2023	13:40:37.736	0.00000E+0	0.00000E+0	8.66041E+1	8.79917E+1	0.00000E+0	0.00000E+0	1.95200E+1	1.35000E+1	1.95208E+1	1.34999E+1
224	10/05/2023	13:40:39.197	0.00000E+0	0.00000E+0	8.29573E+1	8.13365E+1	0.00000E+0	0.00000E+0	1.95200E+1	1.35000E+1	1.95197E+1	1.35017E+1
225	10/05/2023	13:40:40.756	0.00000E+0	0.00000E+0	-5.95219E+0	-1.12801E+1	0.00000E+0	0.00000E+0	1.95200E+1	1.35000E+1	1.95195E+1	1.35002E+1
226	10/05/2023	13:40:42.232	0.00000E+0	0.00000E+0	-9.66647E+1	-9.90300E+1	0.00000E+0	0.00000E+0	1.95200E+1	1.35000E+1	1.95218E+1	1.34998E+1
227	10/05/2023	13:40:43.691	0.00000E+0	0.00000E+0	-8.49541E+1	-8.90588E+1	0.00000E+0	0.00000E+0	1.95200E+1	1.35000E+1	1.95178E+1	1.35011E+1
228	10/05/2023	13:40:45.222	0.00000E+0	0.00000E+0	-5.30959E+1	-4.81592E+1	0.00000E+0	0.00000E+0	1.95200E+1	1.35000E+1	1.95179E+1	1.35014E+1
229	10/05/2023	13:40:46.673	0.00000E+0	0.00000E+0	8.13562E+1	8.26233E+1	0.00000E+0	0.00000E+0	1.95200E+1	1.35000E+1	1.95165E+1	1.35010E+1
230	10/05/2023	13:40:48.123	0.00000E+0	0.00000E+0	1.10099E+2	1.13245E+2	0.00000E+0	0.00000E+0	1.95200E+1	1.35000E+1	1.95162E+1	1.35012E+1
231	10/05/2023	13:40:49.738	0.00000E+0	0.00000E+0	5.81448E+1	5.78727E+1	0.00000E+0	0.00000E+0	1.95200E+1	1.35000E+1	1.95225E+1	1.35009E+1
232	10/05/2023	13:40:51.203	0.00000E+0	0.00000E+0	-6.90212E+1	-7.16915E+1	0.00000E+0	0.00000E+0	1.95200E+1	1.35000E+1	1.95218E+1	1.34996E+1
233	10/05/2023	13:40:52.797	0.00000E+0	0.00000E+0	-1.01415E+2	-1.03386E+2	0.00000E+0	0.00000E+0	1.95200E+1	1.35000E+1	1.95202E+1	1.34995E+1
234	10/05/2023	13:40:54.289	0.00000E+0	0.00000E+0	-8.73648E+1	-8.86778E+1	0.00000E+0	0.00000E+0	1.95200E+1	1.35000E+1	1.95208E+1	1.35003E+1
235	10/05/2023	13:40:55.810	0.00000E+0	0.00000E+0	7.32939E+1	7.61291E+1	0.00000E+0	0.00000E+0	1.95200E+1	1.35000E+1	1.95192E+1	1.34983E+1
236	10/05/2023	13:40:57.385	0.00000E+0	0.00000E+0	1.03682E+2	1.02147E+2	0.00000E+0	0.00000E+0	1.95200E+1	1.35000E+1	1.95201E+1	1.34997E+1
237	10/05/2023	13:40:58.872	0.00000E+0	0.00000E+0	9.73111E+1	9.81335E+1	0.00000E+0	0.00000E+0	1.95200E+1	1.35000E+1	1.95194E+1	1.35002E+1
238	10/05/2023	13:41:00.383	0.00000E+0	0.00000E+0	-8.33275E+1	-9.23128E+1	0.00000E+0	0.00000E+0	1.95200E+1	1.35000E+1	1.95207E+1	1.35018E+1
239	10/05/2023	13:41:01.853	0.00000E+0	0.00000E+0	-1.43388E+2	-1.42339E+2	0.00000E+0	0.00000E+0	1.95200E+1	1.35000E+1	1.95200E+1	1.34986E+1
240	10/05/2023	13:41:03.333	0.00000E+0	0.00000E+0	-1.76476E+1	-9.02366E+0	0.00000E+0	0.00000E+0	1.95200E+1	1.35000E+1	1.95186E+1	1.34996E+1
241	10/05/2023	13:41:04.922	0.00000E+0	0.00000E+0	9.63620E+1	9.72232E+1	0.00000E+0	0.00000E+0	1.95200E+1	1.35000E+1	1.95202E+1	1.35035E+1
242	10/05/2023	13:41:06.423	0.00000E+0	0.00000E+0	1.09409E+2	1.08761E+2	0.00000E+0	0.00000E+0	1.95200E+1	1.35000E+1	1.95216E+1	1.35005E+1
243	10/05/2023	13:41:07.875	0.00000E+0	0.00000E+0	4.64884E+1	3.93554E+1	0.00000E+0	0.00000E+0	1.95200E+1	1.35000E+1	1.95198E+1	1.35005E+1
244	10/05/2023	13:41:09.490	0.00000E+0	0.00000E+0	-1.29749E+2	-1.34132E+2	0.00000E+0	0.00000E+0	1.95200E+1	1.35000E+1	1.95228E+1	1.34996E+1
245	10/05/2023	13:41:10.988	0.00000E+0	0.00000E+0	-7.66132E+1	-7.56179E+1	0.00000E+0	0.00000E+0	1.95200E+1	1.35000E+1	1.95167E+1	1.35017E+1
246	10/05/2023	13:41:12.490	0.00000E+0	0.00000E+0	1.52190E+1	1.96707E+1	0.00000E+0	0.00000E+0	1.95200E+1	1.35000E+1	1.95192E+1	1.35001E+1
247	10/05/2023	13:41:13.965	0.00000E+0	0.00000E+0	5.80905E+1	5.91236E+1	0.00000E+0	0.00000E+0	1.95200E+1	1.35000E+1	1.95174E+1	1.34998E+1
248	10/05/2023	13:41:15.451	0.00000E+0	0.00000E+0	8.86580E+1	8.93968E+1	0.00000E+0	0.00000E+0	1.95200E+1	1.35000E+1	1.95195E+1	1.35004E+1
249	10/05/2023	13:41:17.026	0.00000E+0	0.00000E+0	9.31968E+1	9.01877E+1	0.00000E+0	0.00000E+0	1.95200E+1	1.35000E+1	1.95215E+1	1.34997E+1
250	10/05/2023	13:41:18.509	0.00000E+0	0.00000E+0	-9.78863E+1	-9.72000E+1	0.00000E+0	0.00000E+0	1.95200E+1	1.35000E+1	1.95223E+1	1.34993E+1
251	10/05/2023	13:41:19.993	0.00000E+0	0.00000E+0	-1.06098E+2	-1.06529E+2	0.00000E+0	0.00000E+0	1.95200E+1	1.35000E+1	1.95201E+1	1.35002E+1
252	10/05/2023	13:41:21.453	0.00000E+0	0.00000E+0	-3.75332E+1	-3.25249E+1	0.00000E+0	0.00000E+0	1.95200E+1	1.35000E+1	1.95197E+1	1.35001E+1
253	10/05/2023	13:41:23.006	0.00000E+0	0.00000E+0	8.16303E+1	8.34837E+1	0.00000E+0	0.00000E+0	1.95200E+1	1.35000E+1	1.95210E+1	1.34975E+1
254	10/05/2023	13:41:24.587	0.00000E+0	0.00000E+0	9.62161E+1	9.88396E+1	0.00000E+0	0.00000E+0	1.95200E+1	1.35000E+1	1.95238E+1	1.35010E+1
255	10/05/2023	13:41:26.083	0.00000E+0	0.00000E+0	-2.57188E+0	-9.66908E+0	0.00000E+0	0.00000E+0	1.95200E+1	1.35000E+1	1.95187E+1	1.35009E+1
256	10/05/2023	13:41:27.556	0.00000E+0	0.00000E+0	-7.25893E+1	-7.45162E+1	0.00000E+0	0.00000E+0	1.95200E+1	1.35000E+1	1.95203E+1	1.35007E+1
257	10/05/2023	13:41:29.164	0.00000E+0	0.00000E+0	-5.50564E+1	-5.48288E+1	0.00000E+0	0.00000E+0	1.95200E+1	1.35000E+1	1.95187E+1	1.34990E+1
258	10/05/2023	13:41:30.661	0.00000E+0	0.00000E+0	-5.14312E+1	-5.31575E+1	0.00000E+0	0.00000E+0	1.95200E+1	1.35000E+1	1.95215E+1	1.34987E+1
259	10/05/2023	13:41:32.615	0.00000E+0	0.00000E+0	-2.09433E+1	-1.83825E+1	0.00000E+0	0.00000E+0	1.95200E+1	1.35000E+1	1.95197E+1	1.34999E+1
260	10/05/2023	13:41:34.091	0.00000E+0	0.00000E+0	2.19019E+1	2.56747E+1	0.00000E+0	0.00000E+0	1.95200E+1	1.35000E+1	1.95194E+1	1.35004E+1
261	10/05/2023	13:41:35.555	0.00000E+0	0.00000E+0	2.16148E-1	-3.20959E+0	0.00000E+0	0.00000E+0	1.95200E+1	1.35000E+1	1.95203E+1	1.35018E+1
262	10/05/2023	13:41:37.153	0.00000E+0	0.00000E+0	-1.32163E+0	-1.32685E+0	0.00000E+0	0.00000E+0	1.95200E+1	1.35000E+1	1.95195E+1	1.35015E+1
263	10/05/2023	13:41:38.639	0.00000E+0	0.00000E+0	1.49458E+1	1.41403E+1	0.00000E+0	0.00000E+0	1.95200E+1	1.35000E+1	1.95202E+1	1.34986E+1
264	10/05/2023	13:41:40.138	0.00000E+0	0.00000E+0	3.94252E+0	5.27147E+0	0.00000E+0	0.00000E+0	1.95200E+1	1.35000E+1	1.95195E+1	1.34973E+1
265	10/05/2023	13:41:41.720	0.00000E+0	0.00000E+0	5.97301E+0	6.02164E+0	0.00000E+0	0.00000E+0	1.95200E+1	1.35000E+1	1.95205E+1	1.34999E+1
266	10/05/2023	13:41:43.226	0.00000E+0	0.00000E+0	9.52352E+0	9.17453E+0	0.00000E+0	0.00000E+0	1.95200E+1	1.35000E+1	1.95196E+1	1.34984E+1
267	10/05/2023	13:41:44.687	0.00000E+0	0.00000E+0	9.62206E+0	9.71713E+0	0.00000E+0	0.00000E+0	1.95200E+1	1.35000E+1	1.95214E+1	1.35022E+1
268	10/05/2023	13:41:46.206	0.00000E+0	0.00000E+0	7.56995E+0	8.89015E+0	0.00000E+0	0.00000E+0	1.95200E+1	1.35000E+1	1.95220E+1	1.35001E+1
269	10/05/2023	13:41:47.678	0.00000E+0	0.00000E+0	1.35383E+1	1.43571E+1	0.00000E+0	0.00000E+0	1.95200E+1	1.35000E+1	1.95224E+1	1.35014E+1
270	10/05/2023	13:41:49.246	0.00000E+0	0.00000E+0	4.64434E+0	3.75977E+0	0.00000E+0	0.00000E+0	1.95200E+1	1.35000E+1	1.95211E+1	1.35009E+1
271	10/05/2023	13:41:50.724	0.00000E+0	0.00000E+0	3.47968E+0	4.75833E+0	0.00000E+0	0.00000E+0	1.95200E+1	1.35000E+1	1.95178E+1	1.35006E+1
272	10/05/2023	13:41:52.269	0.00000E+0	0.00000E+0	3.94131E+0	4.28448E+0	0.00000E+0	0.00000E+0	1.95200E+1	1.35000E+1	1.95201E+1	1.34988E+1
273	10/05/2023	13:41:53.767	0.00000E+0	0.00000E+0	3.65926E+0	3.64153E+0	0.00000E+0	0.00000E+0	1.95200E+1	1.35000E+1	1.95206E+1	1.35007E+1
274	10/05/2023	13:41:55.243	0.00000E+0	0.00000E+0	5.17065E+0	5.67402E+0	0.00000E+0	0.00000E+0	1.95200E+1	1.35000E+1	1.95193E+1	1.34988E+1
275	10/05/2023	13:41:56.758	0.00000E+0	0.00000E+0	3.97963E+0	4.38774E+0	0.00000E+0	0.00000E+0	1.95200E+1	1.35000E+1	1.95197E+1	1.35017E+1
276	10/05/2023	13:41:58.261	0.00000E+0	0.00000E+0	1.41619E+1	1.47026E+1	0.00000E+0	0.00000E+0	1.95200E+1	1.35000E+1	1.95205E+1	1.35002E+1
277	10/05/2023	13:41:59.720	0.00000E+0	0.00000E+0	5.70332E+0	6.12020E+0	0.00000E+0	0.00000E+0	1.95200E+1	1.35000E+1	1.95218E+1	1.34983E+1
278	10/05/2023	13:42:01.319	0.00000E+0	0.00000E+0	8.18075E+0	8.85972E+0	0.00000E+0	0.00000E+0	1.95200E+1	1.35000E+1	1.95213E+1	1.35018E+1
279	10/05/2023	13:42:02.786	0.00000E+0	0.00000E+0	1.08485E+1	1.16154E+1	0.00000E+0	0.00000E+0	1.95200E+1	1.35000E+1	1.95200E+1	1.34990E+1
280	10/05/2023	13:42:04.257	0.00000E+0	0.00000E+0	7.12836E+0	7.24272E+0	0.00000E+0	0.00000E+0	1.95200E+1	1.35000E+1	1.95227E+1	1.35018E+1
281	10/05/2023	13:42:05.727	0.00000E+0	0.00000E+0	1.15718E+1	1.23701E+1	0.00000E+0	0.00000E+0	1.95200E+1	1.35000E+1	1.95185E+1	1.35006E+1
282	10/05/2023	13:42:07.216	0.00000E+0	0.00000E+0	3.59819E+0	4.24538E+0	0.00000E+0	0.00000E+0	1.95200E+1	1.35000E+1	1.95205E+1	1.34967E+1
283	10/05/2023	13:42:08.807	0.00000E+0	0.00000E+0	6.95264E+0	7.47045E+0	0.00000E+0	0.00000E+0	1.95200E+1	1.35000E+1	1.95200E+1	1.34997E+1
284	10/05/2023	13:42:10.298	0.00000E+0	0.00000E+0	1.00840E+1	1.06643E+1	0.00000E+0	0.00000E+0	1.95200E+1	1.35000E+1	1.95170E+1	1.35017E+1
285	10/05/2023	13:42:11.788	0.00000E+0	0.00000E+0	1.06960E+1	1.06605E+1	0.00000E+0	0.00000E+0	1.95200E+1	1.35000E+1	1.95200E+1	1.35012E+1
286	10/05/2023	13:42:13.316	0.00000E+0	0.00000E+0	7.11064E+0	6.90470E+0	0.00000E+0	0.00000E+0	1.95200E+1	1.35000E+1	1.95208E+1	1.35030E+1
287	10/05/2023	13:42:14.826	0.00000E+0	0.00000E+0	9.10662E+0	8.59112E+0	0.00000E+0	0.00000E+0	1.95200E+1	1.35000E+1	1.95188E+1	1.35015E+1
288	10/05/2023	13:42:16.365	0.00000E+0	0.00000E+0	8.14446E+0	7.87440E+0	0.00000E+0	0.00000E+0	1.95200E+1	1.35000E+1	1.95181E+1	1.35017E+1
289	10/05/2023	13:42:17.859	0.00000E+0	0.00000E+0	4.06402E+0	6.22581E-1	0.00000E+0	0.00000E+0	1.95200E+1	1.35000E+1	1.95195E+1	1.35004E+1
290	10/05/2023	13:42:19.363	0.00000E+0	0.00000E+0	-7.94017E+0	-7.58569E+0	0.00000E+0	0.00000E+0	1.95200E+1	1.35000E+1	1.95179E+1	1.35015E+1
291	10/05/2023	13:42:20.923	0.00000E+0	0.00000E+0	-6.82287E+0	-6.60169E+0	0.00000E+0	0.00000E+0	1.95200E+1	1.35000E+1	1.95224E+1	1.35018E+1
292	10/05/2023	13:42:22.402	0.00000E+0	0.00000E+0	-1.01538E+1	-1.04334E+1	0.00000E+0	0.00000E+0	1.95200E+1	1.35000E+1	1.95208E+1	1.34994E+1
293	10/05/2023	13:42:23.928	0.00000E+0	0.00000E+0	-1.41171E+1	-1.39234E+1	0.00000E+0	0.00000E+0	1.95200E+1	1.35000E+1	1.95170E+1	1.35003E+1
294	10/05/2023	13:42:25.394	0.00000E+0	0.00000E+0	-9.23636E+0	-8.98513E+0	0.00000E+0	0.00000E+0	1.95200E+1	1.35000E+1	1.95168E+1	1.35000E+1
295	10/05/2023	13:42:26.870	0.00000E+0	0.00000E+0	-1.65004E+1	-1.72507E+1	0.00000E+0	0.00000E+0	1.95200E+1	1.35000E+1	1.95224E+1	1.34992E+1
296	10/05/2023	13:42:28.428	0.00000E+0	0.00000E+0	-1.43745E+1	-1.34260E+1	0.00000E+0	0.00000E+0	1.95200E+1	1.35000E+1	1.95195E+1	1.35030E+1
297	10/05/2023	13:42:29.907	0.00000E+0	0.00000E+0	-1.33917E+0	-1.82070E+0	0.00000E+0	0.00000E+0	1.95200E+1	1.35000E+1	1.95183E+1	1.35014E+1
298	10/05/2023	13:42:31.373	0.00000E+0	0.00000E+0	-4.84419E+0	-4.32192E+0	0.00000E+0	0.00000E+0	1.95200E+1	1.35000E+1	1.95206E+1	1.35016E+1
299	10/05/2023	13:42:32.929	0.00000E+0	0.00000E+0	-6.84747E+0	-7.07257E+0	0.00000E+0	0.00000E+0	1.95200E+1	1.35000E+1	1.95200E+1	1.34997E+1
300	10/05/2023	13:42:34.452	0.00000E+0	0.00000E+0	-8.48133E+0	-7.53612E+0	0.00000E+0	0.00000E+0	1.95200E+1	1.35000E+1	1.95220E+1	1.35009E+1
301	10/05/2023	13:42:36.028	0.00000E+0	0.00000E+0	-1.01231E+0	-2.88761E-1	0.00000E+0	0.00000E+0	1.95200E+1	1.35000E+1	1.95178E+1	1.34995E+1
302	10/05/2023	13:42:37.516	0.00000E+0	0.00000E+0	-6.06720E+0	-6.01271E+0	0.00000E+0	0.00000E+0	1.95200E+1	1.35000E+1	1.95215E+1	1.34987E+1
303	10/05/2023	13:42:39.004	0.00000E+0	0.00000E+0	-1.47050E+1	-1.50115E+1	0.00000E+0	0.00000E+0	1.95200E+1	1.35000E+1	1.95223E+1	1.35000E+1
304	10/05/2023	13:42:40.611	0.00000E+0	0.00000E+0	-1.06646E+1	-1.07769E+1	0.00000E+0	0.00000E+0	1.95200E+1	1.35000E+1	1.95199E+1	1.34984E+1
305	10/05/2023	13:42:42.097	0.00000E+0	0.00000E+0	-4.52719E+0	-4.87054E+0	0.00000E+0	0.00000E+0	1.95200E+1	1.35000E+1	1.95218E+1	1.35017E+1
306	10/05/2023	13:42:43.571	0.00000E+0	0.00000E+0	-5.98289E+0	-6.95287E+0	0.00000E+0	0.00000E+0	1.95200E+1	1.35000E+1	1.95191E+1	1.35006E+1
307	10/05/2023	13:42:45.057	0.00000E+0	0.00000E+0	-1.25247E+1	-1.47601E+1	0.00000E+0	0.00000E+0	1.95200E+1	1.35000E+1	1.95194E+1	1.34993E+1
308	10/05/2023	13:42:46.534	0.00000E+0	0.00000E+0	-6.54942E+0	-6.91494E+0	0.00000E+0	0.00000E+0	1.95200E+1	1.35000E+1	1.95198E+1	1.34982E+1
309	10/05/2023	13:42:48.098	0.00000E+0	0.00000E+0	-5.94935E+0	-7.10596E+0	0.00000E+0	0.00000E+0	1.95200E+1	1.35000E+1	1.95217E+1	1.35007E+1
310	10/05/2023	13:42:49.576	0.00000E+0	0.00000E+0	-1.21746E+1	-1.19721E+1	0.00000E+0	0.00000E+0	1.95200E+1	1.35000E+1	1.95188E+1	1.34979E+1
311	10/05/2023	13:42:51.057	0.00000E+0	0.00000E+0	-8.31455E+0	-8.10208E+0	0.00000E+0	0.00000E+0	1.95200E+1	1.35000E+1	1.95203E+1	1.34971E+1
312	10/05/2023	13:42:52.639	0.00000E+0	0.00000E+0	-6.71452E+0	-7.04074E+0	0.00000E+0	0.00000E+0	1.95200E+1	1.35000E+1	1.95209E+1	1.35032E+1
313	10/05/2023	13:42:54.135	0.00000E+0	0.00000E+0	-6.84450E+0	-7.29399E+0	0.00000E+0	0.00000E+0	1.95200E+1	1.35000E+1	1.95208E+1	1.35030E+1
314	10/05/2023	13:42:55.697	0.00000E+0	0.00000E+0	-9.35848E+0	-8.12430E+0	0.00000E+0	0.00000E+0	1.95200E+1	1.35000E+1	1.95194E+1	1.35010E+1
315	10/05/2023	13:42:57.166	0.00000E+0	0.00000E+0	4.92601E+0	6.98340E+0	0.00000E+0	0.00000E+0	1.95200E+1	1.35000E+1	1.95188E+1	1.34994E+1
316	10/05/2023	13:42:58.616	0.00000E+0	0.00000E+0	-1.20142E+1	-1.18386E+1	0.00000E+0	0.00000E+0	1.95200E+1	1.35000E+1	1.95188E+1	1.34985E+1
317	10/05/2023	13:43:00.201	0.00000E+0	0.00000E+0	-1.63959E+1	-1.54779E+1	0.00000E+0	0.00000E+0	1.95200E+1	1.35000E+1	1.95216E+1	1.34992E+1
318	10/05/2023	13:43:01.663	0.00000E+0	0.00000E+0	1.14133E+1	1.23953E+1	0.00000E+0	0.00000E+0	1.95200E+1	1.35000E+1	1.95203E+1	1.35021E+1
319	10/05/2023	13:43:03.141	0.00000E+0	0.00000E+0	1.35005E+1	1.22227E+1	0.00000E+0	0.00000E+0	1.95200E+1	1.35000E+1	1.95206E+1	1.35006E+1
320	10/05/2023	13:43:04.579	0.00000E+0	0.00000E+0	1.43637E+1	1.53311E+1	0.00000E+0	0.00000E+0	1.95200E+1	1.35000E+1	1.95215E+1	1.35018E+1
321	10/05/2023	13:43:06.077	0.00000E+0	0.00000E+0	8.92385E+0	8.21095E+0	0.00000E+0	0.00000E+0	1.95200E+1	1.35000E+1	1.95191E+1	1.35006E+1
322	10/05/2023	13:43:07.627	0.00000E+0	0.00000E+0	2.24114E-1	-8.27277E-1	0.00000E+0	0.00000E+0	1.95200E+1	1.35000E+1	1.95220E+1	1.34973E+1
323	10/05/2023	13:43:09.103	0.00000E+0	0.00000E+0	1.30618E+1	1.29081E+1	0.00000E+0	0.00000E+0	1.95200E+1	1.35000E+1	1.95226E+1	1.34995E+1
324	10/05/2023	13:43:10.595	0.00000E+0	0.00000E+0	8.05718E+0	9.10925E+0	0.00000E+0	0.00000E+0	1.95200E+1	1.35000E+1	1.95175E+1	1.34986E+1
325	10/05/2023	13:43:12.176	0.00000E+0	0.00000E+0	9.34810E+0	9.34865E+0	0.00000E+0	0.00000E+0	1.95200E+1	1.35000E+1	1.95207E+1	1.35009E+1
326	10/05/2023	13:43:13.651	0.00000E+0	0.00000E+0	9.45348E+0	7.95223E+0	0.00000E+0	0.00000E+0	1.95200E+1	1.35000E+1	1.95192E+1	1.34990E+1
327	10/05/2023	13:43:15.175	0.00000E+0	0.00000E+0	7.90716E+0	7.95724E+0	0.00000E+0	0.00000E+0	1.95200E+1	1.35000E+1	1.95210E+1	1.35000E+1
328	10/05/2023	13:43:16.655	0.00000E+0	0.00000E+0	6.12277E+0	5.74413E+0	0.00000E+0	0.00000E+0	1.95200E+1	1.35000E+1	1.95204E+1	1.35032E+1
329	10/05/2023	13:43:18.133	0.00000E+0	0.00000E+0	3.89962E+0	4.28768E+0	0.00000E+0	0.00000E+0	1.95200E+1	1.35000E+1	1.95204E+1	1.34990E+1
330	10/05/2023	13:43:19.663	0.00000E+0	0.00000E+0	7.01875E+0	6.94033E+0	0.00000E+0	0.00000E+0	1.95200E+1	1.35000E+1	1.95217E+1	1.34993E+1
331	10/05/2023	13:43:21.125	0.00000E+0	0.00000E+0	1.06842E+1	1.21659E+1	0.00000E+0	0.00000E+0	1.95200E+1	1.35000E+1	1.95176E+1	1.35001E+1
332	10/05/2023	13:43:22.599	0.00000E+0	0.00000E+0	9.89774E+0	1.00469E+1	0.00000E+0	0.00000E+0	1.95200E+1	1.35000E+1	1.95217E+1	1.34994E+1
333	10/05/2023	13:43:24.178	0.00000E+0	0.00000E+0	8.07783E+0	8.36212E+0	0.00000E+0	0.00000E+0	1.95200E+1	1.35000E+1	1.95212E+1	1.35024E+1
334	10/05/2023	13:43:25.645	0.00000E+0	0.00000E+0	6.01709E+0	5.87842E+0	0.00000E+0	0.00000E+0	1.95200E+1	1.35000E+1	1.95211E+1	1.35000E+1
335	10/05/2023	13:43:27.194	0.00000E+0	0.00000E+0	7.69186E+0	8.62231E+0	0.00000E+0	0.00000E+0	1.95200E+1	1.35000E+1	1.95195E+1	1.34994E+1
336	10/05/2023	13:43:28.640	0.00000E+0	0.00000E+0	1.02488E+1	1.02895E+1	0.00000E+0	0.00000E+0	1.95200E+1	1.35000E+1	1.95202E+1	1.35004E+1
337	10/05/2023	13:43:30.156	0.00000E+0	0.00000E+0	1.06677E+1	1.23977E+1	0.00000E+0	0.00000E+0	1.95200E+1	1.35000E+1	1.95179E+1	1.34983E+1
338	10/05/2023	13:43:31.721	0.00000E+0	0.00000E+0	5.64014E+0	5.41703E+0	0.00000E+0	0.00000E+0	1.95200E+1	1.35000E+1	1.95219E+1	1.34985E+1
339	10/05/2023	13:43:33.205	0.00000E+0	0.00000E+0	8.53517E+0	8.84880E+0	0.00000E+0	0.00000E+0	1.95200E+1	1.35000E+1	1.95205E+1	1.34999E+1
340	10/05/2023	13:43:34.703	0.00000E+0	0.00000E+0	9.75395E+0	9.51609E+0	0.00000E+0	0.00000E+0	1.95200E+1	1.35000E+1	1.95158E+1	1.35010E+1
341	10/05/2023	13:43:36.229	0.00000E+0	0.00000E+0	5.19498E+0	6.53033E+0	0.00000E+0	0.00000E+0	1.95200E+1	1.35000E+1	1.95213E+1	1.35030E+1
342	10/05/2023	13:43:37.707	0.00000E+0	0.00000E+0	8.65335E+0	9.91829E+0	0.00000E+0	0.00000E+0	1.95200E+1	1.35000E+1	1.95204E+1	1.35008E+1
343	10/05/2023	13:43:39.300	0.00000E+0	0.00000E+0	1.17673E+1	1.25670E+1	0.00000E+0	0.00000E+0	1.95200E+1	1.35000E+1	1.95200E+1	1.34998E+1
344	10/05/2023	13:43:40.752	0.00000E+0	0.00000E+0	-1.04211E+1	-1.01212E+1	0.00000E+0	0.00000E+0	1.95200E+1	1.35000E+1	1.95184E+1	1.34986E+1
345	10/05/2023	13:43:42.222	0.00000E+0	0.00000E+0	-9.70230E+0	-9.25743E+0	0.00000E+0	0.00000E+0	1.95200E+1	1.35000E+1	1.95186E+1	1.34971E+1
346	10/05/2023	13:43:43.799	0.00000E+0	0.00000E+0	-9.93302E+0	-9.74977E+0	0.00000E+0	0.00000E+0	1.95200E+1	1.35000E+1	1.95191E+1	1.34988E+1
347	10/05/2023	13:43:45.273	0.00000E+0	0.00000E+0	-1.69978E+1	-1.77821E+1	0.00000E+0	0.00000E+0	1.95200E+1	1.35000E+1	1.95198E+1	1.35022E+1
348	10/05/2023	13:43:46.767	0.00000E+0	0.00000E+0	-3.85843E+0	-4.15051E+0	0.00000E+0	0.00000E+0	1.95200E+1	1.35000E+1	1.95186E+1	1.35038E+1
349	10/05/2023	13:43:48.275	0.00000E+0	0.00000E+0	-8.81072E+0	-8.24504E+0	0.00000E+0	0.00000E+0	1.95200E+1	1.35000E+1	1.95215E+1	1.34999E+1
350	10/05/2023	13:43:49.737	0.00000E+0	0.00000E+0	-1.98482E+1	-2.03671E+1	0.00000E+0	0.00000E+0	1.95200E+1	1.35000E+1	1.95190E+1	1.35031E+1
351	10/05/2023	13:43:51.336	0.00000E+0	0.00000E+0	-4.45516E+0	-4.40058E+0	0.00000E+0	0.00000E+0	1.95200E+1	1.35000E+1	1.95199E+1	1.34988E+1
352	10/05/2023	13:43:52.815	0.00000E+0	0.00000E+0	-8.60273E+0	-7.81977E+0	0.00000E+0	0.00000E+0	1.95200E+1	1.35000E+1	1.95212E+1	1.35014E+1
353	10/05/2023	13:43:54.280	0.00000E+0	0.00000E+0	-1.02537E+1	-1.02952E+1	0.00000E+0	0.00000E+0	1.95200E+1	1.35000E+1	1.95193E+1	1.34983E+1
354	10/05/2023	13:43:55.745	0.00000E+0	0.00000E+0	-6.53119E+0	-5.88467E+0	0.00000E+0	0.00000E+0	1.95200E+1	1.35000E+1	1.95207E+1	1.35014E+1
355	10/05/2023	13:43:57.238	0.00000E+0	0.00000E+0	-1.25228E+1	-1.37538E+1	0.00000E+0	0.00000E+0	1.95200E+1	1.35000E+1	1.95205E+1	1.34997E+1
356	10/05/2023	13:43:58.680	0.00000E+0	0.00000E+0	-1.52601E+1	-1.76843E+1	0.00000E+0	0.00000E+0	1.95200E+1	1.35000E+1	1.95183E+1	1.34991E+1
357	10/05/2023	13:44:00.158	0.00000E+0	0.00000E+0	-6.75672E+0	-7.45420E+0	0.00000E+0	0.00000E+0	1.95200E+1	1.35000E+1	1.95228E+1	1.34985E+1
358	10/05/2023	13:44:01.644	0.00000E+0	0.00000E+0	-1.56891E+1	-1.47854E+1	0.00000E+0	0.00000E+0	1.95200E+1	1.35000E+1	1.95190E+1	1.35001E+1
359	10/05/2023	13:44:03.214	0.00000E+0	0.00000E+0	-1.60191E+1	-1.70314E+1	0.00000E+0	0.00000E+0	1.95200E+1	1.35000E+1	1.95202E+1	1.34990E+1
360	10/05/2023	13:44:04.666	0.00000E+0	0.00000E+0	-6.87131E+0	-4.85168E+0	0.00000E+0	0.00000E+0	1.95200E+1	1.35000E+1	1.95197E+1	1.34992E+1
361	10/05/2023	13:44:06.202	0.00000E+0	0.00000E+0	-5.31955E+0	-5.67037E+0	0.00000E+0	0.00000E+0	1.95200E+1	1.35000E+1	1.95214E+1	1.34998E+1
362	10/05/2023	13:44:07.715	0.00000E+0	0.00000E+0	-1.03280E+1	-1.22460E+1	0.00000E+0	0.00000E+0	1.95200E+1	1.35000E+1	1.95200E+1	1.35022E+1
363	10/05/2023	13:44:09.219	0.00000E+0	0.00000E+0	-1.28866E+1	-1.28751E+1	0.00000E+0	0.00000E+0	1.95200E+1	1.35000E+1	1.95194E+1	1.34994E+1
364	10/05/2023	13:44:10.784	0.00000E+0	0.00000E+0	-6.53256E+0	-5.87365E+0	0.00000E+0	0.00000E+0	1.95200E+1	1.35000E+1	1.95189E+1	1.34995E+1
365	10/05/2023	13:44:12.262	0.00000E+0	0.00000E+0	-3.01508E+1	-2.83321E+1	0.00000E+0	0.00000E+0	1.95200E+1	1.35000E+1	1.95212E+1	1.35003E+1
366	10/05/2023	13:44:13.761	0.00000E+0	0.00000E+0	-1.21044E+0	2.36518E+0	0.00000E+0	0.00000E+0	1.95200E+1	1.35000E+1	1.95197E+1	1.34972E+1
367	10/05/2023	13:44:15.325	0.00000E+0	0.00000E+0	9.94347E-1	4.56635E+0	0.00000E+0	0.00000E+0	1.95200E+1	1.35000E+1	1.95206E+1	1.34996E+1
368	10/05/2023	13:44:16.795	0.00000E+0	0.00000E+0	1.91877E+1	1.97954E+1	0.00000E+0	0.00000E+0	1.95200E+1	1.35000E+1	1.95215E+1	1.34986E+1
369	10/05/2023	13:44:18.299	0.00000E+0	0.00000E+0	1.26937E+1	1.29708E+1	0.00000E+0	0.00000E+0	1.95200E+1	1.35000E+1	1.95222E+1	1.34993E+1
370	10/05/2023	13:44:19.776	0.00000E+0	0.00000E+0	1.43528E+1	1.53633E+1	0.00000E+0	0.00000E+0	1.95200E+1	1.35000E+1	1.95181E+1	1.35011E+1
371	10/05/2023	13:44:21.297	0.00000E+0	0.00000E+0	9.64611E+0	7.79300E+0	0.00000E+0	0.00000E+0	1.95200E+1	1.35000E+1	1.95190E+1	1.35014E+1
372	10/05/2023	13:44:22.868	0.00000E+0	0.00000E+0	1.32099E+1	1.45246E+1	0.00000E+0	0.00000E+0	1.95200E+1	1.35000E+1	1.95179E+1	1.35009E+1
373	10/05/2023	13:44:24.334	0.00000E+0	0.00000E+0	1.13812E+1	1.21408E+1	0.00000E+0	0.00000E+0	1.95200E+1	1.35000E+1	1.95197E+1	1.35015E+1
374	10/05/2023	13:44:25.833	0.00000E+0	0.00000E+0	1.72790E+1	1.62431E+1	0.00000E+0	0.00000E+0	1.95200E+1	1.35000E+1	1.95202E+1	1.34989E+1
375	10/05/2023	13:44:27.306	0.00000E+0	0.00000E+0	-8.23348E+0	-7.45342E+0	0.00000E+0	0.00000E+0	1.95200E+1	1.35000E+1	1.95215E+1	1.34980E+1
376	10/05/2023	13:44:28.765	0.00000E+0	0.00000E+0	-7.97994E+0	-8.23894E+0	0.00000E+0	0.00000E+0	1.95200E+1	1.35000E+1	1.95192E+1	1.34998E+1
377	10/05/2023	13:44:30.339	0.00000E+0	0.00000E+0	-7.65461E+0	-8.00745E+0	0.00000E+0	0.00000E+0	1.95200E+1	1.35000E+1	1.95186E+1	1.34998E+1
378	10/05/2023	13:44:31.817	0.00000E+0	0.00000E+0	-6.24634E+0	-6.40163E+0	0.00000E+0	0.00000E+0	1.95200E+1	1.35000E+1	1.95190E+1	1.35019E+1
379	10/05/2023	13:44:33.312	0.00000E+0	0.00000E+0	-1.42838E+1	-1.56281E+1	0.00000E+0	0.00000E+0	1.95200E+1	1.35000E+1	1.95217E+1	1.35002E+1
380	10/05/2023	13:44:34.904	0.00000E+0	0.00000E+0	7.58207E+0	1.01502E+1	0.00000E+0	0.00000E+0	1.95200E+1	1.35000E+1	1.95213E+1	1.34994E+1
381	10/05/2023	13:44:36.379	0.00000E+0	0.00000E+0	1.83609E+1	1.90851E+1	0.00000E+0	0.00000E+0	1.95200E+1	1.35000E+1	1.95197E+1	1.34991E+1
382	10/05/2023	13:44:37.929	0.00000E+0	0.00000E+0	1.90716E+1	9.27742E+0	0.00000E+0	0.00000E+0	1.95200E+1	1.35000E+1	1.95182E+1	1.35023E+1
383	10/05/2023	13:44:39.408	0.00000E+0	0.00000E+0	-4.50780E+1	-3.77775E+1	0.00000E+0	0.00000E+0	1.95200E+1	1.35000E+1	1.95193E+1	1.34999E+1
384	10/05/2023	13:44:40.880	0.00000E+0	0.00000E+0	5.82121E+1	5.96888E+1	0.00000E+0	0.00000E+0	1.95200E+1	1.35000E+1	1.95207E+1	1.35017E+1
385	10/05/2023	13:44:42.484	0.00000E+0	0.00000E+0	-4.14331E+1	-4.48213E+1	0.00000E+0	0.00000E+0	1.95200E+1	1.35000E+1	1.95213E+1	1.35001E+1
386	10/05/2023	13:44:43.972	0.00000E+0	0.00000E+0	-5.87328E+1	-5.73892E+1	0.00000E+0	0.00000E+0	1.95200E+1	1.35000E+1	1.95188E+1	1.34995E+1
387	10/05/2023	13:44:45.446	0.00000E+0	0.00000E+0	8.20643E+1	8.53009E+1	0.00000E+0	0.00000E+0	1.95200E+1	1.35000E+1	1.95184E+1	1.34991E+1
388	10/05/2023	13:44:46.929	0.00000E+0	0.00000E+0	3.97033E+1	4.10607E+1	0.00000E+0	0.00000E+0	1.95200E+1	1.35000E+1	1.95211E+1	1.34997E+1
389	10/05/2023	13:44:48.410	0.00000E+0	0.00000E+0	3.68743E+1	2.55014E+1	0.00000E+0	0.00000E+0	1.95200E+1	1.35000E+1	1.95217E+1	1.35001E+1
390	10/05/2023	13:44:49.850	0.00000E+0	0.00000E+0	-7.67064E+1	-7.72694E+1	0.00000E+0	0.00000E+0	1.95200E+1	1.35000E+1	1.95160E+1	1.34987E+1
391	10/05/2023	13:44:51.311	0.00000E+0	0.00000E+0	5.97302E+1	6.33760E+1	0.00000E+0	0.00000E+0	1.95200E+1	1.35000E+1	1.95190E+1	1.34988E+1
392	10/05/2023	13:44:52.789	0.00000E+0	0.00000E+0	-1.26910E+0	-3.32357E+0	0.00000E+0	0.00000E+0	1.95200E+1	1.35000E+1	1.95202E+1	1.35000E+1
393	10/05/2023	13:44:54.384	0.00000E+0	0.00000E+0	-8.93479E+0	-1.07750E+1	0.00000E+0	0.00000E+0	1.95200E+1	1.35000E+1	1.95199E+1	1.35009E+1
394	10/05/2023	13:44:55.856	0.00000E+0	0.00000E+0	-5.31664E+1	-5.27437E+1	0.00000E+0	0.00000E+0	1.95200E+1	1.35000E+1	1.95214E+1	1.34996E+1
395	10/05/2023	13:44:57.487	0.00000E+0	0.00000E+0	-3.06748E+1	-3.01035E+1	0.00000E+0	0.00000E+0	1.95200E+1	1.35000E+1	1.95209E+1	1.34991E+1
396	10/05/2023	13:44:59.010	0.00000E+0	0.00000E+0	1.17636E+1	1.03057E+1	0.00000E+0	0.00000E+0	1.95200E+1	1.35000E+1	1.95209E+1	1.34985E+1
397	10/05/2023	13:45:00.452	0.00000E+0	0.00000E+0	4.88351E+1	5.06327E+1	0.00000E+0	0.00000E+0	1.95200E+1	1.35000E+1	1.95193E+1	1.34980E+1
398	10/05/2023	13:45:02.016	0.00000E+0	0.00000E+0	5.78010E+1	5.92618E+1	0.00000E+0	0.00000E+0	1.95200E+1	1.35000E+1	1.95194E+1	1.35024E+1
399	10/05/2023	13:45:03.488	0.00000E+0	0.00000E+0	6.08601E+1	6.15705E+1	0.00000E+0	0.00000E+0	1.95200E+1	1.35000E+1	1.95213E+1	1.35000E+1
400	10/05/2023	13:45:04.994	0.00000E+0	0.00000E+0	-5.98474E+1	-6.33862E+1	0.00000E+0	0.00000E+0	1.95200E+1	1.35000E+1	1.95204E+1	1.34995E+1
401	10/05/2023	13:45:06.564	0.00000E+0	0.00000E+0	-8.07884E+1	-8.26641E+1	0.00000E+0	0.00000E+0	1.95200E+1	1.35000E+1	1.95205E+1	1.34990E+1
402	10/05/2023	13:45:08.042	0.00000E+0	0.00000E+0	-5.24874E+1	-5.05130E+1	0.00000E+0	0.00000E+0	1.95200E+1	1.35000E+1	1.95197E+1	1.35002E+1
403	10/05/2023	13:45:09.512	0.00000E+0	0.00000E+0	3.19071E+1	3.46108E+1	0.00000E+0	0.00000E+0	1.95200E+1	1.35000E+1	1.95219E+1	1.34974E+1
404	10/05/2023	13:45:11.009	0.00000E+0	0.00000E+0	3.99270E+1	4.37178E+1	0.00000E+0	0.00000E+0	1.95200E+1	1.35000E+1	1.95165E+1	1.35020E+1
405	10/05/2023	13:45:12.521	0.00000E+0	0.00000E+0	3.15051E+1	3.11173E+1	0.00000E+0	0.00000E+0	1.95200E+1	1.35000E+1	1.95207E+1	1.34993E+1
406	10/05/2023	13:45:14.064	0.00000E+0	0.00000E+0	5.08245E+1	5.11644E+1	0.00000E+0	0.00000E+0	1.95200E+1	1.35000E+1	1.95194E+1	1.35007E+1
407	10/05/2023	13:45:15.540	0.00000E+0	0.00000E+0	4.74389E+1	4.83050E+1	0.00000E+0	0.00000E+0	1.95200E+1	1.35000E+1	1.95205E+1	1.35001E+1
408	10/05/2023	13:45:17.102	0.00000E+0	0.00000E+0	4.60406E+1	4.53874E+1	0.00000E+0	0.00000E+0	1.95200E+1	1.35000E+1	1.95201E+1	1.34974E+1
409	10/05/2023	13:45:18.631	0.00000E+0	0.00000E+0	-3.09886E+1	-3.30444E+1	0.00000E+0	0.00000E+0	1.95200E+1	1.35000E+1	1.95184E+1	1.34997E+1
410	10/05/2023	13:45:20.105	0.00000E+0	0.00000E+0	-5.74899E+1	-5.99392E+1	0.00000E+0	0.00000E+0	1.95200E+1	1.35000E+1	1.95217E+1	1.35049E+1
411	10/05/2023	13:45:21.677	0.00000E+0	0.00000E+0	-7.67829E+1	-7.86231E+1	0.00000E+0	0.00000E+0	1.95200E+1	1.35000E+1	1.95222E+1	1.34993E+1
412	10/05/2023	13:45:23.168	0.00000E+0	0.00000E+0	-5.75445E+1	-5.69531E+1	0.00000E+0	0.00000E+0	1.95200E+1	1.35000E+1	1.95178E+1	1.35008E+1
413	10/05/2023	13:45:24.637	0.00000E+0	0.00000E+0	-4.36110E+1	-4.19095E+1	0.00000E+0	0.00000E+0	1.95200E+1	1.35000E+1	1.95197E+1	1.35006E+1
414	10/05/2023	13:45:26.244	0.00000E+0	0.00000E+0	2.28470E+1	2.33035E+1	0.00000E+0	0.00000E+0	1.95200E+1	1.35000E+1	1.95183E+1	1.34991E+1
415	10/05/2023	13:45:27.707	0.00000E+0	0.00000E+0	3.94992E+1	3.75126E+1	0.00000E+0	0.00000E+0	1.95200E+1	1.35000E+1	1.95178E+1	1.35001E+1
416	10/05/2023	13:45:29.201	0.00000E+0	0.00000E+0	2.64200E+1	2.65992E+1	0.00000E+0	0.00000E+0	1.95200E+1	1.35000E+1	1.95202E+1	1.34992E+1
417	10/05/2023	13:45:30.679	0.00000E+0	0.00000E+0	2.51709E+1	2.58933E+1	0.00000E+0	0.00000E+0	1.95200E+1	1.35000E+1	1.95200E+1	1.35005E+1
418	10/05/2023	13:45:32.194	0.00000E+0	0.00000E+0	3.23706E+1	3.24171E+1	0.00000E+0	0.00000E+0	1.95200E+1	1.35000E+1	1.95193E+1	1.34977E+1
419	10/05/2023	13:45:33.754	0.00000E+0	0.00000E+0	3.11072E+1	3.31302E+1	0.00000E+0	0.00000E+0	1.95200E+1	1.35000E+1	1.95216E+1	1.35005E+1
420	10/05/2023	13:45:35.225	0.00000E+0	0.00000E+0	5.64927E+1	5.63162E+1	0.00000E+0	0.00000E+0	1.95200E+1	1.35000E+1	1.95200E+1	1.35011E+1
421	10/05/2023	13:45:36.691	0.00000E+0	0.00000E+0	1.91485E+1	1.93284E+1	0.00000E+0	0.00000E+0	1.95200E+1	1.35000E+1	1.95176E+1	1.34989E+1
422	10/05/2023	13:45:38.169	0.00000E+0	0.00000E+0	-3.80638E+1	-3.94276E+1	0.00000E+0	0.00000E+0	1.95200E+1	1.35000E+1	1.95182E+1	1.35007E+1
423	10/05/2023	13:45:39.618	0.00000E+0	0.00000E+0	-6.26485E+1	-6.76039E+1	0.00000E+0	0.00000E+0	1.95200E+1	1.35000E+1	1.95210E+1	1.34993E+1
424	10/05/2023	13:45:41.194	0.00000E+0	0.00000E+0	-5.95725E+1	-6.07178E+1	0.00000E+0	0.00000E+0	1.95200E+1	1.35000E+1	1.95219E+1	1.34997E+1
425	10/05/2023	13:45:42.666	0.00000E+0	0.00000E+0	-3.49113E+1	-3.45165E+1	0.00000E+0	0.00000E+0	1.95200E+1	1.35000E+1	1.95197E+1	1.35001E+1
426	10/05/2023	13:45:44.178	0.00000E+0	0.00000E+0	-2.21656E+1	-2.20027E+1	0.00000E+0	0.00000E+0	1.95200E+1	1.35000E+1	1.95226E+1	1.34986E+1
427	10/05/2023	13:45:45.778	0.00000E+0	0.00000E+0	-3.38751E+1	-2.62017E+1	0.00000E+0	0.00000E+0	1.95200E+1	1.35000E+1	1.95197E+1	1.35000E+1
428	10/05/2023	13:45:47.274	0.00000E+0	0.00000E+0	2.46567E+1	2.52221E+1	0.00000E+0	0.00000E+0	1.95200E+1	1.35000E+1	1.95170E+1	1.35002E+1
429	10/05/2023	13:45:48.796	0.00000E+0	0.00000E+0	3.49484E+1	3.56773E+1	0.00000E+0	0.00000E+0	1.95200E+1	1.35000E+1	1.95204E+1	1.34981E+1
430	10/05/2023	13:45:50.287	0.00000E+0	0.00000E+0	4.29648E+1	4.31817E+1	0.00000E+0	0.00000E+0	1.95200E+1	1.35000E+1	1.95222E+1	1.34978E+1
431	10/05/2023	13:45:51.751	0.00000E+0	0.00000E+0	5.24930E+1	5.31511E+1	0.00000E+0	0.00000E+0	1.95200E+1	1.35000E+1	1.95203E+1	1.35024E+1
432	10/05/2023	13:45:53.297	0.00000E+0	0.00000E+0	5.00058E+1	5.09920E+1	0.00000E+0	0.00000E+0	1.95200E+1	1.35000E+1	1.95189E+1	1.35003E+1
433	10/05/2023	13:45:54.785	0.00000E+0	0.00000E+0	3.86696E+1	4.09307E+1	0.00000E+0	0.00000E+0	1.95200E+1	1.35000E+1	1.95207E+1	1.34990E+1
434	10/05/2023	13:45:56.303	0.00000E+0	0.00000E+0	-3.68546E+0	-2.94038E+0	0.00000E+0	0.00000E+0	1.95200E+1	1.35000E+1	1.95169E+1	1.34993E+1
435	10/05/2023	13:45:57.845	0.00000E+0	0.00000E+0	-3.22169E+1	-3.58139E+1	0.00000E+0	0.00000E+0	1.95200E+1	1.35000E+1	1.95201E+1	1.34996E+1
436	10/05/2023	13:45:59.331	0.00000E+0	0.00000E+0	-7.71027E+1	-7.86005E+1	0.00000E+0	0.00000E+0	1.95200E+1	1.35000E+1	1.95201E+1	1.34980E+1
437	10/05/2023	13:46:00.867	0.00000E+0	0.00000E+0	-2.31260E+1	-2.25132E+1	0.00000E+0	0.00000E+0	1.95200E+1	1.35000E+1	1.95190E+1	1.35005E+1
438	10/05/2023	13:46:02.337	0.00000E+0	0.00000E+0	-1.54715E+1	-1.44977E+1	0.00000E+0	0.00000E+0	1.95200E+1	1.35000E+1	1.95207E+1	1.34968E+1
439	10/05/2023	13:46:03.829	0.00000E+0	0.00000E+0	-1.91759E+1	-1.86648E+1	0.00000E+0	0.00000E+0	1.95200E+1	1.35000E+1	1.95198E+1	1.34991E+1
440	10/05/2023	13:46:05.411	0.00000E+0	0.00000E+0	-1.77625E+1	-1.75574E+1	0.00000E+0	0.00000E+0	1.95200E+1	1.35000E+1	1.95210E+1	1.34989E+1
441	10/05/2023	13:46:06.894	0.00000E+0	0.00000E+0	-3.60702E+1	-3.85433E+1	0.00000E+0	0.00000E+0	1.95200E+1	1.35000E+1	1.95219E+1	1.35011E+1
442	10/05/2023	13:46:08.483	0.00000E+0	0.00000E+0	-3.58839E+1	-3.50055E+1	0.00000E+0	0.00000E+0	1.95200E+1	1.35000E+1	1.95211E+1	1.35037E+1
443	10/05/2023	13:46:10.092	0.00000E+0	0.00000E+0	4.81408E+1	5.12710E+1	0.00000E+0	0.00000E+0	1.95200E+1	1.35000E+1	1.95216E+1	1.35023E+1
444	10/05/2023	13:46:11.581	0.00000E+0	0.00000E+0	8.55009E+1	9.05280E+1	0.00000E+0	0.00000E+0	1.95200E+1	1.35000E+1	1.95216E+1	1.34988E+1
445	10/05/2023	13:46:13.112	0.00000E+0	0.00000E+0	8.09469E+1	8.25015E+1	0.00000E+0	0.00000E+0	1.95200E+1	1.35000E+1	1.95182E+1	1.35013E+1
446	10/05/2023	13:46:14.608	0.00000E+0	0.00000E+0	-4.52355E+1	-5.05804E+1	0.00000E+0	0.00000E+0	1.95200E+1	1.35000E+1	1.95210E+1	1.34994E+1
447	10/05/2023	13:46:16.105	0.00000E+0	0.00000E+0	-9.86010E+1	-1.00443E+2	0.00000E+0	0.00000E+0	1.95200E+1	1.35000E+1	1.95225E+1	1.34985E+1
448	10/05/2023	13:46:17.696	0.00000E+0	0.00000E+0	-9.03020E+1	-9.04924E+1	0.00000E+0	0.00000E+0	1.95200E+1	1.35000E+1	1.95222E+1	1.35004E+1
449	10/05/2023	13:46:19.196	0.00000E+0	0.00000E+0	-1.55157E+1	-8.04659E+0	0.00000E+0	0.00000E+0	1.95200E+1	1.35000E+1	1.95204E+1	1.35005E+1
450	10/05/2023	13:46:20.667	0.00000E+0	0.00000E+0	4.26316E+1	4.17720E+1	0.00000E+0	0.00000E+0	1.95200E+1	1.35000E+1	1.95182E+1	1.35016E+1
451	10/05/2023	13:46:22.148	0.00000E+0	0.00000E+0	7.79045E+1	8.03186E+1	0.00000E+0	0.00000E+0	1.95200E+1	1.35000E+1	1.95196E+1	1.34997E+1
452	10/05/2023	13:46:23.641	0.00000E+0	0.00000E+0	9.06491E+1	9.30317E+1	0.00000E+0	0.00000E+0	1.95200E+1	1.35000E+1	1.95179E+1	1.35000E+1
453	10/05/2023	13:46:25.205	0.00000E+0	0.00000E+0	8.85722E+1	8.63780E+1	0.00000E+0	0.00000E+0	1.95200E+1	1.35000E+1	1.95205E+1	1.34964E+1
454	10/05/2023	13:46:26.682	0.00000E+0	0.00000E+0	-5.35644E+1	-5.81209E+1	0.00000E+0	0.00000E+0	1.95200E+1	1.35000E+1	1.95206E+1	1.35017E+1
455	10/05/2023	13:46:28.200	0.00000E+0	0.00000E+0	-1.09603E+2	-1.11713E+2	0.00000E+0	0.00000E+0	1.95200E+1	1.35000E+1	1.95218E+1	1.35016E+1
456	10/05/2023	13:46:29.671	0.00000E+0	0.00000E+0	-8.70140E+1	-8.41565E+1	0.00000E+0	0.00000E+0	1.95200E+1	1.35000E+1	1.95212E+1	1.35002E+1
457	10/05/2023	13:46:31.134	0.00000E+0	0.00000E+0	-7.06084E+1	-6.73439E+1	0.00000E+0	0.00000E+0	1.95200E+1	1.35000E+1	1.95205E+1	1.34993E+1
458	10/05/2023	13:46:32.742	0.00000E+0	0.00000E+0	3.18350E+1	3.28459E+1	0.00000E+0	0.00000E+0	1.95200E+1	1.35000E+1	1.95211E+1	1.35009E+1
459	10/05/2023	13:46:34.244	0.00000E+0	0.00000E+0	4.97419E+1	4.93382E+1	0.00000E+0	0.00000E+0	1.95200E+1	1.35000E+1	1.95172E+1	1.35009E+1
460	10/05/2023	13:46:35.695	0.00000E+0	0.00000E+0	4.20650E+1	4.27427E+1	0.00000E+0	0.00000E+0	1.95200E+1	1.35000E+1	1.95205E+1	1.34986E+1
461	10/05/2023	13:46:37.278	0.00000E+0	0.00000E+0	8.73374E+1	8.85984E+1	0.00000E+0	0.00000E+0	1.95200E+1	1.35000E+1	1.95207E+1	1.34996E+1
462	10/05/2023	13:46:38.748	0.00000E+0	0.00000E+0	-5.04442E-1	-1.01438E+1	0.00000E+0	0.00000E+0	1.95200E+1	1.35000E+1	1.95194E+1	1.34985E+1
463	10/05/2023	13:46:40.275	0.00000E+0	0.00000E+0	-1.11271E+2	-1.11204E+2	0.00000E+0	0.00000E+0	1.95200E+1	1.35000E+1	1.95211E+1	1.34995E+1
464	10/05/2023	13:46:41.760	0.00000E+0	0.00000E+0	4.12878E+0	1.17109E+1	0.00000E+0	0.00000E+0	1.95200E+1	1.35000E+1	1.95200E+1	1.35015E+1
465	10/05/2023	13:46:43.241	0.00000E+0	0.00000E+0	7.51502E+1	7.67158E+1	0.00000E+0	0.00000E+0	1.95200E+1	1.35000E+1	1.95211E+1	1.34996E+1
466	10/05/2023	13:46:44.779	0.00000E+0	0.00000E+0	9.64278E+1	1.01609E+2	0.00000E+0	0.00000E+0	1.95200E+1	1.35000E+1	1.95184E+1	1.34996E+1
467	10/05/2023	13:46:46.303	0.00000E+0	0.00000E+0	-2.08380E+1	-2.25491E+1	0.00000E+0	0.00000E+0	1.95200E+1	1.35000E+1	1.95222E+1	1.34995E+1
468	10/05/2023	13:46:47.782	0.00000E+0	0.00000E+0	-4.72097E+1	-4.82335E+1	0.00000E+0	0.00000E+0	1.95200E+1	1.35000E+1	1.95207E+1	1.34986E+1
469	10/05/2023	13:46:49.331	0.00000E+0	0.00000E+0	-4.87345E+1	-4.71762E+1	0.00000E+0	0.00000E+0	1.95200E+1	1.35000E+1	1.95179E+1	1.34991E+1
470	10/05/2023	13:46:50.809	0.00000E+0	0.00000E+0	-5.21973E+1	-5.11482E+1	0.00000E+0	0.00000E+0	1.95200E+1	1.35000E+1	1.95187E+1	1.34987E+1
471	10/05/2023	13:46:52.290	0.00000E+0	0.00000E+0	4.49209E+1	4.64309E+1	0.00000E+0	0.00000E+0	1.95200E+1	1.35000E+1	1.95184E+1	1.35000E+1
472	10/05/2023	13:46:53.767	0.00000E+0	0.00000E+0	4.11222E+1	4.34777E+1	0.00000E+0	0.00000E+0	1.95200E+1	1.35000E+1	1.95210E+1	1.34996E+1
473	10/05/2023	13:46:55.250	0.00000E+0	0.00000E+0	4.82523E+1	4.78824E+1	0.00000E+0	0.00000E+0	1.95200E+1	1.35000E+1	1.95208E+1	1.34988E+1
474	10/05/2023	13:46:56.787	0.00000E+0	0.00000E+0	5.26003E+1	5.46805E+1	0.00000E+0	0.00000E+0	1.95200E+1	1.35000E+1	1.95198E+1	1.35001E+1
475	10/05/2023	13:46:58.260	0.00000E+0	0.00000E+0	5.58328E+1	5.67937E+1	0.00000E+0	0.00000E+0	1.95200E+1	1.35000E+1	1.95204E+1	1.35001E+1
476	10/05/2023	13:46:59.750	0.00000E+0	0.00000E+0	3.22266E+1	3.17368E+1	0.00000E+0	0.00000E+0	1.95200E+1	1.35000E+1	1.95165E+1	1.35018E+1
477	10/05/2023	13:47:01.330	0.00000E+0	0.00000E+0	-6.81722E+1	-6.94013E+1	0.00000E+0	0.00000E+0	1.95200E+1	1.35000E+1	1.95224E+1	1.34999E+1
478	10/05/2023	13:47:02.790	0.00000E+0	0.00000E+0	-8.68471E+1	-8.92697E+1	0.00000E+0	0.00000E+0	1.95200E+1	1.35000E+1	1.95207E+1	1.34999E+1
479	10/05/2023	13:47:04.300	0.00000E+0	0.00000E+0	-7.97281E+1	-7.85612E+1	0.00000E+0	0.00000E+0	1.95200E+1	1.35000E+1	1.95207E+1	1.34991E+1
480	10/05/2023	13:47:05.794	0.00000E+0	0.00000E+0	-5.42027E+1	-5.48828E+1	0.00000E+0	0.00000E+0	1.95200E+1	1.35000E+1	1.95186E+1	1.35003E+1
481	10/05/2023	13:47:07.277	0.00000E+0	0.00000E+0	-2.91842E+1	-3.03315E+1	0.00000E+0	0.00000E+0	1.95200E+1	1.35000E+1	1.95191E+1	1.34991E+1
482	10/05/2023	13:47:08.837	0.00000E+0	0.00000E+0	2.25221E+1	2.35492E+1	0.00000E+0	0.00000E+0	1.95200E+1	1.35000E+1	1.95213E+1	1.34995E+1
483	10/05/2023	13:47:10.319	0.00000E+0	0.00000E+0	8.71107E+0	9.82895E+0	0.00000E+0	0.00000E+0	1.95200E+1	1.35000E+1	1.95217E+1	1.34999E+1
484	10/05/2023	13:47:11.797	0.00000E+0	0.00000E+0	4.66475E+1	4.59485E+1	0.00000E+0	0.00000E+0	1.95200E+1	1.35000E+1	1.95203E+1	1.35017E+1
485	10/05/2023	13:47:13.283	0.00000E+0	0.00000E+0	4.55734E+1	4.75156E+1	0.00000E+0	0.00000E+0	1.95200E+1	1.35000E+1	1.95195E+1	1.34993E+1
486	10/05/2023	13:47:14.837	0.00000E+0	0.00000E+0	4.56428E+1	4.69528E+1	0.00000E+0	0.00000E+0	1.95200E+1	1.35000E+1	1.95203E+1	1.35011E+1
487	10/05/2023	13:47:16.416	0.00000E+0	0.00000E+0	2.86606E+1	3.01995E+1	0.00000E+0	0.00000E+0	1.95200E+1	1.35000E+1	1.95195E+1	1.34986E+1
488	10/05/2023	13:47:17.888	0.00000E+0	0.00000E+0	-4.91200E+0	-4.39384E+0	0.00000E+0	0.00000E+0	1.95200E+1	1.35000E+1	1.95200E+1	1.35017E+1
489	10/05/2023	13:47:19.404	0.00000E+0	0.00000E+0	1.06315E-1	3.15749E-1	0.00000E+0	0.00000E+0	1.95200E+1	1.35000E+1	1.95226E+1	1.34990E+1
490	10/05/2023	13:47:20.886	0.00000E+0	0.00000E+0	1.01639E+0	3.05036E+0	0.00000E+0	0.00000E+0	1.95200E+1	1.35000E+1	1.95230E+1	1.34986E+1
491	10/05/2023	13:47:22.374	0.00000E+0	0.00000E+0	9.45027E+0	6.55743E+0	0.00000E+0	0.00000E+0	1.95200E+1	1.35000E+1	1.95188E+1	1.34980E+1
492	10/05/2023	13:47:23.950	0.00000E+0	0.00000E+0	-9.56809E+0	-9.28676E+0	0.00000E+0	0.00000E+0	1.95200E+1	1.35000E+1	1.95204E+1	1.34980E+1
493	10/05/2023	13:47:25.473	0.00000E+0	0.00000E+0	-1.08396E+1	-1.13189E+1	0.00000E+0	0.00000E+0	1.95200E+1	1.35000E+1	1.95191E+1	1.34993E+1
494	10/05/2023	13:47:26.952	0.00000E+0	0.00000E+0	-1.51859E+1	-1.59196E+1	0.00000E+0	0.00000E+0	1.95200E+1	1.35000E+1	1.95210E+1	1.34996E+1
495	10/05/2023	13:47:28.513	0.00000E+0	0.00000E+0	-9.70656E+0	-1.06805E+1	0.00000E+0	0.00000E+0	1.95200E+1	1.35000E+1	1.95212E+1	1.35006E+1
496	10/05/2023	13:47:29.994	0.00000E+0	0.00000E+0	-2.11572E+1	-2.16666E+1	0.00000E+0	0.00000E+0	1.95200E+1	1.35000E+1	1.95186E+1	1.34997E+1
497	10/05/2023	13:47:31.530	0.00000E+0	0.00000E+0	-1.09307E+1	-1.11214E+1	0.00000E+0	0.00000E+0	1.95200E+1	1.35000E+1	1.95208E+1	1.35006E+1
498	10/05/2023	13:47:32.988	0.00000E+0	0.00000E+0	-1.59902E+1	-1.62069E+1	0.00000E+0	0.00000E+0	1.95200E+1	1.35000E+1	1.95190E+1	1.34988E+1
499	10/05/2023	13:47:34.493	0.00000E+0	0.00000E+0	-1.17827E+1	-1.44001E+1	0.00000E+0	0.00000E+0	1.95200E+1	1.35000E+1	1.95206E+1	1.35002E+1
500	10/05/2023	13:47:36.056	0.00000E+0	0.00000E+0	-2.24159E+1	-2.28137E+1	0.00000E+0	0.00000E+0	1.95200E+1	1.35000E+1	1.95201E+1	1.35008E+1
