#Iteration	Date	Time	Chirp	Phase	RamanAxis	RatioMean	RatioStdDev
1	15/03/2023	17:15:29.164	0.00000000E+0	-6.28318531E+0	4.00000000E+0	3.18664319E-1	0.00000000E+0
3	15/03/2023	17:15:32.155	0.00000000E+0	-6.17849112E+0	4.00000000E+0	3.48899432E-1	0.00000000E+0
5	15/03/2023	17:15:35.151	0.00000000E+0	-6.07379693E+0	4.00000000E+0	6.26876720E-1	0.00000000E+0
7	15/03/2023	17:15:38.128	0.00000000E+0	-5.96910274E+0	4.00000000E+0	4.56793390E-1	0.00000000E+0
9	15/03/2023	17:15:41.106	0.00000000E+0	-5.86440855E+0	4.00000000E+0	3.56146711E-1	0.00000000E+0
11	15/03/2023	17:15:44.005	0.00000000E+0	-5.75971436E+0	4.00000000E+0	3.53549467E-1	0.00000000E+0
13	15/03/2023	17:15:46.979	0.00000000E+0	-5.65502017E+0	4.00000000E+0	3.39722197E-1	0.00000000E+0
15	15/03/2023	17:15:49.910	0.00000000E+0	-5.55032599E+0	4.00000000E+0	3.39085188E-1	0.00000000E+0
17	15/03/2023	17:15:52.903	0.00000000E+0	-5.44524830E+0	4.00000000E+0	3.66999777E-1	0.00000000E+0
19	15/03/2023	17:15:55.837	0.00000000E+0	-5.34055411E+0	4.00000000E+0	3.77379655E-1	0.00000000E+0
21	15/03/2023	17:15:59.061	0.00000000E+0	-5.23585992E+0	4.00000000E+0	3.26898248E-1	0.00000000E+0
23	15/03/2023	17:16:02.003	0.00000000E+0	-5.13116574E+0	4.00000000E+0	6.03503062E-1	0.00000000E+0
25	15/03/2023	17:16:04.983	0.00000000E+0	-5.02647155E+0	4.00000000E+0	4.25450811E-1	0.00000000E+0
27	15/03/2023	17:16:08.004	0.00000000E+0	-4.92177736E+0	4.00000000E+0	4.34150300E-1	0.00000000E+0
29	15/03/2023	17:16:10.930	0.00000000E+0	-4.81708317E+0	4.00000000E+0	3.45168774E-1	0.00000000E+0
31	15/03/2023	17:16:13.929	0.00000000E+0	-4.71238898E+0	4.00000000E+0	5.55346052E-1	0.00000000E+0
33	15/03/2023	17:16:16.901	0.00000000E+0	-4.60769479E+0	4.00000000E+0	4.56465991E-1	0.00000000E+0
35	15/03/2023	17:16:19.858	0.00000000E+0	-4.50300060E+0	4.00000000E+0	5.01843497E-1	0.00000000E+0
37	15/03/2023	17:16:22.804	0.00000000E+0	-4.39830641E+0	4.00000000E+0	4.31562187E-1	0.00000000E+0
39	15/03/2023	17:16:25.788	0.00000000E+0	-4.29361223E+0	4.00000000E+0	3.79040815E-1	0.00000000E+0
41	15/03/2023	17:16:28.759	0.00000000E+0	-4.18891804E+0	4.00000000E+0	4.86418560E-1	0.00000000E+0
43	15/03/2023	17:16:31.713	0.00000000E+0	-4.08422385E+0	4.00000000E+0	3.52199333E-1	0.00000000E+0
45	15/03/2023	17:16:34.683	0.00000000E+0	-3.97952966E+0	4.00000000E+0	3.55265037E-1	0.00000000E+0
47	15/03/2023	17:16:37.641	0.00000000E+0	-3.87445198E+0	4.00000000E+0	3.90937068E-1	0.00000000E+0
49	15/03/2023	17:16:40.594	0.00000000E+0	-3.76975779E+0	4.00000000E+0	3.20984992E-1	0.00000000E+0
51	15/03/2023	17:16:43.587	0.00000000E+0	-3.66506360E+0	4.00000000E+0	3.48343157E-1	0.00000000E+0
53	15/03/2023	17:16:46.521	0.00000000E+0	-3.56036941E+0	4.00000000E+0	3.17910938E-1	0.00000000E+0
55	15/03/2023	17:16:49.511	0.00000000E+0	-3.45567522E+0	4.00000000E+0	3.41474260E-1	0.00000000E+0
57	15/03/2023	17:16:52.451	0.00000000E+0	-3.35098103E+0	4.00000000E+0	3.32899202E-1	0.00000000E+0
59	15/03/2023	17:16:55.471	0.00000000E+0	-3.24628684E+0	4.00000000E+0	5.41358632E-1	0.00000000E+0
61	15/03/2023	17:16:58.418	0.00000000E+0	-3.14159265E+0	4.00000000E+0	4.03878270E-1	0.00000000E+0
63	15/03/2023	17:17:01.350	0.00000000E+0	-3.03689846E+0	4.00000000E+0	4.06625543E-1	0.00000000E+0
65	15/03/2023	17:17:04.351	0.00000000E+0	-2.93220428E+0	4.00000000E+0	3.85383628E-1	0.00000000E+0
67	15/03/2023	17:17:07.342	0.00000000E+0	-2.82751009E+0	4.00000000E+0	5.85653070E-1	0.00000000E+0
69	15/03/2023	17:17:10.313	0.00000000E+0	-2.72281590E+0	4.00000000E+0	6.58688556E-1	0.00000000E+0
71	15/03/2023	17:17:13.315	0.00000000E+0	-2.61812171E+0	4.00000000E+0	5.44817947E-1	0.00000000E+0
73	15/03/2023	17:17:16.279	0.00000000E+0	-2.51342752E+0	4.00000000E+0	5.89177453E-1	0.00000000E+0
75	15/03/2023	17:17:19.271	0.00000000E+0	-2.40873333E+0	4.00000000E+0	6.23161486E-1	0.00000000E+0
77	15/03/2023	17:17:22.290	0.00000000E+0	-2.30365565E+0	4.00000000E+0	6.27642530E-1	0.00000000E+0
79	15/03/2023	17:17:25.230	0.00000000E+0	-2.19896146E+0	4.00000000E+0	5.00682059E-1	0.00000000E+0
81	15/03/2023	17:17:28.162	0.00000000E+0	-2.09426727E+0	4.00000000E+0	4.18476114E-1	0.00000000E+0
83	15/03/2023	17:17:31.158	0.00000000E+0	-1.98957308E+0	4.00000000E+0	3.35809379E-1	0.00000000E+0
85	15/03/2023	17:17:34.128	0.00000000E+0	-1.88487889E+0	4.00000000E+0	3.32924841E-1	0.00000000E+0
87	15/03/2023	17:17:37.079	0.00000000E+0	-1.78018470E+0	4.00000000E+0	4.39348478E-1	0.00000000E+0
89	15/03/2023	17:17:40.110	0.00000000E+0	-1.67549052E+0	4.00000000E+0	4.05562514E-1	0.00000000E+0
91	15/03/2023	17:17:43.077	0.00000000E+0	-1.57079633E+0	4.00000000E+0	6.07206782E-1	0.00000000E+0
93	15/03/2023	17:17:46.063	0.00000000E+0	-1.46610214E+0	4.00000000E+0	5.48838990E-1	0.00000000E+0
95	15/03/2023	17:17:49.051	0.00000000E+0	-1.36140795E+0	4.00000000E+0	6.35342687E-1	0.00000000E+0
97	15/03/2023	17:17:52.038	0.00000000E+0	-1.25671376E+0	4.00000000E+0	5.62148153E-1	0.00000000E+0
99	15/03/2023	17:17:54.991	0.00000000E+0	-1.15201957E+0	4.00000000E+0	4.02569071E-1	0.00000000E+0
101	15/03/2023	17:17:58.000	0.00000000E+0	-1.04732538E+0	4.00000000E+0	5.33033605E-1	0.00000000E+0
103	15/03/2023	17:18:00.966	0.00000000E+0	-9.42631194E-1	4.00000000E+0	3.27165491E-1	0.00000000E+0
105	15/03/2023	17:18:03.981	0.00000000E+0	-8.37937005E-1	4.00000000E+0	4.60870377E-1	0.00000000E+0
107	15/03/2023	17:18:06.966	0.00000000E+0	-7.32859321E-1	4.00000000E+0	5.05881965E-1	0.00000000E+0
109	15/03/2023	17:18:09.929	0.00000000E+0	-6.28165133E-1	4.00000000E+0	4.56572628E-1	0.00000000E+0
111	15/03/2023	17:18:12.955	0.00000000E+0	-5.23470944E-1	4.00000000E+0	6.48204498E-1	0.00000000E+0
113	15/03/2023	17:18:15.928	0.00000000E+0	-4.18776755E-1	4.00000000E+0	6.05541736E-1	0.00000000E+0
115	15/03/2023	17:18:18.869	0.00000000E+0	-3.14082566E-1	4.00000000E+0	6.65844812E-1	0.00000000E+0
117	15/03/2023	17:18:21.825	0.00000000E+0	-2.09388378E-1	4.00000000E+0	6.18002122E-1	0.00000000E+0
119	15/03/2023	17:18:24.753	0.00000000E+0	-1.04694189E-1	4.00000000E+0	6.55569053E-1	0.00000000E+0
121	15/03/2023	17:18:27.748	0.00000000E+0	0.00000000E+0	4.00000000E+0	6.22510873E-1	0.00000000E+0
123	15/03/2023	17:18:30.732	0.00000000E+0	1.04694189E-1	4.00000000E+0	6.30964255E-1	0.00000000E+0
125	15/03/2023	17:18:33.672	0.00000000E+0	2.09388378E-1	4.00000000E+0	5.55651001E-1	0.00000000E+0
127	15/03/2023	17:18:36.678	0.00000000E+0	3.14082566E-1	4.00000000E+0	6.37582329E-1	0.00000000E+0
129	15/03/2023	17:18:39.606	0.00000000E+0	4.18776755E-1	4.00000000E+0	5.84844366E-1	0.00000000E+0
131	15/03/2023	17:18:42.557	0.00000000E+0	5.23470944E-1	4.00000000E+0	4.33916829E-1	0.00000000E+0
133	15/03/2023	17:18:45.493	0.00000000E+0	6.28165133E-1	4.00000000E+0	5.53520619E-1	0.00000000E+0
135	15/03/2023	17:18:48.437	0.00000000E+0	7.32859321E-1	4.00000000E+0	6.35630998E-1	0.00000000E+0
137	15/03/2023	17:18:51.391	0.00000000E+0	8.37937005E-1	4.00000000E+0	5.14525149E-1	0.00000000E+0
139	15/03/2023	17:18:54.422	0.00000000E+0	9.42631194E-1	4.00000000E+0	3.53464711E-1	0.00000000E+0
141	15/03/2023	17:18:57.356	0.00000000E+0	1.04732538E+0	4.00000000E+0	4.72266305E-1	0.00000000E+0
143	15/03/2023	17:19:00.300	0.00000000E+0	1.15201957E+0	4.00000000E+0	3.56454111E-1	0.00000000E+0
145	15/03/2023	17:19:03.270	0.00000000E+0	1.25671376E+0	4.00000000E+0	4.20973262E-1	0.00000000E+0
147	15/03/2023	17:19:06.239	0.00000000E+0	1.36140795E+0	4.00000000E+0	3.42713718E-1	0.00000000E+0
149	15/03/2023	17:19:09.192	0.00000000E+0	1.46610214E+0	4.00000000E+0	3.81691554E-1	0.00000000E+0
151	15/03/2023	17:19:12.182	0.00000000E+0	1.57079633E+0	4.00000000E+0	5.30565752E-1	0.00000000E+0
153	15/03/2023	17:19:15.166	0.00000000E+0	1.67549052E+0	4.00000000E+0	3.74845590E-1	0.00000000E+0
155	15/03/2023	17:19:18.073	0.00000000E+0	1.78018470E+0	4.00000000E+0	3.37202843E-1	0.00000000E+0
157	15/03/2023	17:19:21.038	0.00000000E+0	1.88487889E+0	4.00000000E+0	3.00924431E-1	0.00000000E+0
159	15/03/2023	17:19:23.978	0.00000000E+0	1.98957308E+0	4.00000000E+0	4.36599983E-1	0.00000000E+0
161	15/03/2023	17:19:26.980	0.00000000E+0	2.09426727E+0	4.00000000E+0	4.25487674E-1	0.00000000E+0
163	15/03/2023	17:19:29.873	0.00000000E+0	2.19896146E+0	4.00000000E+0	4.93127572E-1	0.00000000E+0
165	15/03/2023	17:19:32.874	0.00000000E+0	2.30365565E+0	4.00000000E+0	3.77558364E-1	0.00000000E+0
167	15/03/2023	17:19:35.822	0.00000000E+0	2.40873333E+0	4.00000000E+0	3.74257299E-1	0.00000000E+0
169	15/03/2023	17:19:38.790	0.00000000E+0	2.51342752E+0	4.00000000E+0	3.33309958E-1	0.00000000E+0
171	15/03/2023	17:19:41.770	0.00000000E+0	2.61812171E+0	4.00000000E+0	4.90675477E-1	0.00000000E+0
173	15/03/2023	17:19:44.689	0.00000000E+0	2.72281590E+0	4.00000000E+0	6.70890229E-1	0.00000000E+0
175	15/03/2023	17:19:47.664	0.00000000E+0	2.82751009E+0	4.00000000E+0	6.07692735E-1	0.00000000E+0
177	15/03/2023	17:19:50.625	0.00000000E+0	2.93220428E+0	4.00000000E+0	6.62770467E-1	0.00000000E+0
179	15/03/2023	17:19:53.577	0.00000000E+0	3.03689846E+0	4.00000000E+0	5.60847735E-1	0.00000000E+0
181	15/03/2023	17:19:56.494	0.00000000E+0	3.14159265E+0	4.00000000E+0	3.29151238E-1	0.00000000E+0
183	15/03/2023	17:19:59.466	0.00000000E+0	3.24628684E+0	4.00000000E+0	4.27080615E-1	0.00000000E+0
185	15/03/2023	17:20:02.402	0.00000000E+0	3.35098103E+0	4.00000000E+0	3.36060705E-1	0.00000000E+0
187	15/03/2023	17:20:05.357	0.00000000E+0	3.45567522E+0	4.00000000E+0	4.86263224E-1	0.00000000E+0
189	15/03/2023	17:20:08.274	0.00000000E+0	3.56036941E+0	4.00000000E+0	5.46039757E-1	0.00000000E+0
191	15/03/2023	17:20:11.243	0.00000000E+0	3.66506360E+0	4.00000000E+0	3.32268271E-1	0.00000000E+0
193	15/03/2023	17:20:14.183	0.00000000E+0	3.76975779E+0	4.00000000E+0	4.39562168E-1	0.00000000E+0
195	15/03/2023	17:20:17.159	0.00000000E+0	3.87445198E+0	4.00000000E+0	3.62260328E-1	0.00000000E+0
197	15/03/2023	17:20:20.028	0.00000000E+0	3.97952966E+0	4.00000000E+0	3.33959054E-1	0.00000000E+0
199	15/03/2023	17:20:23.041	0.00000000E+0	4.08422385E+0	4.00000000E+0	3.62651902E-1	0.00000000E+0
201	15/03/2023	17:20:26.022	0.00000000E+0	4.18891804E+0	4.00000000E+0	3.19127163E-1	0.00000000E+0
203	15/03/2023	17:20:28.978	0.00000000E+0	4.29361223E+0	4.00000000E+0	3.42792144E-1	0.00000000E+0
205	15/03/2023	17:20:31.938	0.00000000E+0	4.39830641E+0	4.00000000E+0	6.54753205E-1	0.00000000E+0
207	15/03/2023	17:20:34.912	0.00000000E+0	4.50300060E+0	4.00000000E+0	6.06679621E-1	0.00000000E+0
209	15/03/2023	17:20:37.836	0.00000000E+0	4.60769479E+0	4.00000000E+0	4.42718166E-1	0.00000000E+0
211	15/03/2023	17:20:40.803	0.00000000E+0	4.71238898E+0	4.00000000E+0	4.29005835E-1	0.00000000E+0
213	15/03/2023	17:20:43.765	0.00000000E+0	4.81708317E+0	4.00000000E+0	3.36364759E-1	0.00000000E+0
215	15/03/2023	17:20:46.708	0.00000000E+0	4.92177736E+0	4.00000000E+0	5.46586787E-1	0.00000000E+0
217	15/03/2023	17:20:49.630	0.00000000E+0	5.02647155E+0	4.00000000E+0	6.20242636E-1	0.00000000E+0
219	15/03/2023	17:20:52.602	0.00000000E+0	5.13116574E+0	4.00000000E+0	5.93172542E-1	0.00000000E+0
221	15/03/2023	17:20:55.554	0.00000000E+0	5.23585992E+0	4.00000000E+0	6.59877462E-1	0.00000000E+0
223	15/03/2023	17:20:58.532	0.00000000E+0	5.34055411E+0	4.00000000E+0	6.33522820E-1	0.00000000E+0
225	15/03/2023	17:21:01.510	0.00000000E+0	5.44524830E+0	4.00000000E+0	5.60948423E-1	0.00000000E+0
227	15/03/2023	17:21:04.458	0.00000000E+0	5.55032599E+0	4.00000000E+0	5.30653384E-1	0.00000000E+0
229	15/03/2023	17:21:07.417	0.00000000E+0	5.65502017E+0	4.00000000E+0	6.34229089E-1	0.00000000E+0
231	15/03/2023	17:21:10.411	0.00000000E+0	5.75971436E+0	4.00000000E+0	5.95300205E-1	0.00000000E+0
233	15/03/2023	17:21:13.369	0.00000000E+0	5.86440855E+0	4.00000000E+0	6.44295429E-1	0.00000000E+0
235	15/03/2023	17:21:16.315	0.00000000E+0	5.96910274E+0	4.00000000E+0	6.49860920E-1	0.00000000E+0
237	15/03/2023	17:21:19.290	0.00000000E+0	6.07379693E+0	4.00000000E+0	6.46283220E-1	0.00000000E+0
239	15/03/2023	17:21:22.212	0.00000000E+0	6.17849112E+0	4.00000000E+0	6.70240343E-1	0.00000000E+0
241	15/03/2023	17:21:25.209	0.00000000E+0	6.28318531E+0	4.00000000E+0	5.72413342E-1	0.00000000E+0
