#Iteration	Date	Time	STSX	STSY	RotationRateX	RotationRateY	FrCntX	FrCntY	TiptiltCmd1	TiptiltCmd2	TiptiltMonitor1	TiptiltMonitor2
1	15/03/2023	17:15:29.164	0.00000E+0	0.00000E+0	-3.87362E-1	-2.72416E-1	0.00000E+0	0.00000E+0	2.12413E+1	1.36978E+1	2.12423E+1	1.36965E+1
2	15/03/2023	17:15:30.659	0.00000E+0	0.00000E+0	2.62903E-1	9.60713E-2	0.00000E+0	0.00000E+0	2.12502E+1	1.36950E+1	2.12491E+1	1.36943E+1
3	15/03/2023	17:15:32.155	0.00000E+0	0.00000E+0	4.62046E+1	-9.21654E-1	0.00000E+0	0.00000E+0	2.18237E+1	1.31288E+1	2.18205E+1	1.31304E+1
4	15/03/2023	17:15:33.654	0.00000E+0	0.00000E+0	3.78671E+1	1.75739E+0	0.00000E+0	0.00000E+0	2.20160E+1	1.29591E+1	2.20173E+1	1.29588E+1
5	15/03/2023	17:15:35.151	0.00000E+0	0.00000E+0	-2.22776E+2	-3.18456E+0	0.00000E+0	0.00000E+0	1.81363E+1	1.68355E+1	1.81362E+1	1.68352E+1
6	15/03/2023	17:15:36.669	0.00000E+0	0.00000E+0	7.23660E+1	3.14937E-1	0.00000E+0	0.00000E+0	2.21841E+1	1.27648E+1	2.21836E+1	1.27640E+1
7	15/03/2023	17:15:38.128	0.00000E+0	0.00000E+0	1.79491E+2	2.27170E+0	0.00000E+0	0.00000E+0	2.37629E+1	1.12014E+1	2.37629E+1	1.12005E+1
8	15/03/2023	17:15:39.596	0.00000E+0	0.00000E+0	-8.52435E+1	-8.41369E-1	0.00000E+0	0.00000E+0	2.01668E+1	1.47678E+1	2.01700E+1	1.47698E+1
9	15/03/2023	17:15:41.106	0.00000E+0	0.00000E+0	-1.90859E+2	-9.67928E-1	0.00000E+0	0.00000E+0	1.85168E+1	1.64239E+1	1.85160E+1	1.64240E+1
10	15/03/2023	17:15:42.557	0.00000E+0	0.00000E+0	1.21273E+2	5.08153E-1	0.00000E+0	0.00000E+0	2.28075E+1	1.20950E+1	2.28070E+1	1.20943E+1
11	15/03/2023	17:15:44.005	0.00000E+0	0.00000E+0	2.03096E+2	3.32386E-1	0.00000E+0	0.00000E+0	2.41572E+1	1.08164E+1	2.41548E+1	1.08174E+1
12	15/03/2023	17:15:45.494	0.00000E+0	0.00000E+0	-1.54280E+2	-2.22295E+0	0.00000E+0	0.00000E+0	1.91442E+1	1.57564E+1	1.91434E+1	1.57582E+1
13	15/03/2023	17:15:46.979	0.00000E+0	0.00000E+0	-1.66109E+2	-1.02071E+0	0.00000E+0	0.00000E+0	1.88340E+1	1.60720E+1	1.88369E+1	1.60711E+1
14	15/03/2023	17:15:48.457	0.00000E+0	0.00000E+0	1.72328E+2	2.56320E+0	0.00000E+0	0.00000E+0	2.35860E+1	1.14010E+1	2.35861E+1	1.14031E+1
15	15/03/2023	17:15:49.910	0.00000E+0	0.00000E+0	1.61668E+2	2.62746E+0	0.00000E+0	0.00000E+0	2.36121E+1	1.13453E+1	2.36136E+1	1.13450E+1
16	15/03/2023	17:15:51.371	0.00000E+0	0.00000E+0	-1.95012E+2	-3.38144E+0	0.00000E+0	0.00000E+0	1.85705E+1	1.64000E+1	1.85681E+1	1.63988E+1
17	15/03/2023	17:15:52.903	0.00000E+0	0.00000E+0	-8.32841E+1	8.37016E-2	0.00000E+0	0.00000E+0	1.98506E+1	1.50765E+1	1.98473E+1	1.50757E+1
18	15/03/2023	17:15:54.360	0.00000E+0	0.00000E+0	1.72970E+2	-2.36724E+0	0.00000E+0	0.00000E+0	2.37514E+1	1.12326E+1	2.37508E+1	1.12321E+1
19	15/03/2023	17:15:55.837	0.00000E+0	0.00000E+0	1.95533E+2	3.69579E+0	0.00000E+0	0.00000E+0	2.40378E+1	1.09230E+1	2.40379E+1	1.09219E+1
20	15/03/2023	17:15:57.509	0.00000E+0	0.00000E+0	-1.36811E+2	2.77125E-1	0.00000E+0	0.00000E+0	1.93521E+1	1.55551E+1	1.93486E+1	1.55567E+1
21	15/03/2023	17:15:59.061	0.00000E+0	0.00000E+0	-1.00251E+2	7.67725E-2	0.00000E+0	0.00000E+0	1.96981E+1	1.52528E+1	1.96975E+1	1.52546E+1
22	15/03/2023	17:16:00.542	0.00000E+0	0.00000E+0	1.26098E+2	1.59622E+0	0.00000E+0	0.00000E+0	2.30193E+1	1.19481E+1	2.30185E+1	1.19473E+1
23	15/03/2023	17:16:02.003	0.00000E+0	0.00000E+0	7.53870E+1	1.28386E+0	0.00000E+0	0.00000E+0	2.24188E+1	1.25587E+1	2.24221E+1	1.25584E+1
24	15/03/2023	17:16:03.493	0.00000E+0	0.00000E+0	-2.25248E+2	-1.97725E+0	0.00000E+0	0.00000E+0	1.81151E+1	1.68522E+1	1.81156E+1	1.68541E+1
25	15/03/2023	17:16:04.983	0.00000E+0	0.00000E+0	-2.88981E+0	-4.61776E-1	0.00000E+0	0.00000E+0	2.09325E+1	1.40028E+1	2.09322E+1	1.40019E+1
26	15/03/2023	17:16:06.481	0.00000E+0	0.00000E+0	1.84644E+2	1.49948E-1	0.00000E+0	0.00000E+0	2.38538E+1	1.11819E+1	2.38527E+1	1.11830E+1
27	15/03/2023	17:16:08.004	0.00000E+0	0.00000E+0	-1.35012E+2	-3.73563E-1	0.00000E+0	0.00000E+0	1.94338E+1	1.54748E+1	1.94331E+1	1.54751E+1
28	15/03/2023	17:16:09.475	0.00000E+0	0.00000E+0	-1.89308E+2	-1.83053E+0	0.00000E+0	0.00000E+0	1.85197E+1	1.64298E+1	1.85207E+1	1.64307E+1
29	15/03/2023	17:16:10.930	0.00000E+0	0.00000E+0	1.43298E+2	1.56423E+0	0.00000E+0	0.00000E+0	2.31932E+1	1.17723E+1	2.31927E+1	1.17728E+1
30	15/03/2023	17:16:12.432	0.00000E+0	0.00000E+0	1.74207E+2	3.85564E+0	0.00000E+0	0.00000E+0	2.37468E+1	1.12013E+1	2.37487E+1	1.12008E+1
31	15/03/2023	17:16:13.929	0.00000E+0	0.00000E+0	-1.49072E+2	-9.83263E-1	0.00000E+0	0.00000E+0	1.92453E+1	1.56478E+1	1.92450E+1	1.56510E+1
32	15/03/2023	17:16:15.409	0.00000E+0	0.00000E+0	-1.74264E+2	-2.38552E+0	0.00000E+0	0.00000E+0	1.87289E+1	1.61942E+1	1.87288E+1	1.61958E+1
33	15/03/2023	17:16:16.901	0.00000E+0	0.00000E+0	1.95566E+2	-1.36987E-1	0.00000E+0	0.00000E+0	2.40130E+1	1.10011E+1	2.40137E+1	1.10016E+1
34	15/03/2023	17:16:18.370	0.00000E+0	0.00000E+0	7.85246E+1	6.51260E-1	0.00000E+0	0.00000E+0	2.25832E+1	1.23716E+1	2.25817E+1	1.23715E+1
35	15/03/2023	17:16:19.858	0.00000E+0	0.00000E+0	-1.82981E+2	-2.89164E-1	0.00000E+0	0.00000E+0	1.86508E+1	1.62348E+1	1.86497E+1	1.62357E+1
36	15/03/2023	17:16:21.343	0.00000E+0	0.00000E+0	-5.21215E+1	-7.33349E-1	0.00000E+0	0.00000E+0	2.03365E+1	1.46190E+1	2.03361E+1	1.46175E+1
37	15/03/2023	17:16:22.804	0.00000E+0	0.00000E+0	1.88535E+2	1.61407E+0	0.00000E+0	0.00000E+0	2.38894E+1	1.10669E+1	2.38917E+1	1.10688E+1
38	15/03/2023	17:16:24.300	0.00000E+0	0.00000E+0	1.89005E+1	1.07007E+0	0.00000E+0	0.00000E+0	2.17372E+1	1.32031E+1	2.17387E+1	1.32015E+1
39	15/03/2023	17:16:25.788	0.00000E+0	0.00000E+0	-1.78731E+2	5.33661E-1	0.00000E+0	0.00000E+0	1.87022E+1	1.61641E+1	1.87022E+1	1.61627E+1
40	15/03/2023	17:16:27.279	0.00000E+0	0.00000E+0	-6.20352E+1	5.98638E-1	0.00000E+0	0.00000E+0	2.01443E+1	1.48026E+1	2.01432E+1	1.48026E+1
41	15/03/2023	17:16:28.759	0.00000E+0	0.00000E+0	1.95401E+2	4.65817E-1	0.00000E+0	0.00000E+0	2.40285E+1	1.09439E+1	2.40285E+1	1.09425E+1
42	15/03/2023	17:16:30.242	0.00000E+0	0.00000E+0	5.61497E+0	1.25250E+0	0.00000E+0	0.00000E+0	2.14890E+1	1.34367E+1	2.14884E+1	1.34366E+1
43	15/03/2023	17:16:31.713	0.00000E+0	0.00000E+0	-2.01994E+2	-2.20956E+0	0.00000E+0	0.00000E+0	1.84157E+1	1.65385E+1	1.84165E+1	1.65391E+1
44	15/03/2023	17:16:33.205	0.00000E+0	0.00000E+0	3.09552E+1	-3.01766E+0	0.00000E+0	0.00000E+0	2.16238E+1	1.33577E+1	2.16265E+1	1.33604E+1
45	15/03/2023	17:16:34.683	0.00000E+0	0.00000E+0	2.00410E+2	-2.01864E-1	0.00000E+0	0.00000E+0	2.40727E+1	1.09160E+1	2.40710E+1	1.09157E+1
46	15/03/2023	17:16:36.169	0.00000E+0	0.00000E+0	-2.42717E+1	4.75536E-2	0.00000E+0	0.00000E+0	2.10650E+1	1.38941E+1	2.10617E+1	1.38948E+1
47	15/03/2023	17:16:37.641	0.00000E+0	0.00000E+0	-2.07460E+2	1.26559E+0	0.00000E+0	0.00000E+0	1.83028E+1	1.66301E+1	1.83044E+1	1.66319E+1
48	15/03/2023	17:16:39.138	0.00000E+0	0.00000E+0	3.03180E+1	-2.24064E+0	0.00000E+0	0.00000E+0	2.15920E+1	1.33723E+1	2.15948E+1	1.33710E+1
49	15/03/2023	17:16:40.594	0.00000E+0	0.00000E+0	2.05665E+2	2.03852E+0	0.00000E+0	0.00000E+0	2.41332E+1	1.08586E+1	2.41330E+1	1.08606E+1
50	15/03/2023	17:16:42.075	0.00000E+0	0.00000E+0	-1.08229E+1	-9.96441E-1	0.00000E+0	0.00000E+0	2.12778E+1	1.36827E+1	2.12781E+1	1.36813E+1
51	15/03/2023	17:16:43.587	0.00000E+0	0.00000E+0	-1.99496E+2	-3.58029E-1	0.00000E+0	0.00000E+0	1.84479E+1	1.65282E+1	1.84443E+1	1.65271E+1
52	15/03/2023	17:16:45.062	0.00000E+0	0.00000E+0	1.15804E+0	3.08114E-1	0.00000E+0	0.00000E+0	2.10413E+1	1.38968E+1	2.10416E+1	1.38960E+1
53	15/03/2023	17:16:46.521	0.00000E+0	0.00000E+0	2.11299E+2	3.49865E+0	0.00000E+0	0.00000E+0	2.42296E+1	1.07798E+1	2.42297E+1	1.07791E+1
54	15/03/2023	17:16:48.012	0.00000E+0	0.00000E+0	-9.20122E+0	-1.74831E+0	0.00000E+0	0.00000E+0	2.12548E+1	1.36942E+1	2.12529E+1	1.36957E+1
55	15/03/2023	17:16:49.511	0.00000E+0	0.00000E+0	-1.85335E+2	-4.22203E+0	0.00000E+0	0.00000E+0	1.86607E+1	1.63356E+1	1.86606E+1	1.63363E+1
56	15/03/2023	17:16:50.979	0.00000E+0	0.00000E+0	-3.58558E+1	-1.33853E-1	0.00000E+0	0.00000E+0	2.04966E+1	1.44398E+1	2.04960E+1	1.44397E+1
57	15/03/2023	17:16:52.451	0.00000E+0	0.00000E+0	1.81264E+2	1.48526E+0	0.00000E+0	0.00000E+0	2.38252E+1	1.11670E+1	2.38281E+1	1.11675E+1
58	15/03/2023	17:16:53.938	0.00000E+0	0.00000E+0	-1.46238E+1	3.18165E-1	0.00000E+0	0.00000E+0	2.12168E+1	1.37174E+1	2.12176E+1	1.37167E+1
59	15/03/2023	17:16:55.471	0.00000E+0	0.00000E+0	-2.02346E+2	-3.98310E+0	0.00000E+0	0.00000E+0	1.84175E+1	1.65350E+1	1.84165E+1	1.65326E+1
60	15/03/2023	17:16:56.940	0.00000E+0	0.00000E+0	4.76760E+1	1.48613E+0	0.00000E+0	0.00000E+0	2.18260E+1	1.31001E+1	2.18241E+1	1.30985E+1
61	15/03/2023	17:16:58.418	0.00000E+0	0.00000E+0	2.24758E+2	2.20057E+0	0.00000E+0	0.00000E+0	2.44394E+1	1.06067E+1	2.44389E+1	1.06060E+1
62	15/03/2023	17:16:59.877	0.00000E+0	0.00000E+0	-4.10838E+1	4.47558E-2	0.00000E+0	0.00000E+0	2.08329E+1	1.41345E+1	2.08329E+1	1.41349E+1
63	15/03/2023	17:17:01.350	0.00000E+0	0.00000E+0	-2.17819E+2	-1.55584E+0	0.00000E+0	0.00000E+0	1.81669E+1	1.67246E+1	1.81659E+1	1.67237E+1
64	15/03/2023	17:17:02.875	0.00000E+0	0.00000E+0	5.77969E+1	-9.65490E-1	0.00000E+0	0.00000E+0	2.19344E+1	1.30186E+1	2.19373E+1	1.30172E+1
65	15/03/2023	17:17:04.351	0.00000E+0	0.00000E+0	2.19955E+2	2.19981E+0	0.00000E+0	0.00000E+0	2.44069E+1	1.05831E+1	2.44077E+1	1.05822E+1
66	15/03/2023	17:17:05.847	0.00000E+0	0.00000E+0	-1.18470E+2	4.27693E-1	0.00000E+0	0.00000E+0	1.96607E+1	1.52781E+1	1.96626E+1	1.52774E+1
67	15/03/2023	17:17:07.342	0.00000E+0	0.00000E+0	-1.60113E+2	-3.42662E+0	0.00000E+0	0.00000E+0	1.89375E+1	1.60066E+1	1.89374E+1	1.60072E+1
68	15/03/2023	17:17:08.816	0.00000E+0	0.00000E+0	1.50146E+2	1.01701E+0	0.00000E+0	0.00000E+0	2.32308E+1	1.16859E+1	2.32333E+1	1.16888E+1
69	15/03/2023	17:17:10.313	0.00000E+0	0.00000E+0	2.22453E+2	2.22534E+0	0.00000E+0	0.00000E+0	2.44929E+1	1.04606E+1	2.44931E+1	1.04600E+1
70	15/03/2023	17:17:11.806	0.00000E+0	0.00000E+0	-1.83088E+2	1.82524E+0	0.00000E+0	0.00000E+0	1.87011E+1	1.62387E+1	1.87022E+1	1.62384E+1
71	15/03/2023	17:17:13.315	0.00000E+0	0.00000E+0	-1.69798E+2	4.05414E-1	0.00000E+0	0.00000E+0	1.87568E+1	1.61427E+1	1.87573E+1	1.61419E+1
72	15/03/2023	17:17:14.811	0.00000E+0	0.00000E+0	1.65397E+2	1.15186E+0	0.00000E+0	0.00000E+0	2.35622E+1	1.14191E+1	2.35623E+1	1.14204E+1
73	15/03/2023	17:17:16.279	0.00000E+0	0.00000E+0	8.79313E+1	3.56665E-2	0.00000E+0	0.00000E+0	2.26880E+1	1.22844E+1	2.26890E+1	1.22815E+1
74	15/03/2023	17:17:17.781	0.00000E+0	0.00000E+0	-1.76776E+2	-5.38217E+0	0.00000E+0	0.00000E+0	1.88180E+1	1.61339E+1	1.88196E+1	1.61340E+1
75	15/03/2023	17:17:19.271	0.00000E+0	0.00000E+0	2.73249E+1	2.51519E-1	0.00000E+0	0.00000E+0	2.15181E+1	1.34742E+1	2.15173E+1	1.34741E+1
76	15/03/2023	17:17:20.791	0.00000E+0	0.00000E+0	1.84114E+2	1.37072E+0	0.00000E+0	0.00000E+0	2.39418E+1	1.10669E+1	2.39417E+1	1.10664E+1
77	15/03/2023	17:17:22.290	0.00000E+0	0.00000E+0	-1.08334E+2	-8.89522E-1	0.00000E+0	0.00000E+0	1.98403E+1	1.50844E+1	1.98420E+1	1.50843E+1
78	15/03/2023	17:17:23.744	0.00000E+0	0.00000E+0	-2.11924E+2	-2.79284E+0	0.00000E+0	0.00000E+0	1.81832E+1	1.66989E+1	1.81821E+1	1.67006E+1
79	15/03/2023	17:17:25.230	0.00000E+0	0.00000E+0	1.56257E+2	2.31912E+0	0.00000E+0	0.00000E+0	2.33493E+1	1.16268E+1	2.33495E+1	1.16261E+1
80	15/03/2023	17:17:26.734	0.00000E+0	0.00000E+0	1.70459E+2	4.48220E-1	0.00000E+0	0.00000E+0	2.37387E+1	1.12219E+1	2.37394E+1	1.12208E+1
81	15/03/2023	17:17:28.162	0.00000E+0	0.00000E+0	-1.62562E+2	-8.01475E-1	0.00000E+0	0.00000E+0	1.89958E+1	1.59125E+1	1.89942E+1	1.59120E+1
82	15/03/2023	17:17:29.675	0.00000E+0	0.00000E+0	-1.52942E+2	1.27217E-1	0.00000E+0	0.00000E+0	1.89636E+1	1.59396E+1	1.89634E+1	1.59404E+1
83	15/03/2023	17:17:31.158	0.00000E+0	0.00000E+0	2.05843E+2	5.76862E-1	0.00000E+0	0.00000E+0	2.41389E+1	1.08524E+1	2.41401E+1	1.08506E+1
84	15/03/2023	17:17:32.639	0.00000E+0	0.00000E+0	8.42092E+1	7.19175E-2	0.00000E+0	0.00000E+0	2.26036E+1	1.23613E+1	2.26030E+1	1.23617E+1
85	15/03/2023	17:17:34.128	0.00000E+0	0.00000E+0	-1.96415E+2	-3.02647E+0	0.00000E+0	0.00000E+0	1.84691E+1	1.64260E+1	1.84720E+1	1.64263E+1
86	15/03/2023	17:17:35.603	0.00000E+0	0.00000E+0	-5.55127E+1	-7.81889E-2	0.00000E+0	0.00000E+0	2.02604E+1	1.47085E+1	2.02611E+1	1.47073E+1
87	15/03/2023	17:17:37.079	0.00000E+0	0.00000E+0	2.09254E+2	1.27954E+0	0.00000E+0	0.00000E+0	2.41796E+1	1.08116E+1	2.41807E+1	1.08120E+1
88	15/03/2023	17:17:38.664	0.00000E+0	0.00000E+0	-3.49663E+1	-8.75824E-2	0.00000E+0	0.00000E+0	2.09116E+1	1.40390E+1	2.09117E+1	1.40377E+1
89	15/03/2023	17:17:40.110	0.00000E+0	0.00000E+0	-2.02963E+2	-2.86209E+0	0.00000E+0	0.00000E+0	1.82994E+1	1.65592E+1	1.83003E+1	1.65598E+1
90	15/03/2023	17:17:41.604	0.00000E+0	0.00000E+0	6.36788E+1	2.28506E+0	0.00000E+0	0.00000E+0	2.20373E+1	1.29155E+1	2.20386E+1	1.29146E+1
91	15/03/2023	17:17:43.077	0.00000E+0	0.00000E+0	2.07811E+2	2.19700E+0	0.00000E+0	0.00000E+0	2.42347E+1	1.07393E+1	2.42336E+1	1.07391E+1
92	15/03/2023	17:17:44.534	0.00000E+0	0.00000E+0	-1.05176E+2	-2.21458E+0	0.00000E+0	0.00000E+0	1.98522E+1	1.51088E+1	1.98530E+1	1.51109E+1
93	15/03/2023	17:17:46.063	0.00000E+0	0.00000E+0	-1.82612E+2	-2.35656E+0	0.00000E+0	0.00000E+0	1.85974E+1	1.63342E+1	1.85940E+1	1.63338E+1
94	15/03/2023	17:17:47.554	0.00000E+0	0.00000E+0	9.53290E+1	1.13374E+0	0.00000E+0	0.00000E+0	2.25057E+1	1.25218E+1	2.25071E+1	1.25187E+1
95	15/03/2023	17:17:49.051	0.00000E+0	0.00000E+0	2.20063E+2	3.00510E+0	0.00000E+0	0.00000E+0	2.43795E+1	1.05898E+1	2.43797E+1	1.05907E+1
96	15/03/2023	17:17:50.541	0.00000E+0	0.00000E+0	-1.29249E+2	-8.39865E-1	0.00000E+0	0.00000E+0	1.95289E+1	1.54100E+1	1.95288E+1	1.54106E+1
97	15/03/2023	17:17:52.038	0.00000E+0	0.00000E+0	-2.04497E+2	2.39613E+0	0.00000E+0	0.00000E+0	1.83188E+1	1.66659E+1	1.83186E+1	1.66650E+1
98	15/03/2023	17:17:53.480	0.00000E+0	0.00000E+0	1.28393E+2	1.35203E-1	0.00000E+0	0.00000E+0	2.30191E+1	1.19546E+1	2.30193E+1	1.19561E+1
99	15/03/2023	17:17:54.991	0.00000E+0	0.00000E+0	1.81239E+2	1.41514E-1	0.00000E+0	0.00000E+0	2.38753E+1	1.11289E+1	2.38769E+1	1.11289E+1
100	15/03/2023	17:17:56.469	0.00000E+0	0.00000E+0	-1.52215E+2	1.26320E+0	0.00000E+0	0.00000E+0	1.90949E+1	1.58041E+1	1.90942E+1	1.58049E+1
101	15/03/2023	17:17:58.000	0.00000E+0	0.00000E+0	-1.38714E+2	-2.91630E-1	0.00000E+0	0.00000E+0	1.91540E+1	1.57689E+1	1.91527E+1	1.57696E+1
102	15/03/2023	17:17:59.470	0.00000E+0	0.00000E+0	1.89579E+2	8.43600E-1	0.00000E+0	0.00000E+0	2.39021E+1	1.11344E+1	2.39003E+1	1.11345E+1
103	15/03/2023	17:18:00.966	0.00000E+0	0.00000E+0	5.79478E+1	-3.12533E-1	0.00000E+0	0.00000E+0	2.23030E+1	1.26715E+1	2.23017E+1	1.26723E+1
104	15/03/2023	17:18:02.459	0.00000E+0	0.00000E+0	-1.85492E+2	-1.10543E+0	0.00000E+0	0.00000E+0	1.85880E+1	1.62700E+1	1.85880E+1	1.62710E+1
105	15/03/2023	17:18:03.981	0.00000E+0	0.00000E+0	1.94586E+0	4.00555E-2	0.00000E+0	0.00000E+0	2.10754E+1	1.38981E+1	2.10752E+1	1.38982E+1
106	15/03/2023	17:18:05.475	0.00000E+0	0.00000E+0	2.15914E+2	2.85039E+0	0.00000E+0	0.00000E+0	2.42822E+1	1.06923E+1	2.42814E+1	1.06909E+1
107	15/03/2023	17:18:06.966	0.00000E+0	0.00000E+0	-4.80886E+1	-2.23881E+0	0.00000E+0	0.00000E+0	2.06829E+1	1.42522E+1	2.06814E+1	1.42529E+1
108	15/03/2023	17:18:08.428	0.00000E+0	0.00000E+0	-2.12864E+2	-1.36467E+0	0.00000E+0	0.00000E+0	1.81862E+1	1.67325E+1	1.81835E+1	1.67329E+1
109	15/03/2023	17:18:09.929	0.00000E+0	0.00000E+0	6.21351E+1	4.84053E-1	0.00000E+0	0.00000E+0	2.20667E+1	1.28799E+1	2.20667E+1	1.28798E+1
110	15/03/2023	17:18:11.477	0.00000E+0	0.00000E+0	2.28331E+2	-1.15509E-1	0.00000E+0	0.00000E+0	2.45394E+1	1.04325E+1	2.45425E+1	1.04314E+1
111	15/03/2023	17:18:12.955	0.00000E+0	0.00000E+0	-1.28245E+2	-4.00448E-1	0.00000E+0	0.00000E+0	1.95717E+1	1.53626E+1	1.95695E+1	1.53638E+1
112	15/03/2023	17:18:14.431	0.00000E+0	0.00000E+0	-1.91973E+2	-2.40564E+0	0.00000E+0	0.00000E+0	1.84280E+1	1.64131E+1	1.84288E+1	1.64112E+1
113	15/03/2023	17:18:15.928	0.00000E+0	0.00000E+0	1.36426E+2	3.35617E-1	0.00000E+0	0.00000E+0	2.30782E+1	1.18630E+1	2.30783E+1	1.18626E+1
114	15/03/2023	17:18:17.411	0.00000E+0	0.00000E+0	1.95852E+2	1.92229E+0	0.00000E+0	0.00000E+0	2.40785E+1	1.09097E+1	2.40807E+1	1.09095E+1
115	15/03/2023	17:18:18.869	0.00000E+0	0.00000E+0	-1.46100E+2	-3.77216E-1	0.00000E+0	0.00000E+0	1.92567E+1	1.56688E+1	1.92574E+1	1.56690E+1
116	15/03/2023	17:18:20.354	0.00000E+0	0.00000E+0	-1.70692E+2	-1.40073E+0	0.00000E+0	0.00000E+0	1.87827E+1	1.61743E+1	1.87817E+1	1.61765E+1
117	15/03/2023	17:18:21.825	0.00000E+0	0.00000E+0	1.40277E+2	1.48417E+0	0.00000E+0	0.00000E+0	2.31319E+1	1.18212E+1	2.31315E+1	1.18218E+1
118	15/03/2023	17:18:23.270	0.00000E+0	0.00000E+0	2.04019E+2	-6.84048E-1	0.00000E+0	0.00000E+0	2.42199E+1	1.07530E+1	2.42226E+1	1.07527E+1
119	15/03/2023	17:18:24.753	0.00000E+0	0.00000E+0	-1.50645E+2	-1.02135E+0	0.00000E+0	0.00000E+0	1.91689E+1	1.57253E+1	1.91671E+1	1.57255E+1
120	15/03/2023	17:18:26.234	0.00000E+0	0.00000E+0	-1.75385E+2	-7.35515E-1	0.00000E+0	0.00000E+0	1.86726E+1	1.62365E+1	1.86716E+1	1.62371E+1
121	15/03/2023	17:18:27.748	0.00000E+0	0.00000E+0	1.70817E+2	2.18674E+0	0.00000E+0	0.00000E+0	2.35905E+1	1.14231E+1	2.35920E+1	1.14240E+1
122	15/03/2023	17:18:29.240	0.00000E+0	0.00000E+0	1.89107E+2	8.59522E-1	0.00000E+0	0.00000E+0	2.40574E+1	1.09467E+1	2.40568E+1	1.09460E+1
123	15/03/2023	17:18:30.732	0.00000E+0	0.00000E+0	-1.74147E+2	-8.63945E-2	0.00000E+0	0.00000E+0	1.88155E+1	1.60816E+1	1.88159E+1	1.60834E+1
124	15/03/2023	17:18:32.212	0.00000E+0	0.00000E+0	-1.89451E+2	-9.86320E-1	0.00000E+0	0.00000E+0	1.85374E+1	1.64379E+1	1.85388E+1	1.64384E+1
125	15/03/2023	17:18:33.672	0.00000E+0	0.00000E+0	1.45929E+2	1.36650E+0	0.00000E+0	0.00000E+0	2.32433E+1	1.17732E+1	2.32419E+1	1.17719E+1
126	15/03/2023	17:18:35.145	0.00000E+0	0.00000E+0	1.92307E+2	2.51353E+0	0.00000E+0	0.00000E+0	2.40760E+1	1.09131E+1	2.40765E+1	1.09103E+1
127	15/03/2023	17:18:36.678	0.00000E+0	0.00000E+0	-1.47745E+2	-1.29391E+0	0.00000E+0	0.00000E+0	1.92200E+1	1.57168E+1	1.92185E+1	1.57179E+1
128	15/03/2023	17:18:38.124	0.00000E+0	0.00000E+0	-1.90155E+2	-7.43141E-1	0.00000E+0	0.00000E+0	1.85359E+1	1.64127E+1	1.85344E+1	1.64123E+1
129	15/03/2023	17:18:39.606	0.00000E+0	0.00000E+0	1.55480E+2	1.32630E+0	0.00000E+0	0.00000E+0	2.33456E+1	1.16678E+1	2.33489E+1	1.16657E+1
130	15/03/2023	17:18:41.081	0.00000E+0	0.00000E+0	1.69263E+2	2.59562E+0	0.00000E+0	0.00000E+0	2.37967E+1	1.12048E+1	2.37967E+1	1.12036E+1
131	15/03/2023	17:18:42.557	0.00000E+0	0.00000E+0	-1.75169E+2	-2.11461E+0	0.00000E+0	0.00000E+0	1.88730E+1	1.60501E+1	1.88738E+1	1.60497E+1
132	15/03/2023	17:18:44.026	0.00000E+0	0.00000E+0	-1.25917E+2	-9.68521E-1	0.00000E+0	0.00000E+0	1.93008E+1	1.55938E+1	1.92991E+1	1.55925E+1
133	15/03/2023	17:18:45.493	0.00000E+0	0.00000E+0	1.89513E+2	8.32498E-1	0.00000E+0	0.00000E+0	2.39020E+1	1.10987E+1	2.39025E+1	1.10973E+1
134	15/03/2023	17:18:46.954	0.00000E+0	0.00000E+0	1.00302E+2	6.79525E-1	0.00000E+0	0.00000E+0	2.28461E+1	1.21451E+1	2.28455E+1	1.21436E+1
135	15/03/2023	17:18:48.437	0.00000E+0	0.00000E+0	-2.02456E+2	-9.39086E-1	0.00000E+0	0.00000E+0	1.84325E+1	1.64599E+1	1.84323E+1	1.64596E+1
136	15/03/2023	17:18:49.913	0.00000E+0	0.00000E+0	-5.31945E+1	8.62518E-1	0.00000E+0	0.00000E+0	2.02878E+1	1.46684E+1	2.02900E+1	1.46701E+1
137	15/03/2023	17:18:51.391	0.00000E+0	0.00000E+0	1.89189E+2	8.32572E-1	0.00000E+0	0.00000E+0	2.39296E+1	1.10611E+1	2.39259E+1	1.10624E+1
138	15/03/2023	17:18:52.872	0.00000E+0	0.00000E+0	1.74658E+1	1.20656E-1	0.00000E+0	0.00000E+0	2.17237E+1	1.32724E+1	2.17250E+1	1.32720E+1
139	15/03/2023	17:18:54.422	0.00000E+0	0.00000E+0	-2.02632E+2	-2.20330E+0	0.00000E+0	0.00000E+0	1.83540E+1	1.65119E+1	1.83545E+1	1.65129E+1
140	15/03/2023	17:18:55.879	0.00000E+0	0.00000E+0	3.20639E+1	-2.97613E+0	0.00000E+0	0.00000E+0	2.15436E+1	1.34167E+1	2.15455E+1	1.34173E+1
141	15/03/2023	17:18:57.356	0.00000E+0	0.00000E+0	2.00176E+2	1.08203E+0	0.00000E+0	0.00000E+0	2.41031E+1	1.08772E+1	2.41042E+1	1.08764E+1
142	15/03/2023	17:18:58.809	0.00000E+0	0.00000E+0	-3.67879E+1	-3.50363E-1	0.00000E+0	0.00000E+0	2.09061E+1	1.40495E+1	2.09077E+1	1.40538E+1
143	15/03/2023	17:19:00.300	0.00000E+0	0.00000E+0	-2.13740E+2	2.08029E-1	0.00000E+0	0.00000E+0	1.82265E+1	1.67241E+1	1.82259E+1	1.67260E+1
144	15/03/2023	17:19:01.763	0.00000E+0	0.00000E+0	6.36282E+1	-5.95996E-1	0.00000E+0	0.00000E+0	2.20203E+1	1.29727E+1	2.20220E+1	1.29714E+1
145	15/03/2023	17:19:03.270	0.00000E+0	0.00000E+0	2.17537E+2	5.67039E-1	0.00000E+0	0.00000E+0	2.43651E+1	1.06556E+1	2.43637E+1	1.06532E+1
146	15/03/2023	17:19:04.763	0.00000E+0	0.00000E+0	-9.97637E+1	-1.58009E+0	0.00000E+0	0.00000E+0	1.99749E+1	1.49186E+1	1.99743E+1	1.49164E+1
147	15/03/2023	17:19:06.239	0.00000E+0	0.00000E+0	-1.93209E+2	-2.43528E+0	0.00000E+0	0.00000E+0	1.84808E+1	1.63992E+1	1.84815E+1	1.64023E+1
148	15/03/2023	17:19:07.747	0.00000E+0	0.00000E+0	8.76112E+1	8.46082E-1	0.00000E+0	0.00000E+0	2.23894E+1	1.25919E+1	2.23915E+1	1.25948E+1
149	15/03/2023	17:19:09.192	0.00000E+0	0.00000E+0	2.19302E+2	6.50130E-2	0.00000E+0	0.00000E+0	2.43835E+1	1.05851E+1	2.43811E+1	1.05854E+1
150	15/03/2023	17:19:10.683	0.00000E+0	0.00000E+0	-7.55123E+1	3.05671E-2	0.00000E+0	0.00000E+0	2.02669E+1	1.46765E+1	2.02689E+1	1.46758E+1
151	15/03/2023	17:19:12.182	0.00000E+0	0.00000E+0	-2.20511E+2	-2.76659E-1	0.00000E+0	0.00000E+0	1.81276E+1	1.68193E+1	1.81255E+1	1.68187E+1
152	15/03/2023	17:19:13.664	0.00000E+0	0.00000E+0	7.23376E+1	-1.15925E+0	0.00000E+0	0.00000E+0	2.21184E+1	1.28047E+1	2.21199E+1	1.28027E+1
153	15/03/2023	17:19:15.166	0.00000E+0	0.00000E+0	2.39231E+2	2.53805E+0	0.00000E+0	0.00000E+0	2.46405E+1	1.03180E+1	2.46406E+1	1.03198E+1
154	15/03/2023	17:19:16.633	0.00000E+0	0.00000E+0	-9.16599E+1	-3.40317E+0	0.00000E+0	0.00000E+0	2.00555E+1	1.48695E+1	2.00550E+1	1.48708E+1
155	15/03/2023	17:19:18.073	0.00000E+0	0.00000E+0	-2.07086E+2	-2.79116E+0	0.00000E+0	0.00000E+0	1.82238E+1	1.66750E+1	1.82244E+1	1.66767E+1
156	15/03/2023	17:19:19.576	0.00000E+0	0.00000E+0	1.00153E+2	3.07775E-2	0.00000E+0	0.00000E+0	2.25385E+1	1.23987E+1	2.25374E+1	1.24004E+1
157	15/03/2023	17:19:21.038	0.00000E+0	0.00000E+0	2.01260E+2	-1.48321E-1	0.00000E+0	0.00000E+0	2.41516E+1	1.08308E+1	2.41521E+1	1.08299E+1
158	15/03/2023	17:19:22.531	0.00000E+0	0.00000E+0	-1.38270E+2	-3.56351E-1	0.00000E+0	0.00000E+0	1.94121E+1	1.55307E+1	1.94151E+1	1.55306E+1
159	15/03/2023	17:19:23.978	0.00000E+0	0.00000E+0	-1.65806E+2	-1.58929E-1	0.00000E+0	0.00000E+0	1.88325E+1	1.60996E+1	1.88313E+1	1.60998E+1
160	15/03/2023	17:19:25.466	0.00000E+0	0.00000E+0	1.24854E+2	9.03855E-1	0.00000E+0	0.00000E+0	2.29020E+1	1.20538E+1	2.29025E+1	1.20529E+1
161	15/03/2023	17:19:26.980	0.00000E+0	0.00000E+0	2.19082E+2	8.87631E-1	0.00000E+0	0.00000E+0	2.44394E+1	1.05501E+1	2.44402E+1	1.05504E+1
162	15/03/2023	17:19:28.443	0.00000E+0	0.00000E+0	-1.37061E+2	-6.08878E-1	0.00000E+0	0.00000E+0	1.94189E+1	1.55453E+1	1.94179E+1	1.55441E+1
163	15/03/2023	17:19:29.873	0.00000E+0	0.00000E+0	-2.25057E+2	-2.76644E+0	0.00000E+0	0.00000E+0	1.80337E+1	1.68984E+1	1.80373E+1	1.69001E+1
164	15/03/2023	17:19:31.404	0.00000E+0	0.00000E+0	1.08882E+2	-7.68451E-1	0.00000E+0	0.00000E+0	2.27086E+1	1.22480E+1	2.27104E+1	1.22479E+1
165	15/03/2023	17:19:32.874	0.00000E+0	0.00000E+0	2.28315E+2	2.21823E+0	0.00000E+0	0.00000E+0	2.45085E+1	1.04522E+1	2.45084E+1	1.04516E+1
166	15/03/2023	17:19:34.381	0.00000E+0	0.00000E+0	-1.50428E+2	-8.52917E-2	0.00000E+0	0.00000E+0	1.92712E+1	1.56806E+1	1.92713E+1	1.56840E+1
167	15/03/2023	17:19:35.822	0.00000E+0	0.00000E+0	-2.01488E+2	8.98911E-1	0.00000E+0	0.00000E+0	1.83216E+1	1.66290E+1	1.83226E+1	1.66283E+1
168	15/03/2023	17:19:37.309	0.00000E+0	0.00000E+0	1.17308E+2	2.31885E+0	0.00000E+0	0.00000E+0	2.27944E+1	1.21783E+1	2.27977E+1	1.21764E+1
169	15/03/2023	17:19:38.790	0.00000E+0	0.00000E+0	2.19038E+2	1.34384E+0	0.00000E+0	0.00000E+0	2.44415E+1	1.05279E+1	2.44424E+1	1.05294E+1
170	15/03/2023	17:19:40.259	0.00000E+0	0.00000E+0	-1.62338E+2	-3.38117E-1	0.00000E+0	0.00000E+0	1.90235E+1	1.59127E+1	1.90227E+1	1.59120E+1
171	15/03/2023	17:19:41.770	0.00000E+0	0.00000E+0	-1.63528E+2	-3.69096E-1	0.00000E+0	0.00000E+0	1.88793E+1	1.60577E+1	1.88796E+1	1.60583E+1
172	15/03/2023	17:19:43.241	0.00000E+0	0.00000E+0	1.78695E+2	1.51916E+0	0.00000E+0	0.00000E+0	2.37098E+1	1.12843E+1	2.37097E+1	1.12839E+1
173	15/03/2023	17:19:44.689	0.00000E+0	0.00000E+0	1.40321E+2	2.16658E+0	0.00000E+0	0.00000E+0	2.34196E+1	1.15676E+1	2.34202E+1	1.15681E+1
174	15/03/2023	17:19:46.197	0.00000E+0	0.00000E+0	-1.98579E+2	1.63616E+0	0.00000E+0	0.00000E+0	1.84734E+1	1.64448E+1	1.84745E+1	1.64460E+1
175	15/03/2023	17:19:47.664	0.00000E+0	0.00000E+0	-7.30116E+1	-9.95021E-1	0.00000E+0	0.00000E+0	1.99395E+1	1.49885E+1	1.99373E+1	1.49885E+1
176	15/03/2023	17:19:49.138	0.00000E+0	0.00000E+0	2.08048E+2	3.97760E+0	0.00000E+0	0.00000E+0	2.41860E+1	1.08454E+1	2.41859E+1	1.08447E+1
177	15/03/2023	17:19:50.625	0.00000E+0	0.00000E+0	-1.76484E+1	-5.50139E-1	0.00000E+0	0.00000E+0	2.11534E+1	1.38078E+1	2.11516E+1	1.38079E+1
178	15/03/2023	17:19:52.101	0.00000E+0	0.00000E+0	-2.25982E+2	-1.11127E+0	0.00000E+0	0.00000E+0	1.80169E+1	1.69379E+1	1.80151E+1	1.69387E+1
179	15/03/2023	17:19:53.577	0.00000E+0	0.00000E+0	5.75244E+1	9.16511E-1	0.00000E+0	0.00000E+0	2.19676E+1	1.30503E+1	2.19711E+1	1.30519E+1
180	15/03/2023	17:19:55.038	0.00000E+0	0.00000E+0	2.35631E+2	4.99978E-1	0.00000E+0	0.00000E+0	2.46471E+1	1.03013E+1	2.46433E+1	1.03029E+1
181	15/03/2023	17:19:56.494	0.00000E+0	0.00000E+0	-1.34185E+2	-1.68047E+0	0.00000E+0	0.00000E+0	1.94969E+1	1.54174E+1	1.94969E+1	1.54210E+1
182	15/03/2023	17:19:58.001	0.00000E+0	0.00000E+0	-1.62675E+2	-1.01752E+0	0.00000E+0	0.00000E+0	1.88675E+1	1.60870E+1	1.88684E+1	1.60885E+1
183	15/03/2023	17:19:59.466	0.00000E+0	0.00000E+0	2.05244E+2	2.10158E+0	0.00000E+0	0.00000E+0	2.40863E+1	1.08848E+1	2.40845E+1	1.08858E+1
184	15/03/2023	17:20:00.945	0.00000E+0	0.00000E+0	6.35572E+1	-3.90185E-1	0.00000E+0	0.00000E+0	2.23152E+1	1.26303E+1	2.23163E+1	1.26295E+1
185	15/03/2023	17:20:02.402	0.00000E+0	0.00000E+0	-2.35088E+2	-1.55711E+0	0.00000E+0	0.00000E+0	1.78831E+1	1.69804E+1	1.78831E+1	1.69789E+1
186	15/03/2023	17:20:03.868	0.00000E+0	0.00000E+0	7.58700E+1	-1.21722E-1	0.00000E+0	0.00000E+0	2.21682E+1	1.28157E+1	2.21673E+1	1.28181E+1
187	15/03/2023	17:20:05.357	0.00000E+0	0.00000E+0	2.37392E+2	2.01568E+0	0.00000E+0	0.00000E+0	2.46974E+1	1.02772E+1	2.46959E+1	1.02788E+1
188	15/03/2023	17:20:06.791	0.00000E+0	0.00000E+0	-2.19997E+2	-1.17289E+0	0.00000E+0	0.00000E+0	1.82464E+1	1.67120E+1	1.82442E+1	1.67101E+1
189	15/03/2023	17:20:08.274	0.00000E+0	0.00000E+0	-3.88814E+1	1.43578E-1	0.00000E+0	0.00000E+0	2.03767E+1	1.45154E+1	2.03745E+1	1.45172E+1
190	15/03/2023	17:20:09.777	0.00000E+0	0.00000E+0	2.56027E+2	2.27773E+0	0.00000E+0	0.00000E+0	2.48448E+1	1.01038E+1	2.48428E+1	1.01046E+1
191	15/03/2023	17:20:11.243	0.00000E+0	0.00000E+0	-1.50522E+2	-1.03000E+0	0.00000E+0	0.00000E+0	1.92541E+1	1.56960E+1	1.92510E+1	1.56964E+1
192	15/03/2023	17:20:12.726	0.00000E+0	0.00000E+0	-1.75286E+2	-2.74634E+0	0.00000E+0	0.00000E+0	1.87234E+1	1.61703E+1	1.87248E+1	1.61710E+1
193	15/03/2023	17:20:14.183	0.00000E+0	0.00000E+0	2.28080E+2	4.64113E-1	0.00000E+0	0.00000E+0	2.44105E+1	1.05686E+1	2.44097E+1	1.05699E+1
194	15/03/2023	17:20:15.660	0.00000E+0	0.00000E+0	2.07612E+1	-1.68656E-1	0.00000E+0	0.00000E+0	2.18688E+1	1.31266E+1	2.18693E+1	1.31259E+1
195	15/03/2023	17:20:17.159	0.00000E+0	0.00000E+0	-2.39970E+2	-2.38800E+0	0.00000E+0	0.00000E+0	1.78418E+1	1.69982E+1	1.78419E+1	1.69979E+1
196	15/03/2023	17:20:18.584	0.00000E+0	0.00000E+0	3.51587E+1	3.52100E-1	0.00000E+0	0.00000E+0	2.16383E+1	1.33054E+1	2.16366E+1	1.33047E+1
197	15/03/2023	17:20:20.028	0.00000E+0	0.00000E+0	2.35005E+2	2.00321E+0	0.00000E+0	0.00000E+0	2.45120E+1	1.04414E+1	2.45108E+1	1.04410E+1
198	15/03/2023	17:20:21.565	0.00000E+0	0.00000E+0	-4.01846E+1	-3.65988E-1	0.00000E+0	0.00000E+0	2.08833E+1	1.40835E+1	2.08845E+1	1.40841E+1
199	15/03/2023	17:20:23.041	0.00000E+0	0.00000E+0	-2.37999E+2	-2.75735E+0	0.00000E+0	0.00000E+0	1.78198E+1	1.69889E+1	1.78201E+1	1.69910E+1
200	15/03/2023	17:20:24.513	0.00000E+0	0.00000E+0	2.40742E+1	2.72790E+0	0.00000E+0	0.00000E+0	2.13892E+1	1.35881E+1	2.13898E+1	1.35900E+1
201	15/03/2023	17:20:26.022	0.00000E+0	0.00000E+0	2.43412E+2	1.83683E+0	0.00000E+0	0.00000E+0	2.47023E+1	1.03185E+1	2.47041E+1	1.03173E+1
202	15/03/2023	17:20:27.488	0.00000E+0	0.00000E+0	-5.43004E+1	-1.35536E+0	0.00000E+0	0.00000E+0	2.06407E+1	1.42519E+1	2.06390E+1	1.42521E+1
203	15/03/2023	17:20:28.978	0.00000E+0	0.00000E+0	-2.25451E+2	-1.41686E+0	0.00000E+0	0.00000E+0	1.80016E+1	1.69019E+1	1.80017E+1	1.69010E+1
204	15/03/2023	17:20:30.459	0.00000E+0	0.00000E+0	9.91951E+1	3.13278E-1	0.00000E+0	0.00000E+0	2.25214E+1	1.24093E+1	2.25204E+1	1.24091E+1
205	15/03/2023	17:20:31.938	0.00000E+0	0.00000E+0	2.36070E+2	1.30550E+0	0.00000E+0	0.00000E+0	2.47017E+1	1.03410E+1	2.47027E+1	1.03383E+1
206	15/03/2023	17:20:33.424	0.00000E+0	0.00000E+0	-1.70479E+2	-2.02994E+0	0.00000E+0	0.00000E+0	1.88980E+1	1.60214E+1	1.88986E+1	1.60208E+1
207	15/03/2023	17:20:34.912	0.00000E+0	0.00000E+0	-1.70540E+2	-2.63828E+0	0.00000E+0	0.00000E+0	1.87961E+1	1.60734E+1	1.87956E+1	1.60731E+1
208	15/03/2023	17:20:36.387	0.00000E+0	0.00000E+0	1.65134E+2	6.57406E-1	0.00000E+0	0.00000E+0	2.35233E+1	1.14705E+1	2.35235E+1	1.14677E+1
209	15/03/2023	17:20:37.836	0.00000E+0	0.00000E+0	1.42122E+2	2.04493E+0	0.00000E+0	0.00000E+0	2.34463E+1	1.15322E+1	2.34430E+1	1.15331E+1
210	15/03/2023	17:20:39.295	0.00000E+0	0.00000E+0	-1.87072E+2	-2.80969E+0	0.00000E+0	0.00000E+0	1.86508E+1	1.63098E+1	1.86509E+1	1.63109E+1
211	15/03/2023	17:20:40.803	0.00000E+0	0.00000E+0	-1.12251E+2	-3.18281E-2	0.00000E+0	0.00000E+0	1.94831E+1	1.54724E+1	1.94811E+1	1.54739E+1
212	15/03/2023	17:20:42.275	0.00000E+0	0.00000E+0	2.00009E+2	6.99041E-1	0.00000E+0	0.00000E+0	2.40402E+1	1.09320E+1	2.40397E+1	1.09332E+1
213	15/03/2023	17:20:43.765	0.00000E+0	0.00000E+0	7.78605E+1	9.27620E-1	0.00000E+0	0.00000E+0	2.25761E+1	1.24204E+1	2.25729E+1	1.24195E+1
214	15/03/2023	17:20:45.231	0.00000E+0	0.00000E+0	-2.13246E+2	6.63812E-1	0.00000E+0	0.00000E+0	1.82706E+1	1.67105E+1	1.82725E+1	1.67116E+1
215	15/03/2023	17:20:46.708	0.00000E+0	0.00000E+0	2.26092E+1	1.25811E+0	0.00000E+0	0.00000E+0	2.13523E+1	1.36035E+1	2.13518E+1	1.36022E+1
216	15/03/2023	17:20:48.176	0.00000E+0	0.00000E+0	2.37572E+2	2.72431E+0	0.00000E+0	0.00000E+0	2.45889E+1	1.04173E+1	2.45922E+1	1.04135E+1
217	15/03/2023	17:20:49.630	0.00000E+0	0.00000E+0	-4.57415E+1	4.34547E-1	0.00000E+0	0.00000E+0	2.07366E+1	1.42167E+1	2.07360E+1	1.42164E+1
218	15/03/2023	17:20:51.103	0.00000E+0	0.00000E+0	-2.07554E+2	-4.10261E-1	0.00000E+0	0.00000E+0	1.82839E+1	1.66164E+1	1.82829E+1	1.66161E+1
219	15/03/2023	17:20:52.602	0.00000E+0	0.00000E+0	7.91507E+1	2.83535E+0	0.00000E+0	0.00000E+0	2.22636E+1	1.27164E+1	2.22630E+1	1.27171E+1
220	15/03/2023	17:20:54.064	0.00000E+0	0.00000E+0	2.10238E+2	2.99699E+0	0.00000E+0	0.00000E+0	2.42511E+1	1.07242E+1	2.42510E+1	1.07239E+1
221	15/03/2023	17:20:55.554	0.00000E+0	0.00000E+0	-1.15235E+2	-1.10622E+0	0.00000E+0	0.00000E+0	1.97131E+1	1.52182E+1	1.97128E+1	1.52169E+1
222	15/03/2023	17:20:57.045	0.00000E+0	0.00000E+0	-1.98322E+2	-8.50760E-1	0.00000E+0	0.00000E+0	1.82808E+1	1.65448E+1	1.82827E+1	1.65482E+1
223	15/03/2023	17:20:58.532	0.00000E+0	0.00000E+0	1.36891E+2	3.39271E-1	0.00000E+0	0.00000E+0	2.30863E+1	1.18580E+1	2.30887E+1	1.18567E+1
224	15/03/2023	17:21:00.039	0.00000E+0	0.00000E+0	1.70287E+2	-4.83428E-1	0.00000E+0	0.00000E+0	2.38215E+1	1.11923E+1	2.38212E+1	1.11912E+1
225	15/03/2023	17:21:01.510	0.00000E+0	0.00000E+0	-1.69975E+2	-2.21596E+0	0.00000E+0	0.00000E+0	1.89257E+1	1.60290E+1	1.89267E+1	1.60303E+1
226	15/03/2023	17:21:02.985	0.00000E+0	0.00000E+0	-1.38862E+2	-2.26729E-1	0.00000E+0	0.00000E+0	1.91575E+1	1.58418E+1	1.91569E+1	1.58406E+1
227	15/03/2023	17:21:04.458	0.00000E+0	0.00000E+0	1.89178E+2	1.06567E+0	0.00000E+0	0.00000E+0	2.38761E+1	1.10951E+1	2.38756E+1	1.10950E+1
228	15/03/2023	17:21:05.936	0.00000E+0	0.00000E+0	1.08744E+2	-5.62467E-1	0.00000E+0	0.00000E+0	2.29624E+1	1.20420E+1	2.29638E+1	1.20410E+1
229	15/03/2023	17:21:07.417	0.00000E+0	0.00000E+0	-2.03225E+2	-3.70517E-3	0.00000E+0	0.00000E+0	1.84032E+1	1.65260E+1	1.84034E+1	1.65262E+1
230	15/03/2023	17:21:08.903	0.00000E+0	0.00000E+0	-7.51689E+1	-6.42510E-1	0.00000E+0	0.00000E+0	1.99709E+1	1.49682E+1	1.99710E+1	1.49676E+1
231	15/03/2023	17:21:10.411	0.00000E+0	0.00000E+0	2.12256E+2	-5.42338E-1	0.00000E+0	0.00000E+0	2.42316E+1	1.07596E+1	2.42334E+1	1.07615E+1
232	15/03/2023	17:21:11.913	0.00000E+0	0.00000E+0	-3.48397E+0	-5.90384E-1	0.00000E+0	0.00000E+0	2.13872E+1	1.35462E+1	2.13850E+1	1.35468E+1
233	15/03/2023	17:21:13.369	0.00000E+0	0.00000E+0	-2.11104E+2	-7.59573E-1	0.00000E+0	0.00000E+0	1.83249E+1	1.67134E+1	1.83252E+1	1.67138E+1
234	15/03/2023	17:21:14.847	0.00000E+0	0.00000E+0	2.77351E+1	3.94195E+0	0.00000E+0	0.00000E+0	2.14558E+1	1.35407E+1	2.14544E+1	1.35404E+1
235	15/03/2023	17:21:16.315	0.00000E+0	0.00000E+0	2.08840E+2	3.68012E-1	0.00000E+0	0.00000E+0	2.42375E+1	1.08079E+1	2.42364E+1	1.08119E+1
236	15/03/2023	17:21:17.775	0.00000E+0	0.00000E+0	-1.55341E+1	1.35374E+0	0.00000E+0	0.00000E+0	2.11837E+1	1.37861E+1	2.11822E+1	1.37858E+1
237	15/03/2023	17:21:19.290	0.00000E+0	0.00000E+0	-2.07625E+2	-1.64442E+0	0.00000E+0	0.00000E+0	1.82633E+1	1.66057E+1	1.82626E+1	1.66070E+1
238	15/03/2023	17:21:20.749	0.00000E+0	0.00000E+0	3.80069E+1	7.51792E-1	0.00000E+0	0.00000E+0	2.16501E+1	1.32693E+1	2.16505E+1	1.32715E+1
239	15/03/2023	17:21:22.212	0.00000E+0	0.00000E+0	2.25091E+2	1.12145E+0	0.00000E+0	0.00000E+0	2.43920E+1	1.05970E+1	2.43924E+1	1.05949E+1
240	15/03/2023	17:21:23.701	0.00000E+0	0.00000E+0	-6.22736E+1	1.98601E+0	0.00000E+0	0.00000E+0	2.04979E+1	1.44618E+1	2.04977E+1	1.44623E+1
241	15/03/2023	17:21:25.209	0.00000E+0	0.00000E+0	-2.22694E+2	1.52302E+0	0.00000E+0	0.00000E+0	1.80676E+1	1.68932E+1	1.80649E+1	1.68930E+1
242	15/03/2023	17:21:26.702	0.00000E+0	0.00000E+0	5.68050E+1	1.74454E+0	0.00000E+0	0.00000E+0	2.19617E+1	1.30156E+1	2.19611E+1	1.30139E+1
