#Iteration	Date	Time	Chirp	Phase	RamanAxis	RatioMean	RatioStdDev
2	15/03/2023	17:15:30.659	0.00000000E+0	-6.28318531E+0	5.00000000E+0	3.06828416E-1	0.00000000E+0
4	15/03/2023	17:15:33.654	0.00000000E+0	-6.17849112E+0	5.00000000E+0	3.22904213E-1	0.00000000E+0
6	15/03/2023	17:15:36.669	0.00000000E+0	-6.07379693E+0	5.00000000E+0	4.57428299E-1	0.00000000E+0
8	15/03/2023	17:15:39.596	0.00000000E+0	-5.96910274E+0	5.00000000E+0	5.77391703E-1	0.00000000E+0
10	15/03/2023	17:15:42.557	0.00000000E+0	-5.86440855E+0	5.00000000E+0	6.32316497E-1	0.00000000E+0
12	15/03/2023	17:15:45.494	0.00000000E+0	-5.75971436E+0	5.00000000E+0	5.95116690E-1	0.00000000E+0
14	15/03/2023	17:15:48.457	0.00000000E+0	-5.65502017E+0	5.00000000E+0	5.27761488E-1	0.00000000E+0
16	15/03/2023	17:15:51.371	0.00000000E+0	-5.55032599E+0	5.00000000E+0	3.49173692E-1	0.00000000E+0
18	15/03/2023	17:15:54.360	0.00000000E+0	-5.44524830E+0	5.00000000E+0	5.94498685E-1	0.00000000E+0
20	15/03/2023	17:15:57.509	0.00000000E+0	-5.34055411E+0	5.00000000E+0	6.22038223E-1	0.00000000E+0
22	15/03/2023	17:16:00.542	0.00000000E+0	-5.23585992E+0	5.00000000E+0	4.34832990E-1	0.00000000E+0
24	15/03/2023	17:16:03.493	0.00000000E+0	-5.13116574E+0	5.00000000E+0	3.69823083E-1	0.00000000E+0
26	15/03/2023	17:16:06.481	0.00000000E+0	-5.02647155E+0	5.00000000E+0	6.48163687E-1	0.00000000E+0
28	15/03/2023	17:16:09.475	0.00000000E+0	-4.92177736E+0	5.00000000E+0	5.59536647E-1	0.00000000E+0
30	15/03/2023	17:16:12.432	0.00000000E+0	-4.81708317E+0	5.00000000E+0	6.56176037E-1	0.00000000E+0
32	15/03/2023	17:16:15.409	0.00000000E+0	-4.71238898E+0	5.00000000E+0	5.94814656E-1	0.00000000E+0
34	15/03/2023	17:16:18.370	0.00000000E+0	-4.60769479E+0	5.00000000E+0	4.89434580E-1	0.00000000E+0
36	15/03/2023	17:16:21.343	0.00000000E+0	-4.50300060E+0	5.00000000E+0	5.51657209E-1	0.00000000E+0
38	15/03/2023	17:16:24.300	0.00000000E+0	-4.39830641E+0	5.00000000E+0	4.50188762E-1	0.00000000E+0
40	15/03/2023	17:16:27.279	0.00000000E+0	-4.29361223E+0	5.00000000E+0	3.89166788E-1	0.00000000E+0
42	15/03/2023	17:16:30.242	0.00000000E+0	-4.18891804E+0	5.00000000E+0	4.91238484E-1	0.00000000E+0
44	15/03/2023	17:16:33.205	0.00000000E+0	-4.08422385E+0	5.00000000E+0	6.07619663E-1	0.00000000E+0
46	15/03/2023	17:16:36.169	0.00000000E+0	-3.97952966E+0	5.00000000E+0	5.33183503E-1	0.00000000E+0
48	15/03/2023	17:16:39.138	0.00000000E+0	-3.87445198E+0	5.00000000E+0	6.29044467E-1	0.00000000E+0
50	15/03/2023	17:16:42.075	0.00000000E+0	-3.76975779E+0	5.00000000E+0	6.30069746E-1	0.00000000E+0
52	15/03/2023	17:16:45.062	0.00000000E+0	-3.66506360E+0	5.00000000E+0	6.10637302E-1	0.00000000E+0
54	15/03/2023	17:16:48.012	0.00000000E+0	-3.56036941E+0	5.00000000E+0	6.72533404E-1	0.00000000E+0
56	15/03/2023	17:16:50.979	0.00000000E+0	-3.45567522E+0	5.00000000E+0	6.08887126E-1	0.00000000E+0
58	15/03/2023	17:16:53.938	0.00000000E+0	-3.35098103E+0	5.00000000E+0	6.70470841E-1	0.00000000E+0
60	15/03/2023	17:16:56.940	0.00000000E+0	-3.24628684E+0	5.00000000E+0	5.01931479E-1	0.00000000E+0
62	15/03/2023	17:16:59.877	0.00000000E+0	-3.14159265E+0	5.00000000E+0	6.68307533E-1	0.00000000E+0
64	15/03/2023	17:17:02.875	0.00000000E+0	-3.03689846E+0	5.00000000E+0	4.57325917E-1	0.00000000E+0
66	15/03/2023	17:17:05.847	0.00000000E+0	-2.93220428E+0	5.00000000E+0	4.46234892E-1	0.00000000E+0
68	15/03/2023	17:17:08.816	0.00000000E+0	-2.82751009E+0	5.00000000E+0	3.45553671E-1	0.00000000E+0
70	15/03/2023	17:17:11.806	0.00000000E+0	-2.72281590E+0	5.00000000E+0	3.11217529E-1	0.00000000E+0
72	15/03/2023	17:17:14.811	0.00000000E+0	-2.61812171E+0	5.00000000E+0	3.49352958E-1	0.00000000E+0
74	15/03/2023	17:17:17.781	0.00000000E+0	-2.51342752E+0	5.00000000E+0	4.18404539E-1	0.00000000E+0
76	15/03/2023	17:17:20.791	0.00000000E+0	-2.40873333E+0	5.00000000E+0	4.57046556E-1	0.00000000E+0
78	15/03/2023	17:17:23.744	0.00000000E+0	-2.30365565E+0	5.00000000E+0	3.31468765E-1	0.00000000E+0
80	15/03/2023	17:17:26.734	0.00000000E+0	-2.19896146E+0	5.00000000E+0	5.55209822E-1	0.00000000E+0
82	15/03/2023	17:17:29.675	0.00000000E+0	-2.09426727E+0	5.00000000E+0	5.82874023E-1	0.00000000E+0
84	15/03/2023	17:17:32.639	0.00000000E+0	-1.98957308E+0	5.00000000E+0	6.73415817E-1	0.00000000E+0
86	15/03/2023	17:17:35.603	0.00000000E+0	-1.88487889E+0	5.00000000E+0	5.53751445E-1	0.00000000E+0
88	15/03/2023	17:17:38.664	0.00000000E+0	-1.78018470E+0	5.00000000E+0	4.63398314E-1	0.00000000E+0
90	15/03/2023	17:17:41.604	0.00000000E+0	-1.67549052E+0	5.00000000E+0	3.70982736E-1	0.00000000E+0
92	15/03/2023	17:17:44.534	0.00000000E+0	-1.57079633E+0	5.00000000E+0	3.64238895E-1	0.00000000E+0
94	15/03/2023	17:17:47.554	0.00000000E+0	-1.46610214E+0	5.00000000E+0	4.96957786E-1	0.00000000E+0
96	15/03/2023	17:17:50.541	0.00000000E+0	-1.36140795E+0	5.00000000E+0	4.85918107E-1	0.00000000E+0
98	15/03/2023	17:17:53.480	0.00000000E+0	-1.25671376E+0	5.00000000E+0	4.39366380E-1	0.00000000E+0
100	15/03/2023	17:17:56.469	0.00000000E+0	-1.15201957E+0	5.00000000E+0	6.62968820E-1	0.00000000E+0
102	15/03/2023	17:17:59.470	0.00000000E+0	-1.04732538E+0	5.00000000E+0	5.23636836E-1	0.00000000E+0
104	15/03/2023	17:18:02.459	0.00000000E+0	-9.42631194E-1	5.00000000E+0	5.82481833E-1	0.00000000E+0
106	15/03/2023	17:18:05.475	0.00000000E+0	-8.37937005E-1	5.00000000E+0	5.62340380E-1	0.00000000E+0
108	15/03/2023	17:18:08.428	0.00000000E+0	-7.32859321E-1	5.00000000E+0	4.35142947E-1	0.00000000E+0
110	15/03/2023	17:18:11.477	0.00000000E+0	-6.28165133E-1	5.00000000E+0	6.57069937E-1	0.00000000E+0
112	15/03/2023	17:18:14.431	0.00000000E+0	-5.23470944E-1	5.00000000E+0	3.23338913E-1	0.00000000E+0
114	15/03/2023	17:18:17.411	0.00000000E+0	-4.18776755E-1	5.00000000E+0	3.29255893E-1	0.00000000E+0
116	15/03/2023	17:18:20.354	0.00000000E+0	-3.14082566E-1	5.00000000E+0	3.38599397E-1	0.00000000E+0
118	15/03/2023	17:18:23.270	0.00000000E+0	-2.09388378E-1	5.00000000E+0	3.81011794E-1	0.00000000E+0
120	15/03/2023	17:18:26.234	0.00000000E+0	-1.04694189E-1	5.00000000E+0	3.53006894E-1	0.00000000E+0
122	15/03/2023	17:18:29.240	0.00000000E+0	0.00000000E+0	5.00000000E+0	3.12419330E-1	0.00000000E+0
124	15/03/2023	17:18:32.212	0.00000000E+0	1.04694189E-1	5.00000000E+0	3.79667188E-1	0.00000000E+0
126	15/03/2023	17:18:35.145	0.00000000E+0	2.09388378E-1	5.00000000E+0	3.44204971E-1	0.00000000E+0
128	15/03/2023	17:18:38.124	0.00000000E+0	3.14082566E-1	5.00000000E+0	3.36105591E-1	0.00000000E+0
130	15/03/2023	17:18:41.081	0.00000000E+0	4.18776755E-1	5.00000000E+0	4.65455463E-1	0.00000000E+0
132	15/03/2023	17:18:44.026	0.00000000E+0	5.23470944E-1	5.00000000E+0	3.59442115E-1	0.00000000E+0
134	15/03/2023	17:18:46.954	0.00000000E+0	6.28165133E-1	5.00000000E+0	3.35720099E-1	0.00000000E+0
136	15/03/2023	17:18:49.913	0.00000000E+0	7.32859321E-1	5.00000000E+0	3.45671870E-1	0.00000000E+0
138	15/03/2023	17:18:52.872	0.00000000E+0	8.37937005E-1	5.00000000E+0	3.21415071E-1	0.00000000E+0
140	15/03/2023	17:18:55.879	0.00000000E+0	9.42631194E-1	5.00000000E+0	5.04994651E-1	0.00000000E+0
142	15/03/2023	17:18:58.809	0.00000000E+0	1.04732538E+0	5.00000000E+0	4.51690919E-1	0.00000000E+0
144	15/03/2023	17:19:01.763	0.00000000E+0	1.15201957E+0	5.00000000E+0	5.98238034E-1	0.00000000E+0
146	15/03/2023	17:19:04.763	0.00000000E+0	1.25671376E+0	5.00000000E+0	6.77258733E-1	0.00000000E+0
148	15/03/2023	17:19:07.747	0.00000000E+0	1.36140795E+0	5.00000000E+0	6.29483577E-1	0.00000000E+0
150	15/03/2023	17:19:10.683	0.00000000E+0	1.46610214E+0	5.00000000E+0	6.27909094E-1	0.00000000E+0
152	15/03/2023	17:19:13.664	0.00000000E+0	1.57079633E+0	5.00000000E+0	6.41637079E-1	0.00000000E+0
154	15/03/2023	17:19:16.633	0.00000000E+0	1.67549052E+0	5.00000000E+0	5.96401539E-1	0.00000000E+0
156	15/03/2023	17:19:19.576	0.00000000E+0	1.78018470E+0	5.00000000E+0	6.39468164E-1	0.00000000E+0
158	15/03/2023	17:19:22.531	0.00000000E+0	1.88487889E+0	5.00000000E+0	6.10041876E-1	0.00000000E+0
160	15/03/2023	17:19:25.466	0.00000000E+0	1.98957308E+0	5.00000000E+0	5.22313120E-1	0.00000000E+0
162	15/03/2023	17:19:28.443	0.00000000E+0	2.09426727E+0	5.00000000E+0	4.34033820E-1	0.00000000E+0
164	15/03/2023	17:19:31.404	0.00000000E+0	2.19896146E+0	5.00000000E+0	5.33545377E-1	0.00000000E+0
166	15/03/2023	17:19:34.381	0.00000000E+0	2.30365565E+0	5.00000000E+0	3.95070063E-1	0.00000000E+0
168	15/03/2023	17:19:37.309	0.00000000E+0	2.40873333E+0	5.00000000E+0	6.08780412E-1	0.00000000E+0
170	15/03/2023	17:19:40.259	0.00000000E+0	2.51342752E+0	5.00000000E+0	3.74077094E-1	0.00000000E+0
172	15/03/2023	17:19:43.241	0.00000000E+0	2.61812171E+0	5.00000000E+0	3.23420197E-1	0.00000000E+0
174	15/03/2023	17:19:46.197	0.00000000E+0	2.72281590E+0	5.00000000E+0	4.36390278E-1	0.00000000E+0
176	15/03/2023	17:19:49.138	0.00000000E+0	2.82751009E+0	5.00000000E+0	4.42527514E-1	0.00000000E+0
178	15/03/2023	17:19:52.101	0.00000000E+0	2.93220428E+0	5.00000000E+0	3.51863555E-1	0.00000000E+0
180	15/03/2023	17:19:55.038	0.00000000E+0	3.03689846E+0	5.00000000E+0	3.43255471E-1	0.00000000E+0
182	15/03/2023	17:19:58.001	0.00000000E+0	3.14159265E+0	5.00000000E+0	4.54097795E-1	0.00000000E+0
184	15/03/2023	17:20:00.945	0.00000000E+0	3.24628684E+0	5.00000000E+0	6.61911253E-1	0.00000000E+0
186	15/03/2023	17:20:03.868	0.00000000E+0	3.35098103E+0	5.00000000E+0	4.09173041E-1	0.00000000E+0
188	15/03/2023	17:20:06.791	0.00000000E+0	3.45567522E+0	5.00000000E+0	3.68720227E-1	0.00000000E+0
190	15/03/2023	17:20:09.777	0.00000000E+0	3.56036941E+0	5.00000000E+0	5.51166219E-1	0.00000000E+0
192	15/03/2023	17:20:12.726	0.00000000E+0	3.66506360E+0	5.00000000E+0	4.73726533E-1	0.00000000E+0
194	15/03/2023	17:20:15.660	0.00000000E+0	3.76975779E+0	5.00000000E+0	6.82029000E-1	0.00000000E+0
196	15/03/2023	17:20:18.584	0.00000000E+0	3.87445198E+0	5.00000000E+0	5.52386735E-1	0.00000000E+0
198	15/03/2023	17:20:21.565	0.00000000E+0	3.97952966E+0	5.00000000E+0	5.44012248E-1	0.00000000E+0
200	15/03/2023	17:20:24.513	0.00000000E+0	4.08422385E+0	5.00000000E+0	5.45323731E-1	0.00000000E+0
202	15/03/2023	17:20:27.488	0.00000000E+0	4.18891804E+0	5.00000000E+0	3.60262019E-1	0.00000000E+0
204	15/03/2023	17:20:30.459	0.00000000E+0	4.29361223E+0	5.00000000E+0	3.32145466E-1	0.00000000E+0
206	15/03/2023	17:20:33.424	0.00000000E+0	4.39830641E+0	5.00000000E+0	5.79649510E-1	0.00000000E+0
208	15/03/2023	17:20:36.387	0.00000000E+0	4.50300060E+0	5.00000000E+0	4.77469067E-1	0.00000000E+0
210	15/03/2023	17:20:39.295	0.00000000E+0	4.60769479E+0	5.00000000E+0	3.26671074E-1	0.00000000E+0
212	15/03/2023	17:20:42.275	0.00000000E+0	4.71238898E+0	5.00000000E+0	5.84570660E-1	0.00000000E+0
214	15/03/2023	17:20:45.231	0.00000000E+0	4.81708317E+0	5.00000000E+0	5.13771008E-1	0.00000000E+0
216	15/03/2023	17:20:48.176	0.00000000E+0	4.92177736E+0	5.00000000E+0	4.66473038E-1	0.00000000E+0
218	15/03/2023	17:20:51.103	0.00000000E+0	5.02647155E+0	5.00000000E+0	6.03321993E-1	0.00000000E+0
220	15/03/2023	17:20:54.064	0.00000000E+0	5.13116574E+0	5.00000000E+0	3.06745987E-1	0.00000000E+0
222	15/03/2023	17:20:57.045	0.00000000E+0	5.23585992E+0	5.00000000E+0	5.77877327E-1	0.00000000E+0
224	15/03/2023	17:21:00.039	0.00000000E+0	5.34055411E+0	5.00000000E+0	3.13160340E-1	0.00000000E+0
226	15/03/2023	17:21:02.985	0.00000000E+0	5.44524830E+0	5.00000000E+0	3.76376622E-1	0.00000000E+0
228	15/03/2023	17:21:05.936	0.00000000E+0	5.55032599E+0	5.00000000E+0	5.66607711E-1	0.00000000E+0
230	15/03/2023	17:21:08.903	0.00000000E+0	5.65502017E+0	5.00000000E+0	4.34148122E-1	0.00000000E+0
232	15/03/2023	17:21:11.913	0.00000000E+0	5.75971436E+0	5.00000000E+0	3.45687420E-1	0.00000000E+0
234	15/03/2023	17:21:14.847	0.00000000E+0	5.86440855E+0	5.00000000E+0	3.39707315E-1	0.00000000E+0
236	15/03/2023	17:21:17.775	0.00000000E+0	5.96910274E+0	5.00000000E+0	3.46271922E-1	0.00000000E+0
238	15/03/2023	17:21:20.749	0.00000000E+0	6.07379693E+0	5.00000000E+0	4.86778771E-1	0.00000000E+0
240	15/03/2023	17:21:23.701	0.00000000E+0	6.17849112E+0	5.00000000E+0	4.08419526E-1	0.00000000E+0
242	15/03/2023	17:21:26.702	0.00000000E+0	6.28318531E+0	5.00000000E+0	3.76132639E-1	0.00000000E+0
