#Iteration	Date	Time	STSX	STSY	RotationRateX	RotationRateY	FrCntX	FrCntY	TiptiltCmd1	TiptiltCmd2	TiptiltMonitor1	TiptiltMonitor2
1	17/03/2023	15:29:12.299	0.00000E+0	0.00000E+0	6.99179E+1	1.14502E+0	0.00000E+0	0.00000E+0	2.22976E+1	1.27399E+1	2.22973E+1	1.27408E+1
2	17/03/2023	15:29:13.782	0.00000E+0	0.00000E+0	9.99568E+1	7.19549E-1	0.00000E+0	0.00000E+0	2.26839E+1	1.22941E+1	2.26832E+1	1.22938E+1
3	17/03/2023	15:29:15.271	0.00000E+0	0.00000E+0	-9.57117E+1	-8.90474E-1	0.00000E+0	0.00000E+0	1.98739E+1	1.50371E+1	1.98721E+1	1.50359E+1
4	17/03/2023	15:29:16.747	0.00000E+0	0.00000E+0	2.73353E+1	1.59219E+0	0.00000E+0	0.00000E+0	2.14801E+1	1.35065E+1	2.14825E+1	1.35081E+1
5	17/03/2023	15:29:18.276	0.00000E+0	0.00000E+0	1.19903E+2	7.35755E-1	0.00000E+0	0.00000E+0	2.30160E+1	1.19561E+1	2.30155E+1	1.19553E+1
6	17/03/2023	15:29:19.760	0.00000E+0	0.00000E+0	-1.45206E+2	-1.25262E+0	0.00000E+0	0.00000E+0	1.92158E+1	1.57519E+1	1.92153E+1	1.57515E+1
7	17/03/2023	15:29:21.236	0.00000E+0	0.00000E+0	-1.12933E+2	-3.29584E-1	0.00000E+0	0.00000E+0	1.95770E+1	1.53177E+1	1.95785E+1	1.53178E+1
8	17/03/2023	15:29:22.735	0.00000E+0	0.00000E+0	1.02965E+2	-4.58814E-1	0.00000E+0	0.00000E+0	2.26519E+1	1.22510E+1	2.26516E+1	1.22501E+1
9	17/03/2023	15:29:24.215	0.00000E+0	0.00000E+0	1.50051E+2	2.33190E+0	0.00000E+0	0.00000E+0	2.34198E+1	1.15395E+1	2.34208E+1	1.15402E+1
10	17/03/2023	15:29:25.729	0.00000E+0	0.00000E+0	-1.36501E+2	-1.43371E+0	0.00000E+0	0.00000E+0	1.93028E+1	1.56154E+1	1.93010E+1	1.56160E+1
11	17/03/2023	15:29:27.199	0.00000E+0	0.00000E+0	-1.09260E+2	8.64870E-2	0.00000E+0	0.00000E+0	1.96650E+1	1.52670E+1	1.96671E+1	1.52666E+1
12	17/03/2023	15:29:28.700	0.00000E+0	0.00000E+0	1.38365E+2	-1.19775E+0	0.00000E+0	0.00000E+0	2.32839E+1	1.17262E+1	2.32820E+1	1.17253E+1
13	17/03/2023	15:29:30.200	0.00000E+0	0.00000E+0	1.29446E+2	5.89052E-1	0.00000E+0	0.00000E+0	2.31276E+1	1.18351E+1	2.31293E+1	1.18360E+1
14	17/03/2023	15:29:31.666	0.00000E+0	0.00000E+0	-1.11248E+2	-1.19265E+0	0.00000E+0	0.00000E+0	1.96837E+1	1.52295E+1	1.96831E+1	1.52276E+1
15	17/03/2023	15:29:33.153	0.00000E+0	0.00000E+0	-1.04523E+2	1.71147E-1	0.00000E+0	0.00000E+0	1.97500E+1	1.51812E+1	1.97511E+1	1.51839E+1
16	17/03/2023	15:29:34.631	0.00000E+0	0.00000E+0	1.06916E+2	2.29583E+0	0.00000E+0	0.00000E+0	2.28018E+1	1.21476E+1	2.28001E+1	1.21469E+1
17	17/03/2023	15:29:36.129	0.00000E+0	0.00000E+0	1.31967E+2	8.55707E-1	0.00000E+0	0.00000E+0	2.31657E+1	1.17926E+1	2.31637E+1	1.17900E+1
18	17/03/2023	15:29:37.646	0.00000E+0	0.00000E+0	-1.10915E+2	5.35308E-1	0.00000E+0	0.00000E+0	1.96642E+1	1.53029E+1	1.96635E+1	1.53026E+1
19	17/03/2023	15:29:39.105	0.00000E+0	0.00000E+0	-1.10452E+2	-3.72695E-1	0.00000E+0	0.00000E+0	1.97196E+1	1.52361E+1	1.97202E+1	1.52362E+1
20	17/03/2023	15:29:40.567	0.00000E+0	0.00000E+0	1.24460E+2	4.40645E+0	0.00000E+0	0.00000E+0	2.29969E+1	1.20260E+1	2.29944E+1	1.20284E+1
21	17/03/2023	15:29:42.076	0.00000E+0	0.00000E+0	1.42776E+2	1.06126E+0	0.00000E+0	0.00000E+0	2.32437E+1	1.17053E+1	2.32461E+1	1.17058E+1
22	17/03/2023	15:29:43.545	0.00000E+0	0.00000E+0	-3.36611E+1	-2.00671E-1	0.00000E+0	0.00000E+0	2.11248E+1	1.38546E+1	2.11246E+1	1.38575E+1
23	17/03/2023	15:29:45.042	0.00000E+0	0.00000E+0	-1.24774E+2	-1.49228E+0	0.00000E+0	0.00000E+0	1.94914E+1	1.54542E+1	1.94921E+1	1.54559E+1
24	17/03/2023	15:29:46.567	0.00000E+0	0.00000E+0	-8.91298E+1	-2.26217E-1	0.00000E+0	0.00000E+0	1.99706E+1	1.49670E+1	1.99683E+1	1.49641E+1
25	17/03/2023	15:29:48.040	0.00000E+0	0.00000E+0	1.29264E+2	1.32186E+0	0.00000E+0	0.00000E+0	2.31118E+1	1.18544E+1	2.31154E+1	1.18528E+1
26	17/03/2023	15:29:49.528	0.00000E+0	0.00000E+0	1.14748E+2	1.36676E-1	0.00000E+0	0.00000E+0	2.28968E+1	1.20746E+1	2.28959E+1	1.20749E+1
27	17/03/2023	15:29:51.124	0.00000E+0	0.00000E+0	-1.01605E+2	-5.63616E-2	0.00000E+0	0.00000E+0	1.98655E+1	1.50491E+1	1.98675E+1	1.50492E+1
28	17/03/2023	15:29:52.576	0.00000E+0	0.00000E+0	-1.07721E+2	-1.27166E+0	0.00000E+0	0.00000E+0	1.96996E+1	1.52428E+1	1.96989E+1	1.52420E+1
29	17/03/2023	15:29:54.067	0.00000E+0	0.00000E+0	-1.05430E+2	-6.87414E-1	0.00000E+0	0.00000E+0	1.97188E+1	1.51949E+1	1.97176E+1	1.51972E+1
30	17/03/2023	15:29:55.557	0.00000E+0	0.00000E+0	1.17091E+2	8.18444E-1	0.00000E+0	0.00000E+0	2.29322E+1	1.20751E+1	2.29327E+1	1.20747E+1
31	17/03/2023	15:29:57.041	0.00000E+0	0.00000E+0	1.42823E+2	-5.69333E-1	0.00000E+0	0.00000E+0	2.32475E+1	1.17255E+1	2.32496E+1	1.17255E+1
32	17/03/2023	15:29:58.507	0.00000E+0	0.00000E+0	-1.07655E+2	-2.07138E+0	0.00000E+0	0.00000E+0	1.97409E+1	1.52075E+1	1.97430E+1	1.52048E+1
33	17/03/2023	15:29:59.980	0.00000E+0	0.00000E+0	-9.65333E+1	-5.89103E-1	0.00000E+0	0.00000E+0	1.98976E+1	1.50416E+1	1.98972E+1	1.50423E+1
34	17/03/2023	15:30:01.460	0.00000E+0	0.00000E+0	-4.41206E+1	-5.40647E-1	0.00000E+0	0.00000E+0	2.05555E+1	1.44154E+1	2.05549E+1	1.44159E+1
35	17/03/2023	15:30:02.944	0.00000E+0	0.00000E+0	1.03873E+2	8.31544E-1	0.00000E+0	0.00000E+0	2.27082E+1	1.22500E+1	2.27093E+1	1.22477E+1
36	17/03/2023	15:30:04.473	0.00000E+0	0.00000E+0	9.42574E+1	1.63141E+0	0.00000E+0	0.00000E+0	2.25937E+1	1.23877E+1	2.25938E+1	1.23880E+1
37	17/03/2023	15:30:05.941	0.00000E+0	0.00000E+0	-1.07256E+2	-2.29403E-1	0.00000E+0	0.00000E+0	1.96951E+1	1.52196E+1	1.96911E+1	1.52195E+1
38	17/03/2023	15:30:07.418	0.00000E+0	0.00000E+0	-1.23997E+2	-5.43792E-1	0.00000E+0	0.00000E+0	1.94612E+1	1.54632E+1	1.94624E+1	1.54606E+1
39	17/03/2023	15:30:08.920	0.00000E+0	0.00000E+0	1.11406E+2	2.20697E+0	0.00000E+0	0.00000E+0	2.28516E+1	1.21016E+1	2.28522E+1	1.21008E+1
40	17/03/2023	15:30:10.426	0.00000E+0	0.00000E+0	1.26267E+2	2.51005E+0	0.00000E+0	0.00000E+0	2.30793E+1	1.18870E+1	2.30805E+1	1.18880E+1
41	17/03/2023	15:30:11.908	0.00000E+0	0.00000E+0	-1.32397E+2	-7.05240E-1	0.00000E+0	0.00000E+0	1.93696E+1	1.55767E+1	1.93697E+1	1.55756E+1
42	17/03/2023	15:30:13.414	0.00000E+0	0.00000E+0	-1.21204E+2	-7.43900E-1	0.00000E+0	0.00000E+0	1.95051E+1	1.54431E+1	1.95040E+1	1.54430E+1
43	17/03/2023	15:30:14.909	0.00000E+0	0.00000E+0	1.21757E+2	1.82610E+0	0.00000E+0	0.00000E+0	2.28124E+1	1.21315E+1	2.28138E+1	1.21306E+1
44	17/03/2023	15:30:16.388	0.00000E+0	0.00000E+0	1.36388E+2	7.05956E-1	0.00000E+0	0.00000E+0	2.32789E+1	1.17370E+1	2.32785E+1	1.17384E+1
45	17/03/2023	15:30:17.890	0.00000E+0	0.00000E+0	-1.70119E+2	-1.42243E+0	0.00000E+0	0.00000E+0	1.88514E+1	1.60403E+1	1.88489E+1	1.60407E+1
46	17/03/2023	15:30:19.389	0.00000E+0	0.00000E+0	-1.43772E+2	-1.87141E+0	0.00000E+0	0.00000E+0	1.91940E+1	1.57513E+1	1.91941E+1	1.57513E+1
47	17/03/2023	15:30:20.858	0.00000E+0	0.00000E+0	1.92712E+2	4.18508E+0	0.00000E+0	0.00000E+0	2.39976E+1	1.10100E+1	2.39978E+1	1.10107E+1
48	17/03/2023	15:30:22.357	0.00000E+0	0.00000E+0	-1.45028E+2	-1.71686E+0	0.00000E+0	0.00000E+0	1.93990E+1	1.54810E+1	1.93980E+1	1.54804E+1
49	17/03/2023	15:30:23.858	0.00000E+0	0.00000E+0	-1.51038E+2	-2.45566E+0	0.00000E+0	0.00000E+0	1.90880E+1	1.58189E+1	1.90876E+1	1.58196E+1
50	17/03/2023	15:30:25.298	0.00000E+0	0.00000E+0	1.73465E+2	2.94665E+0	0.00000E+0	0.00000E+0	2.36810E+1	1.12848E+1	2.36814E+1	1.12863E+1
51	17/03/2023	15:30:26.808	0.00000E+0	0.00000E+0	1.40195E+2	1.67128E-1	0.00000E+0	0.00000E+0	2.32222E+1	1.17603E+1	2.32224E+1	1.17603E+1
52	17/03/2023	15:30:28.294	0.00000E+0	0.00000E+0	-1.56708E+2	-2.31277E+0	0.00000E+0	0.00000E+0	1.90533E+1	1.59199E+1	1.90528E+1	1.59198E+1
53	17/03/2023	15:30:29.770	0.00000E+0	0.00000E+0	-1.10886E+2	9.23076E-2	0.00000E+0	0.00000E+0	1.96049E+1	1.53235E+1	1.96030E+1	1.53240E+1
54	17/03/2023	15:30:31.271	0.00000E+0	0.00000E+0	1.58681E+2	3.15476E+0	0.00000E+0	0.00000E+0	2.34778E+1	1.14658E+1	2.34785E+1	1.14635E+1
55	17/03/2023	15:30:32.727	0.00000E+0	0.00000E+0	-9.91121E+1	-4.10151E-1	0.00000E+0	0.00000E+0	2.02609E+1	1.46806E+1	2.02588E+1	1.46823E+1
56	17/03/2023	15:30:34.231	0.00000E+0	0.00000E+0	-1.35457E+2	-6.97967E-1	0.00000E+0	0.00000E+0	1.93069E+1	1.56273E+1	1.93089E+1	1.56261E+1
57	17/03/2023	15:30:35.709	0.00000E+0	0.00000E+0	1.63152E+2	2.81564E+0	0.00000E+0	0.00000E+0	2.34922E+1	1.14776E+1	2.34937E+1	1.14802E+1
58	17/03/2023	15:30:37.191	0.00000E+0	0.00000E+0	1.46937E+2	-6.57519E-1	0.00000E+0	0.00000E+0	2.33914E+1	1.15922E+1	2.33909E+1	1.15900E+1
59	17/03/2023	15:30:38.660	0.00000E+0	0.00000E+0	-1.65030E+2	-1.01979E+0	0.00000E+0	0.00000E+0	1.89204E+1	1.60023E+1	1.89214E+1	1.60029E+1
60	17/03/2023	15:30:40.155	0.00000E+0	0.00000E+0	-1.17339E+2	3.13318E-1	0.00000E+0	0.00000E+0	1.94442E+1	1.54701E+1	1.94429E+1	1.54702E+1
61	17/03/2023	15:30:41.644	0.00000E+0	0.00000E+0	1.64149E+2	1.70865E+0	0.00000E+0	0.00000E+0	2.36094E+1	1.14413E+1	2.36112E+1	1.14400E+1
62	17/03/2023	15:30:43.146	0.00000E+0	0.00000E+0	-1.09730E+2	-3.27820E+0	0.00000E+0	0.00000E+0	1.99466E+1	1.50240E+1	1.99456E+1	1.50227E+1
63	17/03/2023	15:30:44.640	0.00000E+0	0.00000E+0	-1.22781E+2	-1.87229E+0	0.00000E+0	0.00000E+0	1.94723E+1	1.54386E+1	1.94728E+1	1.54389E+1
64	17/03/2023	15:30:46.188	0.00000E+0	0.00000E+0	9.51484E+1	2.97995E+0	0.00000E+0	0.00000E+0	2.23640E+1	1.25893E+1	2.23630E+1	1.25891E+1
65	17/03/2023	15:30:47.671	0.00000E+0	0.00000E+0	1.21223E+2	9.93229E-1	0.00000E+0	0.00000E+0	2.30030E+1	1.20085E+1	2.30037E+1	1.20064E+1
66	17/03/2023	15:30:49.146	0.00000E+0	0.00000E+0	-3.71055E+1	-5.17404E-1	0.00000E+0	0.00000E+0	2.11210E+1	1.39152E+1	2.11205E+1	1.39168E+1
67	17/03/2023	15:30:50.625	0.00000E+0	0.00000E+0	-1.50117E+2	-2.13826E-1	0.00000E+0	0.00000E+0	1.91053E+1	1.58139E+1	1.91041E+1	1.58131E+1
68	17/03/2023	15:30:52.129	0.00000E+0	0.00000E+0	1.98844E+2	1.34963E+0	0.00000E+0	0.00000E+0	2.40214E+1	1.09076E+1	2.40221E+1	1.09095E+1
69	17/03/2023	15:30:53.591	0.00000E+0	0.00000E+0	-8.72975E-1	-4.52712E+0	0.00000E+0	0.00000E+0	2.18535E+1	1.30894E+1	2.18539E+1	1.30879E+1
70	17/03/2023	15:30:55.070	0.00000E+0	0.00000E+0	-1.72750E+2	-4.14751E-1	0.00000E+0	0.00000E+0	1.87774E+1	1.61024E+1	1.87775E+1	1.61021E+1
71	17/03/2023	15:30:56.568	0.00000E+0	0.00000E+0	1.90566E+2	2.37482E+0	0.00000E+0	0.00000E+0	2.40151E+1	1.09463E+1	2.40159E+1	1.09469E+1
72	17/03/2023	15:30:58.024	0.00000E+0	0.00000E+0	4.97298E+1	2.19060E-1	0.00000E+0	0.00000E+0	2.24871E+1	1.25592E+1	2.24876E+1	1.25592E+1
73	17/03/2023	15:30:59.526	0.00000E+0	0.00000E+0	-1.43714E+2	-2.52332E+0	0.00000E+0	0.00000E+0	1.91850E+1	1.58092E+1	1.91840E+1	1.58085E+1
74	17/03/2023	15:31:01.010	0.00000E+0	0.00000E+0	1.93128E+2	3.29051E+0	0.00000E+0	0.00000E+0	2.39932E+1	1.10295E+1	2.39924E+1	1.10296E+1
75	17/03/2023	15:31:02.517	0.00000E+0	0.00000E+0	1.19864E+2	3.02974E+0	0.00000E+0	0.00000E+0	2.32590E+1	1.16894E+1	2.32599E+1	1.16916E+1
76	17/03/2023	15:31:03.972	0.00000E+0	0.00000E+0	-1.69972E+2	-3.38202E+0	0.00000E+0	0.00000E+0	1.87862E+1	1.61051E+1	1.87837E+1	1.61065E+1
77	17/03/2023	15:31:05.454	0.00000E+0	0.00000E+0	1.90848E+2	-2.38522E+0	0.00000E+0	0.00000E+0	2.39586E+1	1.10094E+1	2.39608E+1	1.10110E+1
78	17/03/2023	15:31:07.019	0.00000E+0	0.00000E+0	-1.01496E+2	-2.13066E-1	0.00000E+0	0.00000E+0	2.04239E+1	1.45161E+1	2.04203E+1	1.45150E+1
79	17/03/2023	15:31:08.490	0.00000E+0	0.00000E+0	-1.44416E+2	-1.42576E+0	0.00000E+0	0.00000E+0	1.91852E+1	1.57255E+1	1.91863E+1	1.57237E+1
80	17/03/2023	15:31:09.963	0.00000E+0	0.00000E+0	1.76048E+2	2.49869E+0	0.00000E+0	0.00000E+0	2.38432E+1	1.11917E+1	2.38392E+1	1.11938E+1
81	17/03/2023	15:31:11.438	0.00000E+0	0.00000E+0	1.51392E+2	-1.09807E-2	0.00000E+0	0.00000E+0	2.34701E+1	1.15401E+1	2.34686E+1	1.15414E+1
82	17/03/2023	15:31:12.941	0.00000E+0	0.00000E+0	-1.80041E+2	-8.57382E-1	0.00000E+0	0.00000E+0	1.86838E+1	1.63273E+1	1.86826E+1	1.63283E+1
83	17/03/2023	15:31:14.408	0.00000E+0	0.00000E+0	1.98905E+2	3.71872E+0	0.00000E+0	0.00000E+0	2.40736E+1	1.09671E+1	2.40713E+1	1.09674E+1
84	17/03/2023	15:31:15.908	0.00000E+0	0.00000E+0	1.33788E+2	3.44473E-1	0.00000E+0	0.00000E+0	2.32802E+1	1.17171E+1	2.32806E+1	1.17167E+1
85	17/03/2023	15:31:17.389	0.00000E+0	0.00000E+0	-1.63888E+2	-3.10744E+0	0.00000E+0	0.00000E+0	1.89817E+1	1.59829E+1	1.89825E+1	1.59871E+1
86	17/03/2023	15:31:18.868	0.00000E+0	0.00000E+0	1.70778E+2	2.56641E+0	0.00000E+0	0.00000E+0	2.34741E+1	1.15624E+1	2.34736E+1	1.15611E+1
87	17/03/2023	15:31:20.338	0.00000E+0	0.00000E+0	1.68862E+2	7.08116E-1	0.00000E+0	0.00000E+0	2.36838E+1	1.12290E+1	2.36856E+1	1.12276E+1
88	17/03/2023	15:31:21.837	0.00000E+0	0.00000E+0	-1.67443E+2	3.29480E-1	0.00000E+0	0.00000E+0	1.87952E+1	1.60693E+1	1.87933E+1	1.60689E+1
89	17/03/2023	15:31:23.333	0.00000E+0	0.00000E+0	1.26959E+2	2.18187E+0	0.00000E+0	0.00000E+0	2.29403E+1	1.19758E+1	2.29388E+1	1.19779E+1
90	17/03/2023	15:31:24.820	0.00000E+0	0.00000E+0	1.43773E+2	2.98119E+0	0.00000E+0	0.00000E+0	2.33120E+1	1.16877E+1	2.33113E+1	1.16852E+1
91	17/03/2023	15:31:26.305	0.00000E+0	0.00000E+0	-1.86321E+2	-4.04039E+0	0.00000E+0	0.00000E+0	1.86413E+1	1.62639E+1	1.86407E+1	1.62632E+1
92	17/03/2023	15:31:27.778	0.00000E+0	0.00000E+0	-3.92452E+1	-4.29057E-1	0.00000E+0	0.00000E+0	2.02859E+1	1.46490E+1	2.02846E+1	1.46479E+1
93	17/03/2023	15:31:29.280	0.00000E+0	0.00000E+0	2.08754E+2	2.14690E+0	0.00000E+0	0.00000E+0	2.42169E+1	1.07712E+1	2.42202E+1	1.07708E+1
94	17/03/2023	15:31:30.774	0.00000E+0	0.00000E+0	-1.64581E+2	-4.49278E-1	0.00000E+0	0.00000E+0	1.89659E+1	1.59691E+1	1.89642E+1	1.59684E+1
95	17/03/2023	15:31:32.269	0.00000E+0	0.00000E+0	-1.28561E+2	8.61722E-1	0.00000E+0	0.00000E+0	1.93016E+1	1.55814E+1	1.93024E+1	1.55823E+1
96	17/03/2023	15:31:33.797	0.00000E+0	0.00000E+0	1.87973E+2	3.25736E-1	0.00000E+0	0.00000E+0	2.39329E+1	1.10412E+1	2.39336E+1	1.10403E+1
97	17/03/2023	15:31:35.278	0.00000E+0	0.00000E+0	-1.16321E+2	-3.37362E+0	0.00000E+0	0.00000E+0	1.98143E+1	1.50805E+1	1.98136E+1	1.50802E+1
98	17/03/2023	15:31:36.744	0.00000E+0	0.00000E+0	-1.91490E+2	9.86574E-1	0.00000E+0	0.00000E+0	1.83971E+1	1.64733E+1	1.83976E+1	1.64722E+1
99	17/03/2023	15:31:38.213	0.00000E+0	0.00000E+0	2.07007E+2	8.66487E-1	0.00000E+0	0.00000E+0	2.41796E+1	1.08012E+1	2.41798E+1	1.08010E+1
100	17/03/2023	15:31:39.698	0.00000E+0	0.00000E+0	-1.20405E+2	5.76141E-1	0.00000E+0	0.00000E+0	1.96490E+1	1.52561E+1	1.96486E+1	1.52580E+1
101	17/03/2023	15:31:41.189	0.00000E+0	0.00000E+0	-1.60125E+2	2.37425E-1	0.00000E+0	0.00000E+0	1.89309E+1	1.59664E+1	1.89305E+1	1.59637E+1
102	17/03/2023	15:31:42.649	0.00000E+0	0.00000E+0	1.81527E+2	2.34800E+0	0.00000E+0	0.00000E+0	2.37832E+1	1.11678E+1	2.37842E+1	1.11695E+1
103	17/03/2023	15:31:44.107	0.00000E+0	0.00000E+0	-2.50024E+1	5.88795E-1	0.00000E+0	0.00000E+0	2.11710E+1	1.37783E+1	2.11668E+1	1.37784E+1
104	17/03/2023	15:31:45.594	0.00000E+0	0.00000E+0	-1.58458E+2	9.73635E-1	0.00000E+0	0.00000E+0	1.88888E+1	1.60690E+1	1.88899E+1	1.60675E+1
105	17/03/2023	15:31:47.091	0.00000E+0	0.00000E+0	1.98439E+2	1.98792E+0	0.00000E+0	0.00000E+0	2.40283E+1	1.09578E+1	2.40285E+1	1.09561E+1
106	17/03/2023	15:31:48.571	0.00000E+0	0.00000E+0	-7.76751E+1	-2.93945E+0	0.00000E+0	0.00000E+0	2.03253E+1	1.46316E+1	2.03251E+1	1.46318E+1
107	17/03/2023	15:31:50.063	0.00000E+0	0.00000E+0	-1.91988E+2	-2.18779E+0	0.00000E+0	0.00000E+0	1.84079E+1	1.64561E+1	1.84059E+1	1.64564E+1
108	17/03/2023	15:31:51.542	0.00000E+0	0.00000E+0	2.16974E+2	8.50664E-1	0.00000E+0	0.00000E+0	2.43113E+1	1.06533E+1	2.43122E+1	1.06518E+1
109	17/03/2023	15:31:53.023	0.00000E+0	0.00000E+0	4.37635E+1	-3.18255E-1	0.00000E+0	0.00000E+0	2.22776E+1	1.27290E+1	2.22766E+1	1.27304E+1
110	17/03/2023	15:31:54.511	0.00000E+0	0.00000E+0	-2.09965E+2	1.81483E+0	0.00000E+0	0.00000E+0	1.82768E+1	1.66818E+1	1.82758E+1	1.66809E+1
111	17/03/2023	15:31:55.976	0.00000E+0	0.00000E+0	2.13760E+2	-6.53999E-2	0.00000E+0	0.00000E+0	2.41819E+1	1.07406E+1	2.41789E+1	1.07398E+1
112	17/03/2023	15:31:57.516	0.00000E+0	0.00000E+0	-1.25215E+2	-2.02647E+0	0.00000E+0	0.00000E+0	1.96950E+1	1.52406E+1	1.96949E+1	1.52408E+1
113	17/03/2023	15:31:59.029	0.00000E+0	0.00000E+0	-1.84219E+2	2.75242E-1	0.00000E+0	0.00000E+0	1.85279E+1	1.63761E+1	1.85297E+1	1.63738E+1
114	17/03/2023	15:32:00.498	0.00000E+0	0.00000E+0	2.77448E+2	3.07125E-1	0.00000E+0	0.00000E+0	2.52220E+1	9.80423E+0	2.52222E+1	9.80312E+0
115	17/03/2023	15:32:01.972	0.00000E+0	0.00000E+0	-2.27372E+2	-4.81518E-1	0.00000E+0	0.00000E+0	1.81688E+1	1.67968E+1	1.81696E+1	1.67987E+1
116	17/03/2023	15:32:03.431	0.00000E+0	0.00000E+0	-6.33456E+0	1.21837E+0	0.00000E+0	0.00000E+0	2.07753E+1	1.41310E+1	2.07745E+1	1.41314E+1
117	17/03/2023	15:32:04.908	0.00000E+0	0.00000E+0	2.23301E+2	8.97821E-1	0.00000E+0	0.00000E+0	2.45165E+1	1.04638E+1	2.45154E+1	1.04645E+1
118	17/03/2023	15:32:06.379	0.00000E+0	0.00000E+0	-2.32499E+2	-5.40525E+0	0.00000E+0	0.00000E+0	1.80238E+1	1.69250E+1	1.80246E+1	1.69249E+1
119	17/03/2023	15:32:07.890	0.00000E+0	0.00000E+0	1.65070E+2	5.01036E-1	0.00000E+0	0.00000E+0	2.33101E+1	1.15836E+1	2.33112E+1	1.15824E+1
120	17/03/2023	15:32:09.359	0.00000E+0	0.00000E+0	8.18276E+1	-9.51580E-1	0.00000E+0	0.00000E+0	2.27135E+1	1.23177E+1	2.27129E+1	1.23160E+1
121	17/03/2023	15:32:10.827	0.00000E+0	0.00000E+0	-2.22851E+2	2.31960E-1	0.00000E+0	0.00000E+0	1.80251E+1	1.68485E+1	1.80268E+1	1.68495E+1
122	17/03/2023	15:32:12.309	0.00000E+0	0.00000E+0	2.13063E+2	5.72889E-1	0.00000E+0	0.00000E+0	2.41985E+1	1.08026E+1	2.41981E+1	1.08066E+1
123	17/03/2023	15:32:13.774	0.00000E+0	0.00000E+0	4.35107E+1	1.86623E+0	0.00000E+0	0.00000E+0	2.21947E+1	1.28026E+1	2.21940E+1	1.28024E+1
124	17/03/2023	15:32:15.250	0.00000E+0	0.00000E+0	-1.89197E+2	2.79330E-1	0.00000E+0	0.00000E+0	1.85248E+1	1.63683E+1	1.85250E+1	1.63685E+1
125	17/03/2023	15:32:16.729	0.00000E+0	0.00000E+0	2.17256E+2	2.63029E-1	0.00000E+0	0.00000E+0	2.42603E+1	1.07011E+1	2.42620E+1	1.07004E+1
126	17/03/2023	15:32:18.214	0.00000E+0	0.00000E+0	-1.07429E+2	-1.28895E-1	0.00000E+0	0.00000E+0	1.99444E+1	1.50190E+1	1.99429E+1	1.50178E+1
127	17/03/2023	15:32:19.683	0.00000E+0	0.00000E+0	-1.83070E+2	-2.39906E+0	0.00000E+0	0.00000E+0	1.86068E+1	1.63001E+1	1.86037E+1	1.62997E+1
128	17/03/2023	15:32:21.180	0.00000E+0	0.00000E+0	2.48603E+2	2.33410E+0	0.00000E+0	0.00000E+0	2.47654E+1	1.02099E+1	2.47661E+1	1.02090E+1
129	17/03/2023	15:32:22.646	0.00000E+0	0.00000E+0	-1.53970E+2	-2.00045E+0	0.00000E+0	0.00000E+0	1.93109E+1	1.56438E+1	1.93105E+1	1.56446E+1
130	17/03/2023	15:32:24.146	0.00000E+0	0.00000E+0	-1.49484E+2	1.03109E-1	0.00000E+0	0.00000E+0	1.88909E+1	1.59237E+1	1.88925E+1	1.59241E+1
131	17/03/2023	15:32:25.633	0.00000E+0	0.00000E+0	2.24188E+2	1.47580E+0	0.00000E+0	0.00000E+0	2.44282E+1	1.05362E+1	2.44277E+1	1.05366E+1
132	17/03/2023	15:32:27.145	0.00000E+0	0.00000E+0	-1.70283E+2	2.28355E-3	0.00000E+0	0.00000E+0	1.89028E+1	1.60188E+1	1.89016E+1	1.60192E+1
133	17/03/2023	15:32:28.621	0.00000E+0	0.00000E+0	-1.85458E+2	-2.04473E+0	0.00000E+0	0.00000E+0	1.84202E+1	1.64926E+1	1.84205E+1	1.64924E+1
134	17/03/2023	15:32:30.123	0.00000E+0	0.00000E+0	1.95718E+2	1.75342E+0	0.00000E+0	0.00000E+0	2.40343E+1	1.09607E+1	2.40350E+1	1.09610E+1
135	17/03/2023	15:32:31.624	0.00000E+0	0.00000E+0	-1.35361E+2	-2.87946E+0	0.00000E+0	0.00000E+0	1.95308E+1	1.53992E+1	1.95298E+1	1.53988E+1
136	17/03/2023	15:32:33.081	0.00000E+0	0.00000E+0	-1.78079E+2	-3.91937E+0	0.00000E+0	0.00000E+0	1.86559E+1	1.62668E+1	1.86559E+1	1.62677E+1
137	17/03/2023	15:32:34.542	0.00000E+0	0.00000E+0	2.21315E+2	2.25779E+0	0.00000E+0	0.00000E+0	2.44006E+1	1.06727E+1	2.44019E+1	1.06756E+1
138	17/03/2023	15:32:36.048	0.00000E+0	0.00000E+0	-1.49199E+2	-2.58738E+0	0.00000E+0	0.00000E+0	1.93165E+1	1.56242E+1	1.93183E+1	1.56243E+1
139	17/03/2023	15:32:37.505	0.00000E+0	0.00000E+0	-1.81436E+2	-2.01958E-3	0.00000E+0	0.00000E+0	1.86204E+1	1.63420E+1	1.86193E+1	1.63406E+1
140	17/03/2023	15:32:38.986	0.00000E+0	0.00000E+0	1.99694E+2	-1.58621E-1	0.00000E+0	0.00000E+0	2.39811E+1	1.09882E+1	2.39799E+1	1.09846E+1
141	17/03/2023	15:32:40.482	0.00000E+0	0.00000E+0	7.03584E+1	9.80460E-1	0.00000E+0	0.00000E+0	2.21815E+1	1.27801E+1	2.21846E+1	1.27831E+1
142	17/03/2023	15:32:41.945	0.00000E+0	0.00000E+0	-1.92595E+2	-5.34397E-1	0.00000E+0	0.00000E+0	1.85633E+1	1.63929E+1	1.85636E+1	1.63927E+1
143	17/03/2023	15:32:43.443	0.00000E+0	0.00000E+0	3.85302E+1	5.93880E-1	0.00000E+0	0.00000E+0	2.13133E+1	1.36748E+1	2.13140E+1	1.36760E+1
144	17/03/2023	15:32:44.926	0.00000E+0	0.00000E+0	1.90593E+2	3.10778E+0	0.00000E+0	0.00000E+0	2.40171E+1	1.10094E+1	2.40170E+1	1.10077E+1
145	17/03/2023	15:32:46.397	0.00000E+0	0.00000E+0	-1.77480E+2	8.39087E-1	0.00000E+0	0.00000E+0	1.87809E+1	1.62033E+1	1.87784E+1	1.62047E+1
146	17/03/2023	15:32:47.862	0.00000E+0	0.00000E+0	-8.52275E+1	6.67773E-1	0.00000E+0	0.00000E+0	1.95803E+1	1.53036E+1	1.95799E+1	1.53044E+1
147	17/03/2023	15:32:49.336	0.00000E+0	0.00000E+0	1.83546E+2	1.41188E+0	0.00000E+0	0.00000E+0	2.38659E+1	1.10940E+1	2.38629E+1	1.10928E+1
148	17/03/2023	15:32:50.818	0.00000E+0	0.00000E+0	-1.75629E+2	-1.03278E+0	0.00000E+0	0.00000E+0	1.87338E+1	1.61780E+1	1.87327E+1	1.61780E+1
149	17/03/2023	15:32:52.293	0.00000E+0	0.00000E+0	-1.52593E+2	-9.60875E-1	0.00000E+0	0.00000E+0	1.90002E+1	1.58976E+1	1.90003E+1	1.58978E+1
150	17/03/2023	15:32:53.801	0.00000E+0	0.00000E+0	1.91686E+2	8.66836E-1	0.00000E+0	0.00000E+0	2.39910E+1	1.10060E+1	2.39890E+1	1.10069E+1
151	17/03/2023	15:32:55.298	0.00000E+0	0.00000E+0	-1.89714E+2	-8.49775E-1	0.00000E+0	0.00000E+0	1.85474E+1	1.64160E+1	1.85463E+1	1.64145E+1
152	17/03/2023	15:32:56.790	0.00000E+0	0.00000E+0	-1.46303E+2	7.16203E-1	0.00000E+0	0.00000E+0	1.91661E+1	1.57070E+1	1.91655E+1	1.57074E+1
153	17/03/2023	15:32:58.272	0.00000E+0	0.00000E+0	1.74500E+2	1.76506E-1	0.00000E+0	0.00000E+0	2.37764E+1	1.12275E+1	2.37781E+1	1.12276E+1
154	17/03/2023	15:32:59.741	0.00000E+0	0.00000E+0	-1.79307E+2	7.89593E-1	0.00000E+0	0.00000E+0	1.87853E+1	1.61480E+1	1.87825E+1	1.61479E+1
155	17/03/2023	15:33:01.214	0.00000E+0	0.00000E+0	-1.62497E+2	4.75465E-1	0.00000E+0	0.00000E+0	1.89483E+1	1.59879E+1	1.89512E+1	1.59876E+1
156	17/03/2023	15:33:02.709	0.00000E+0	0.00000E+0	1.75131E+2	2.29056E+0	0.00000E+0	0.00000E+0	2.37645E+1	1.11777E+1	2.37657E+1	1.11777E+1
157	17/03/2023	15:33:04.166	0.00000E+0	0.00000E+0	-6.84108E+1	-5.64692E-1	0.00000E+0	0.00000E+0	2.06453E+1	1.43064E+1	2.06417E+1	1.43059E+1
158	17/03/2023	15:33:05.635	0.00000E+0	0.00000E+0	-1.51548E+2	1.73743E-1	0.00000E+0	0.00000E+0	1.90546E+1	1.58530E+1	1.90554E+1	1.58505E+1
159	17/03/2023	15:33:07.163	0.00000E+0	0.00000E+0	1.82122E+2	-1.24201E+0	0.00000E+0	0.00000E+0	2.38042E+1	1.11106E+1	2.38034E+1	1.11101E+1
160	17/03/2023	15:33:08.664	0.00000E+0	0.00000E+0	6.66548E+1	4.68232E-1	0.00000E+0	0.00000E+0	2.23422E+1	1.26491E+1	2.23416E+1	1.26494E+1
161	17/03/2023	15:33:10.164	0.00000E+0	0.00000E+0	-1.60728E+2	-2.88031E-1	0.00000E+0	0.00000E+0	1.89118E+1	1.59590E+1	1.89117E+1	1.59585E+1
162	17/03/2023	15:33:11.635	0.00000E+0	0.00000E+0	1.83692E+2	4.13226E+0	0.00000E+0	0.00000E+0	2.38415E+1	1.11646E+1	2.38417E+1	1.11644E+1
163	17/03/2023	15:33:13.184	0.00000E+0	0.00000E+0	1.19337E+2	1.90507E+0	0.00000E+0	0.00000E+0	2.31680E+1	1.18131E+1	2.31676E+1	1.18124E+1
164	17/03/2023	15:33:14.643	0.00000E+0	0.00000E+0	-1.43808E+2	-7.00463E-1	0.00000E+0	0.00000E+0	1.91494E+1	1.57800E+1	1.91489E+1	1.57799E+1
165	17/03/2023	15:33:16.321	0.00000E+0	0.00000E+0	1.57797E+2	4.85826E-1	0.00000E+0	0.00000E+0	2.33928E+1	1.16179E+1	2.33902E+1	1.16168E+1
166	17/03/2023	15:33:17.800	0.00000E+0	0.00000E+0	1.27270E+2	6.21581E-1	0.00000E+0	0.00000E+0	2.31474E+1	1.18133E+1	2.31467E+1	1.18149E+1
167	17/03/2023	15:33:19.314	0.00000E+0	0.00000E+0	-1.70306E+2	6.05412E-1	0.00000E+0	0.00000E+0	1.88415E+1	1.61053E+1	1.88397E+1	1.61049E+1
168	17/03/2023	15:33:20.824	0.00000E+0	0.00000E+0	-1.19604E+2	-2.47409E-1	0.00000E+0	0.00000E+0	1.94926E+1	1.54153E+1	1.94932E+1	1.54144E+1
169	17/03/2023	15:33:22.310	0.00000E+0	0.00000E+0	1.89844E+2	-1.37406E+0	0.00000E+0	0.00000E+0	2.39020E+1	1.10498E+1	2.39003E+1	1.10490E+1
170	17/03/2023	15:33:23.771	0.00000E+0	0.00000E+0	-1.99398E+2	-2.29389E+0	0.00000E+0	0.00000E+0	1.83597E+1	1.64903E+1	1.83572E+1	1.64900E+1
171	17/03/2023	15:33:25.264	0.00000E+0	0.00000E+0	-1.61798E+2	-3.85363E-1	0.00000E+0	0.00000E+0	1.89017E+1	1.60481E+1	1.89026E+1	1.60495E+1
172	17/03/2023	15:33:26.760	0.00000E+0	0.00000E+0	1.99481E+2	2.18706E-1	0.00000E+0	0.00000E+0	2.40257E+1	1.09735E+1	2.40240E+1	1.09769E+1
173	17/03/2023	15:33:28.222	0.00000E+0	0.00000E+0	-1.85822E+2	7.53896E-1	0.00000E+0	0.00000E+0	1.85270E+1	1.62941E+1	1.85272E+1	1.62933E+1
174	17/03/2023	15:33:29.695	0.00000E+0	0.00000E+0	-1.32310E+2	-1.28787E+0	0.00000E+0	0.00000E+0	1.93379E+1	1.55640E+1	1.93373E+1	1.55644E+1
175	17/03/2023	15:33:31.173	0.00000E+0	0.00000E+0	1.96535E+2	-7.74861E-1	0.00000E+0	0.00000E+0	2.40555E+1	1.09731E+1	2.40533E+1	1.09741E+1
176	17/03/2023	15:33:32.639	0.00000E+0	0.00000E+0	-2.16277E+2	1.86939E+0	0.00000E+0	0.00000E+0	1.81778E+1	1.67565E+1	1.81766E+1	1.67576E+1
177	17/03/2023	15:33:34.121	0.00000E+0	0.00000E+0	-1.75812E+2	-4.29481E+0	0.00000E+0	0.00000E+0	1.87053E+1	1.62727E+1	1.87060E+1	1.62740E+1
178	17/03/2023	15:33:35.621	0.00000E+0	0.00000E+0	2.04457E+2	2.72446E+0	0.00000E+0	0.00000E+0	2.41583E+1	1.07903E+1	2.41569E+1	1.07922E+1
179	17/03/2023	15:33:37.124	0.00000E+0	0.00000E+0	-1.90253E+2	2.10203E+0	0.00000E+0	0.00000E+0	1.85741E+1	1.64738E+1	1.85763E+1	1.64726E+1
180	17/03/2023	15:33:38.610	0.00000E+0	0.00000E+0	-1.25006E+2	-5.03102E+0	0.00000E+0	0.00000E+0	1.93916E+1	1.55492E+1	1.93900E+1	1.55512E+1
181	17/03/2023	15:33:40.074	0.00000E+0	0.00000E+0	1.95776E+2	2.15280E+0	0.00000E+0	0.00000E+0	2.40061E+1	1.09801E+1	2.40072E+1	1.09816E+1
182	17/03/2023	15:33:41.554	0.00000E+0	0.00000E+0	-2.20871E+2	1.49421E-1	0.00000E+0	0.00000E+0	1.80868E+1	1.68450E+1	1.80873E+1	1.68456E+1
183	17/03/2023	15:33:43.018	0.00000E+0	0.00000E+0	-6.44891E+1	-1.23155E+0	0.00000E+0	0.00000E+0	2.00359E+1	1.49296E+1	2.00355E+1	1.49283E+1
184	17/03/2023	15:33:44.494	0.00000E+0	0.00000E+0	1.67395E+2	7.56747E-2	0.00000E+0	0.00000E+0	2.36608E+1	1.13509E+1	2.36624E+1	1.13507E+1
185	17/03/2023	15:33:45.982	0.00000E+0	0.00000E+0	-1.69778E+2	9.81445E-1	0.00000E+0	0.00000E+0	1.88345E+1	1.61211E+1	1.88349E+1	1.61192E+1
186	17/03/2023	15:33:47.450	0.00000E+0	0.00000E+0	-1.47667E+2	-7.10028E-1	0.00000E+0	0.00000E+0	1.90671E+1	1.58084E+1	1.90674E+1	1.58101E+1
187	17/03/2023	15:33:48.930	0.00000E+0	0.00000E+0	1.72496E+2	1.21682E+0	0.00000E+0	0.00000E+0	2.37353E+1	1.12675E+1	2.37374E+1	1.12684E+1
188	17/03/2023	15:33:50.430	0.00000E+0	0.00000E+0	-1.42803E+2	8.58272E-1	0.00000E+0	0.00000E+0	1.93993E+1	1.55438E+1	1.93973E+1	1.55473E+1
189	17/03/2023	15:33:51.905	0.00000E+0	0.00000E+0	-1.58396E+2	-7.28944E-1	0.00000E+0	0.00000E+0	1.89443E+1	1.59547E+1	1.89453E+1	1.59561E+1
190	17/03/2023	15:33:53.364	0.00000E+0	0.00000E+0	1.90900E+2	2.69641E+0	0.00000E+0	0.00000E+0	2.39604E+1	1.10116E+1	2.39603E+1	1.10116E+1
191	17/03/2023	15:33:54.869	0.00000E+0	0.00000E+0	-1.19384E+2	1.69052E+0	0.00000E+0	0.00000E+0	1.99104E+1	1.50545E+1	1.99128E+1	1.50532E+1
192	17/03/2023	15:33:56.374	0.00000E+0	0.00000E+0	-1.56089E+2	2.19662E+0	0.00000E+0	0.00000E+0	1.89634E+1	1.59452E+1	1.89653E+1	1.59464E+1
193	17/03/2023	15:33:57.846	0.00000E+0	0.00000E+0	1.84951E+2	1.15969E+0	0.00000E+0	0.00000E+0	2.39495E+1	1.10923E+1	2.39487E+1	1.10913E+1
194	17/03/2023	15:33:59.338	0.00000E+0	0.00000E+0	2.79213E+1	-1.63715E+0	0.00000E+0	0.00000E+0	2.23559E+1	1.27234E+1	2.23564E+1	1.27227E+1
195	17/03/2023	15:34:00.865	0.00000E+0	0.00000E+0	-1.45683E+2	-1.97258E+0	0.00000E+0	0.00000E+0	1.91255E+1	1.57805E+1	1.91248E+1	1.57829E+1
196	17/03/2023	15:34:02.342	0.00000E+0	0.00000E+0	1.46661E+2	1.59863E+0	0.00000E+0	0.00000E+0	2.30267E+1	1.19662E+1	2.30268E+1	1.19664E+1
197	17/03/2023	15:34:03.816	0.00000E+0	0.00000E+0	1.73006E+2	-7.59613E-1	0.00000E+0	0.00000E+0	2.36705E+1	1.12604E+1	2.36725E+1	1.12623E+1
198	17/03/2023	15:34:05.286	0.00000E+0	0.00000E+0	-1.70860E+2	4.31923E-2	0.00000E+0	0.00000E+0	1.88491E+1	1.60711E+1	1.88496E+1	1.60710E+1
199	17/03/2023	15:34:06.784	0.00000E+0	0.00000E+0	3.07628E+1	-7.32843E-1	0.00000E+0	0.00000E+0	2.12679E+1	1.36630E+1	2.12685E+1	1.36642E+1
200	17/03/2023	15:34:08.279	0.00000E+0	0.00000E+0	1.93722E+2	1.20463E+0	0.00000E+0	0.00000E+0	2.40083E+1	1.09853E+1	2.40085E+1	1.09838E+1
201	17/03/2023	15:34:09.780	0.00000E+0	0.00000E+0	-1.71061E+2	4.19719E+0	0.00000E+0	0.00000E+0	1.88313E+1	1.61232E+1	1.88307E+1	1.61197E+1
202	17/03/2023	15:34:11.255	0.00000E+0	0.00000E+0	-1.07034E+2	-2.25554E+0	0.00000E+0	0.00000E+0	1.96744E+1	1.52812E+1	1.96760E+1	1.52798E+1
203	17/03/2023	15:34:12.753	0.00000E+0	0.00000E+0	2.08556E+2	2.16182E+0	0.00000E+0	0.00000E+0	2.41457E+1	1.08422E+1	2.41467E+1	1.08412E+1
204	17/03/2023	15:34:14.276	0.00000E+0	0.00000E+0	-1.65750E+2	-4.44644E-1	0.00000E+0	0.00000E+0	1.88977E+1	1.60186E+1	1.88991E+1	1.60158E+1
205	17/03/2023	15:34:15.749	0.00000E+0	0.00000E+0	-1.42663E+2	-1.39645E+0	0.00000E+0	0.00000E+0	1.91905E+1	1.57603E+1	1.91902E+1	1.57606E+1
206	17/03/2023	15:34:17.216	0.00000E+0	0.00000E+0	2.14273E+2	3.38715E+0	0.00000E+0	0.00000E+0	2.43396E+1	1.06877E+1	2.43403E+1	1.06893E+1
207	17/03/2023	15:34:18.689	0.00000E+0	0.00000E+0	-1.78966E+2	-8.13206E-1	0.00000E+0	0.00000E+0	1.86707E+1	1.62133E+1	1.86704E+1	1.62121E+1
208	17/03/2023	15:34:20.158	0.00000E+0	0.00000E+0	-1.51594E+2	-7.43473E-1	0.00000E+0	0.00000E+0	1.90832E+1	1.58549E+1	1.90816E+1	1.58577E+1
209	17/03/2023	15:34:21.624	0.00000E+0	0.00000E+0	1.92864E+2	3.12996E+0	0.00000E+0	0.00000E+0	2.39868E+1	1.09659E+1	2.39868E+1	1.09651E+1
210	17/03/2023	15:34:23.119	0.00000E+0	0.00000E+0	-1.94599E+2	-5.15480E+0	0.00000E+0	0.00000E+0	1.87648E+1	1.61396E+1	1.87661E+1	1.61397E+1
211	17/03/2023	15:34:24.623	0.00000E+0	0.00000E+0	-1.57189E+2	-4.01344E-1	0.00000E+0	0.00000E+0	1.89547E+1	1.59937E+1	1.89525E+1	1.59933E+1
212	17/03/2023	15:34:26.082	0.00000E+0	0.00000E+0	2.08939E+2	2.61249E+0	0.00000E+0	0.00000E+0	2.41843E+1	1.07524E+1	2.41815E+1	1.07526E+1
213	17/03/2023	15:34:27.560	0.00000E+0	0.00000E+0	-2.11263E+2	6.96505E-1	0.00000E+0	0.00000E+0	1.82216E+1	1.67359E+1	1.82210E+1	1.67375E+1
214	17/03/2023	15:34:29.048	0.00000E+0	0.00000E+0	-1.42852E+2	-2.31801E+0	0.00000E+0	0.00000E+0	1.89353E+1	1.59105E+1	1.89322E+1	1.59106E+1
215	17/03/2023	15:34:30.507	0.00000E+0	0.00000E+0	1.86380E+2	-1.22659E+0	0.00000E+0	0.00000E+0	2.39644E+1	1.10956E+1	2.39648E+1	1.10947E+1
216	17/03/2023	15:34:31.978	0.00000E+0	0.00000E+0	-2.11545E+2	1.14589E+0	0.00000E+0	0.00000E+0	1.82192E+1	1.66989E+1	1.82188E+1	1.67002E+1
217	17/03/2023	15:34:33.448	0.00000E+0	0.00000E+0	8.45191E+1	-1.02716E+0	0.00000E+0	0.00000E+0	2.22062E+1	1.27316E+1	2.22052E+1	1.27356E+1
218	17/03/2023	15:34:34.943	0.00000E+0	0.00000E+0	1.88970E+2	1.20017E+0	0.00000E+0	0.00000E+0	2.39428E+1	1.10146E+1	2.39402E+1	1.10168E+1
219	17/03/2023	15:34:36.423	0.00000E+0	0.00000E+0	-1.97465E+2	-2.05630E+0	0.00000E+0	0.00000E+0	1.83977E+1	1.65273E+1	1.83967E+1	1.65259E+1
220	17/03/2023	15:34:37.912	0.00000E+0	0.00000E+0	2.33259E+2	1.48123E+0	0.00000E+0	0.00000E+0	2.44826E+1	1.04586E+1	2.44841E+1	1.04554E+1
221	17/03/2023	15:34:39.403	0.00000E+0	0.00000E+0	3.84202E+1	-1.14370E+0	0.00000E+0	0.00000E+0	2.23592E+1	1.26308E+1	2.23610E+1	1.26291E+1
222	17/03/2023	15:34:40.877	0.00000E+0	0.00000E+0	-1.71183E+2	-1.25888E+0	0.00000E+0	0.00000E+0	1.88126E+1	1.61712E+1	1.88130E+1	1.61708E+1
223	17/03/2023	15:34:42.368	0.00000E+0	0.00000E+0	2.18947E+2	-1.54249E+0	0.00000E+0	0.00000E+0	2.43386E+1	1.06169E+1	2.43389E+1	1.06176E+1
224	17/03/2023	15:34:43.880	0.00000E+0	0.00000E+0	8.07376E+0	-1.78733E+0	0.00000E+0	0.00000E+0	2.21362E+1	1.28097E+1	2.21361E+1	1.28087E+1
225	17/03/2023	15:34:45.344	0.00000E+0	0.00000E+0	-1.83704E+2	-3.01904E+0	0.00000E+0	0.00000E+0	1.86599E+1	1.62256E+1	1.86581E+1	1.62270E+1
226	17/03/2023	15:34:46.846	0.00000E+0	0.00000E+0	2.10225E+2	3.44844E+0	0.00000E+0	0.00000E+0	2.41940E+1	1.07607E+1	2.41943E+1	1.07617E+1
227	17/03/2023	15:34:48.353	0.00000E+0	0.00000E+0	4.86414E+1	2.29200E+0	0.00000E+0	0.00000E+0	2.20650E+1	1.29578E+1	2.20659E+1	1.29574E+1
228	17/03/2023	15:34:49.827	0.00000E+0	0.00000E+0	-1.73991E+2	-4.05409E+0	0.00000E+0	0.00000E+0	1.86796E+1	1.61719E+1	1.86783E+1	1.61719E+1
229	17/03/2023	15:34:51.319	0.00000E+0	0.00000E+0	2.05884E+2	2.46980E+0	0.00000E+0	0.00000E+0	2.41475E+1	1.09066E+1	2.41442E+1	1.09055E+1
230	17/03/2023	15:34:52.806	0.00000E+0	0.00000E+0	1.57814E+2	1.23764E-1	0.00000E+0	0.00000E+0	2.35026E+1	1.14439E+1	2.35035E+1	1.14431E+1
231	17/03/2023	15:34:54.288	0.00000E+0	0.00000E+0	-1.91130E+2	7.75437E-1	0.00000E+0	0.00000E+0	1.84430E+1	1.63707E+1	1.84440E+1	1.63707E+1
232	17/03/2023	15:34:55.820	0.00000E+0	0.00000E+0	1.03447E+2	1.27583E+0	0.00000E+0	0.00000E+0	2.24600E+1	1.25022E+1	2.24588E+1	1.25013E+1
233	17/03/2023	15:34:57.286	0.00000E+0	0.00000E+0	1.47611E+2	1.56421E+0	0.00000E+0	0.00000E+0	2.33216E+1	1.16618E+1	2.33198E+1	1.16618E+1
234	17/03/2023	15:34:58.750	0.00000E+0	0.00000E+0	-1.65334E+2	-2.66440E-1	0.00000E+0	0.00000E+0	1.88361E+1	1.61081E+1	1.88371E+1	1.61043E+1
235	17/03/2023	15:35:00.234	0.00000E+0	0.00000E+0	4.98431E+1	2.55558E+0	0.00000E+0	0.00000E+0	2.14640E+1	1.35566E+1	2.14657E+1	1.35561E+1
236	17/03/2023	15:35:01.731	0.00000E+0	0.00000E+0	1.03774E+2	-5.28815E-2	0.00000E+0	0.00000E+0	2.27183E+1	1.22874E+1	2.27181E+1	1.22886E+1
237	17/03/2023	15:35:03.222	0.00000E+0	0.00000E+0	-1.24086E+2	2.80952E+0	0.00000E+0	0.00000E+0	1.94759E+1	1.53834E+1	1.94754E+1	1.53817E+1
238	17/03/2023	15:35:04.759	0.00000E+0	0.00000E+0	-5.57898E+1	-1.03933E+0	0.00000E+0	0.00000E+0	2.03354E+1	1.45922E+1	2.03339E+1	1.45928E+1
239	17/03/2023	15:35:06.264	0.00000E+0	0.00000E+0	1.06496E+2	2.48003E-1	0.00000E+0	0.00000E+0	2.28309E+1	1.21554E+1	2.28298E+1	1.21543E+1
240	17/03/2023	15:35:07.779	0.00000E+0	0.00000E+0	-1.52153E+2	-1.49498E+0	0.00000E+0	0.00000E+0	1.90501E+1	1.59574E+1	1.90502E+1	1.59561E+1
241	17/03/2023	15:35:09.277	0.00000E+0	0.00000E+0	9.62213E+1	-3.14109E-1	0.00000E+0	0.00000E+0	2.24342E+1	1.25481E+1	2.24364E+1	1.25509E+1
242	17/03/2023	15:35:10.787	0.00000E+0	0.00000E+0	1.08199E+2	7.69354E-1	0.00000E+0	0.00000E+0	2.29220E+1	1.20449E+1	2.29242E+1	1.20444E+1
