#Iteration	Date	Time	RTPhase	NFringe	AccelAxis	AccelMean	AccelTemp
1	17/03/2023	15:29:12.299	3.46372862E+0	2.49800000E+3	2.00000000E+0	-9.76258761E+0	7.16043700E+6
2	17/03/2023	15:29:13.782	3.75441798E-1	-2.50400000E+3	2.00000000E+0	-9.76258761E+0	7.16043700E+6
3	17/03/2023	15:29:15.271	3.04571885E+0	2.51100000E+3	2.00000000E+0	-9.76258761E+0	7.16043700E+6
4	17/03/2023	15:29:16.747	5.95759788E+0	-2.51300000E+3	2.00000000E+0	-9.76258761E+0	7.16043700E+6
5	17/03/2023	15:29:18.276	2.37268478E+0	2.50600000E+3	2.00000000E+0	-9.76258761E+0	7.16043700E+6
6	17/03/2023	15:29:19.760	4.26293261E+0	-2.51500000E+3	2.00000000E+0	-9.76258761E+0	7.16043700E+6
7	17/03/2023	15:29:21.236	6.17427267E+0	2.48800000E+3	2.00000000E+0	-9.76258761E+0	7.16043700E+6
8	17/03/2023	15:29:22.735	4.03513646E+0	-2.50200000E+3	2.00000000E+0	-9.76258761E+0	7.16043700E+6
9	17/03/2023	15:29:24.215	5.14650554E-1	2.49600000E+3	2.00000000E+0	-9.76258761E+0	7.16043700E+6
10	17/03/2023	15:29:25.729	4.39753942E+0	-2.50600000E+3	2.00000000E+0	-9.76258761E+0	7.16043700E+6
11	17/03/2023	15:29:27.199	2.08736436E+0	2.50100000E+3	2.00000000E+0	-9.76258761E+0	7.16043700E+6
12	17/03/2023	15:29:28.700	4.54633556E+0	-2.50000000E+3	2.00000000E+0	-9.76258761E+0	7.16043700E+6
13	17/03/2023	15:29:30.200	5.18869002E+0	2.49300000E+3	2.00000000E+0	-9.76258761E+0	7.16043700E+6
14	17/03/2023	15:29:31.666	3.55538397E+0	-2.50700000E+3	2.00000000E+0	-9.76258761E+0	7.16043700E+6
15	17/03/2023	15:29:33.153	4.25334523E+0	2.49800000E+3	2.00000000E+0	-9.76258761E+0	7.16043700E+6
16	17/03/2023	15:29:34.631	4.08729181E+0	-2.50100000E+3	2.00000000E+0	-9.76258761E+0	7.16043700E+6
17	17/03/2023	15:29:36.129	6.04541829E+0	2.50100000E+3	2.00000000E+0	-9.76258761E+0	7.16043700E+6
18	17/03/2023	15:29:37.646	2.91072855E+0	-2.50600000E+3	2.00000000E+0	-9.76258761E+0	7.16043700E+6
19	17/03/2023	15:29:39.105	4.57509770E+0	2.50600000E+3	2.00000000E+0	-9.76258761E+0	7.16043700E+6
20	17/03/2023	15:29:40.567	2.57900520E+0	-2.47500000E+3	2.00000000E+0	-9.76258761E+0	7.16043700E+6
21	17/03/2023	15:29:42.076	1.44270893E+0	2.51300000E+3	2.00000000E+0	-9.76258761E+0	7.16043700E+6
22	17/03/2023	15:29:43.545	2.78225765E+0	-2.47400000E+3	2.00000000E+0	-9.76258761E+0	7.16043700E+6
23	17/03/2023	15:29:45.042	1.37176232E+0	2.51100000E+3	2.00000000E+0	-9.76258761E+0	7.16043700E+6
24	17/03/2023	15:29:46.567	7.91917582E-1	-2.48300000E+3	2.00000000E+0	-9.76258761E+0	7.16043700E+6
25	17/03/2023	15:29:48.040	3.47945192E+0	2.51300000E+3	2.00000000E+0	-9.76258761E+0	7.16043700E+6
26	17/03/2023	15:29:49.528	5.29223372E+0	-2.50800000E+3	2.00000000E+0	-9.76258761E+0	7.16043700E+6
27	17/03/2023	15:29:51.124	6.03276294E+0	2.48500000E+3	2.00000000E+0	-9.76258761E+0	7.16043700E+6
28	17/03/2023	15:29:52.576	3.77359274E-1	-2.51300000E+3	2.00000000E+0	-9.76258761E+0	7.16043700E+6
29	17/03/2023	15:29:54.067	4.52064138E+0	2.48400000E+3	2.00000000E+0	-9.76258761E+0	7.16043700E+6
30	17/03/2023	15:29:55.557	2.77650523E+0	-2.51700000E+3	2.00000000E+0	-9.76258761E+0	7.16043700E+6
31	17/03/2023	15:29:57.041	5.86364156E-1	2.50600000E+3	2.00000000E+0	-9.76258761E+0	7.16043700E+6
32	17/03/2023	15:29:58.507	5.57486968E+0	-2.50000000E+3	2.00000000E+0	-9.76258761E+0	7.16043700E+6
33	17/03/2023	15:29:59.980	4.44969477E+0	2.51000000E+3	2.00000000E+0	-9.76258761E+0	7.16043700E+6
34	17/03/2023	15:30:01.460	3.07448099E+0	-2.47900000E+3	2.00000000E+0	-9.76258761E+0	7.16043700E+6
35	17/03/2023	15:30:02.944	2.49770422E+0	2.51000000E+3	2.00000000E+0	-9.76258761E+0	7.16043700E+6
36	17/03/2023	15:30:04.473	2.77267027E+0	-2.49400000E+3	2.00000000E+0	-9.76258761E+0	7.16043700E+6
37	17/03/2023	15:30:05.941	6.04235032E+0	2.50100000E+3	2.00000000E+0	-9.76258761E+0	7.16043700E+6
38	17/03/2023	15:30:07.418	4.11375298E+0	-2.50400000E+3	2.00000000E+0	-9.76258761E+0	7.16043700E+6
39	17/03/2023	15:30:08.920	4.37337923E+0	2.49600000E+3	2.00000000E+0	-9.76258761E+0	7.16043700E+6
40	17/03/2023	15:30:10.426	2.95828195E+0	-2.49800000E+3	2.00000000E+0	-9.76258761E+0	7.16043700E+6
41	17/03/2023	15:30:11.908	5.94647652E+0	2.50700000E+3	2.00000000E+0	-9.76258761E+0	7.16043700E+6
42	17/03/2023	15:30:13.414	3.99448597E+0	-2.50900000E+3	2.00000000E+0	-9.76258761E+0	7.16043700E+6
43	17/03/2023	15:30:14.909	3.04111691E+0	2.49600000E+3	2.00000000E+0	-9.76258761E+0	7.16043700E+6
44	17/03/2023	15:30:16.388	4.62418509E+0	-2.51600000E+3	2.00000000E+0	-9.76258761E+0	7.16043700E+6
45	17/03/2023	15:30:17.890	2.23194205E+0	2.49200000E+3	2.00000000E+0	-9.76258761E+0	7.16043700E+6
46	17/03/2023	15:30:19.389	3.65087428E+0	-2.49700000E+3	2.00000000E+0	-9.76258761E+0	7.16043700E+6
47	17/03/2023	15:30:20.858	4.21461221E+0	2.50600000E+3	2.00000000E+0	-9.76258761E+0	7.16043700E+6
48	17/03/2023	15:30:22.357	4.66406859E+0	-2.47000000E+3	2.00000000E+0	-9.76258761E+0	7.16043700E+6
49	17/03/2023	15:30:23.858	2.70287415E+0	2.51000000E+3	2.00000000E+0	-9.76258761E+0	7.16043700E+6
50	17/03/2023	15:30:25.298	4.54441808E-1	-2.49100000E+3	2.00000000E+0	-9.76258761E+0	7.16043700E+6
51	17/03/2023	15:30:26.808	5.95798138E+0	2.49400000E+3	2.00000000E+0	-9.76258761E+0	7.16043700E+6
52	17/03/2023	15:30:28.294	5.73440368E+0	-2.50900000E+3	2.00000000E+0	-9.76258761E+0	7.16043700E+6
53	17/03/2023	15:30:29.770	3.54387912E+0	2.48500000E+3	2.00000000E+0	-9.76258761E+0	7.16043700E+6
54	17/03/2023	15:30:31.271	6.27014647E+0	-2.50800000E+3	2.00000000E+0	-9.76258761E+0	7.16043700E+6
55	17/03/2023	15:30:32.727	6.26516103E+0	2.48100000E+3	2.00000000E+0	-9.76258761E+0	7.16043700E+6
56	17/03/2023	15:30:34.231	9.05048665E-2	-2.51300000E+3	2.00000000E+0	-9.76258761E+0	7.16043700E+6
57	17/03/2023	15:30:35.709	2.33855371E+0	2.48700000E+3	2.00000000E+0	-9.76258761E+0	7.16043700E+6
58	17/03/2023	15:30:37.191	1.21452929E+0	-2.50400000E+3	2.00000000E+0	-9.76258761E+0	7.16043700E+6
59	17/03/2023	15:30:38.660	1.12479141E+0	2.50700000E+3	2.00000000E+0	-9.76258761E+0	7.16043700E+6
60	17/03/2023	15:30:40.155	4.06926754E+0	-2.49600000E+3	2.00000000E+0	-9.76258761E+0	7.16043700E+6
61	17/03/2023	15:30:41.644	4.08920929E+0	2.50900000E+3	2.00000000E+0	-9.76258761E+0	7.16043700E+6
62	17/03/2023	15:30:43.146	3.72143739E+0	-2.48100000E+3	2.00000000E+0	-9.76258761E+0	7.16043700E+6
63	17/03/2023	15:30:44.640	6.05538916E+0	2.51300000E+3	2.00000000E+0	-9.76258761E+0	7.16043700E+6
64	17/03/2023	15:30:46.188	2.09656824E+0	-2.47000000E+3	2.00000000E+0	-9.76258761E+0	7.16043700E+6
65	17/03/2023	15:30:47.671	1.84883034E+0	2.51600000E+3	2.00000000E+0	-9.76258761E+0	7.16043700E+6
66	17/03/2023	15:30:49.146	5.05216572E+0	-2.48300000E+3	2.00000000E+0	-9.76258761E+0	7.16043700E+6
67	17/03/2023	15:30:50.625	2.52416539E+0	2.50800000E+3	2.00000000E+0	-9.76258761E+0	7.16043700E+6
68	17/03/2023	15:30:52.129	5.50392307E+0	-2.51700000E+3	2.00000000E+0	-9.76258761E+0	7.16043700E+6
69	17/03/2023	15:30:53.591	9.11951578E-1	2.47100000E+3	2.00000000E+0	-9.76258761E+0	7.16043700E+6
70	17/03/2023	15:30:55.070	4.50300060E+0	-2.51000000E+3	2.00000000E+0	-9.76258761E+0	7.16043700E+6
71	17/03/2023	15:30:56.568	5.83564641E+0	2.51400000E+3	2.00000000E+0	-9.76258761E+0	7.16043700E+6
72	17/03/2023	15:30:58.024	2.07585950E+0	-2.47100000E+3	2.00000000E+0	-9.76258761E+0	7.16043700E+6
73	17/03/2023	15:30:59.526	5.89853962E+0	2.51100000E+3	2.00000000E+0	-9.76258761E+0	7.16043700E+6
74	17/03/2023	15:31:01.010	5.14957350E+0	-2.50200000E+3	2.00000000E+0	-9.76258761E+0	7.16043700E+6
75	17/03/2023	15:31:02.517	2.91456350E-2	2.49100000E+3	2.00000000E+0	-9.76258761E+0	7.16043700E+6
76	17/03/2023	15:31:03.972	3.21253927E+0	-2.51100000E+3	2.00000000E+0	-9.76258761E+0	7.16043700E+6
77	17/03/2023	15:31:05.454	5.42223859E+0	2.49800000E+3	2.00000000E+0	-9.76258761E+0	7.16043700E+6
78	17/03/2023	15:31:07.019	3.62172864E+0	-2.47700000E+3	2.00000000E+0	-9.76258761E+0	7.16043700E+6
79	17/03/2023	15:31:08.490	4.18853454E+0	2.50500000E+3	2.00000000E+0	-9.76258761E+0	7.16043700E+6
80	17/03/2023	15:31:09.963	1.60185944E+0	-2.50500000E+3	2.00000000E+0	-9.76258761E+0	7.16043700E+6
81	17/03/2023	15:31:11.438	2.25763622E+0	2.49800000E+3	2.00000000E+0	-9.76258761E+0	7.16043700E+6
82	17/03/2023	15:31:12.941	5.36739878E+0	-2.51400000E+3	2.00000000E+0	-9.76258761E+0	7.16043700E+6
83	17/03/2023	15:31:14.408	2.05400027E+0	2.49800000E+3	2.00000000E+0	-9.76258761E+0	7.16043700E+6
84	17/03/2023	15:31:15.908	4.73578219E+0	-2.47900000E+3	2.00000000E+0	-9.76258761E+0	7.16043700E+6
85	17/03/2023	15:31:17.389	3.73907817E+0	2.51100000E+3	2.00000000E+0	-9.76258761E+0	7.16043700E+6
86	17/03/2023	15:31:18.868	7.91534087E-1	-2.47200000E+3	2.00000000E+0	-9.76258761E+0	7.16043700E+6
87	17/03/2023	15:31:20.338	4.65486470E+0	2.49400000E+3	2.00000000E+0	-9.76258761E+0	7.16043700E+6
88	17/03/2023	15:31:21.837	6.26822899E+0	-2.51300000E+3	2.00000000E+0	-9.76258761E+0	7.16043700E+6
89	17/03/2023	15:31:23.333	4.73271423E+0	2.47400000E+3	2.00000000E+0	-9.76258761E+0	7.16043700E+6
90	17/03/2023	15:31:24.820	3.42461211E+0	-2.52400000E+3	2.00000000E+0	-9.76258761E+0	7.16043700E+6
91	17/03/2023	15:31:26.305	4.97431620E+0	2.50800000E+3	2.00000000E+0	-9.76258761E+0	7.16043700E+6
92	17/03/2023	15:31:27.778	2.63422851E+0	-2.47400000E+3	2.00000000E+0	-9.76258761E+0	7.16043700E+6
93	17/03/2023	15:31:29.280	4.87422395E-1	2.51000000E+3	2.00000000E+0	-9.76258761E+0	7.16043700E+6
94	17/03/2023	15:31:30.774	1.96502939E+0	-2.50400000E+3	2.00000000E+0	-9.76258761E+0	7.16043700E+6
95	17/03/2023	15:31:32.269	5.75319494E+0	2.48900000E+3	2.00000000E+0	-9.76258761E+0	7.16043700E+6
96	17/03/2023	15:31:33.797	2.55867995E+0	-2.51400000E+3	2.00000000E+0	-9.76258761E+0	7.16043700E+6
97	17/03/2023	15:31:35.278	3.09595673E+0	2.47700000E+3	2.00000000E+0	-9.76258761E+0	7.16043700E+6
98	17/03/2023	15:31:36.744	2.61313627E+0	-2.49900000E+3	2.00000000E+0	-9.76258761E+0	7.16043700E+6
99	17/03/2023	15:31:38.213	4.96357833E+0	2.50100000E+3	2.00000000E+0	-9.76258761E+0	7.16043700E+6
100	17/03/2023	15:31:39.698	1.42890310E+0	-2.49900000E+3	2.00000000E+0	-9.76258761E+0	7.16043700E+6
101	17/03/2023	15:31:41.189	4.01864617E+0	2.48700000E+3	2.00000000E+0	-9.76258761E+0	7.16043700E+6
102	17/03/2023	15:31:42.649	2.98282564E+0	-2.50900000E+3	2.00000000E+0	-9.76258761E+0	7.16043700E+6
103	17/03/2023	15:31:44.107	1.87835947E+0	2.47800000E+3	2.00000000E+0	-9.76258761E+0	7.16043700E+6
104	17/03/2023	15:31:45.594	4.05469472E+0	-2.50400000E+3	2.00000000E+0	-9.76258761E+0	7.16043700E+6
105	17/03/2023	15:31:47.091	4.53137925E+0	2.51000000E+3	2.00000000E+0	-9.76258761E+0	7.16043700E+6
106	17/03/2023	15:31:48.571	6.30849599E-1	-2.48100000E+3	2.00000000E+0	-9.76258761E+0	7.16043700E+6
107	17/03/2023	15:31:50.063	1.02968460E+0	2.50200000E+3	2.00000000E+0	-9.76258761E+0	7.16043700E+6
108	17/03/2023	15:31:51.542	4.83894240E+0	-2.50700000E+3	2.00000000E+0	-9.76258761E+0	7.16043700E+6
109	17/03/2023	15:31:53.023	2.61198579E+0	2.46300000E+3	2.00000000E+0	-9.76258761E+0	7.16043700E+6
110	17/03/2023	15:31:54.511	6.08376780E+0	-2.51000000E+3	2.00000000E+0	-9.76258761E+0	7.16043700E+6
111	17/03/2023	15:31:55.976	8.44839919E-1	2.50600000E+3	2.00000000E+0	-9.76258761E+0	7.16043700E+6
112	17/03/2023	15:31:57.516	3.05338876E+0	-2.48000000E+3	2.00000000E+0	-9.76258761E+0	7.16043700E+6
113	17/03/2023	15:31:59.029	1.51020409E+0	2.47800000E+3	2.00000000E+0	-9.76258761E+0	7.16043700E+6
114	17/03/2023	15:32:00.498	3.52892280E+0	-2.52400000E+3	2.00000000E+0	-9.76258761E+0	7.16043700E+6
115	17/03/2023	15:32:01.972	4.40290836E+0	2.49000000E+3	2.00000000E+0	-9.76258761E+0	7.16043700E+6
116	17/03/2023	15:32:03.431	1.01012635E+0	-2.48400000E+3	2.00000000E+0	-9.76258761E+0	7.16043700E+6
117	17/03/2023	15:32:04.908	1.69274780E+0	2.50500000E+3	2.00000000E+0	-9.76258761E+0	7.16043700E+6
118	17/03/2023	15:32:06.379	3.99755393E+0	-2.51600000E+3	2.00000000E+0	-9.76258761E+0	7.16043700E+6
119	17/03/2023	15:32:07.890	2.82214115E+0	2.48700000E+3	2.00000000E+0	-9.76258761E+0	7.16043700E+6
120	17/03/2023	15:32:09.359	2.92683534E+0	-2.48200000E+3	2.00000000E+0	-9.76258761E+0	7.16043700E+6
121	17/03/2023	15:32:10.827	1.48029146E+0	2.50600000E+3	2.00000000E+0	-9.76258761E+0	7.16043700E+6
122	17/03/2023	15:32:12.309	3.66314612E+0	-2.49400000E+3	2.00000000E+0	-9.76258761E+0	7.16043700E+6
123	17/03/2023	15:32:13.774	4.04242287E+0	2.47800000E+3	2.00000000E+0	-9.76258761E+0	7.16043700E+6
124	17/03/2023	15:32:15.250	6.05270469E+0	-2.50500000E+3	2.00000000E+0	-9.76258761E+0	7.16043700E+6
125	17/03/2023	15:32:16.729	2.46050518E+0	2.50700000E+3	2.00000000E+0	-9.76258761E+0	7.16043700E+6
126	17/03/2023	15:32:18.214	1.32229144E+0	-2.48200000E+3	2.00000000E+0	-9.76258761E+0	7.16043700E+6
127	17/03/2023	15:32:19.683	2.77075280E+0	2.48900000E+3	2.00000000E+0	-9.76258761E+0	7.16043700E+6
128	17/03/2023	15:32:21.180	5.20863177E+0	-2.50900000E+3	2.00000000E+0	-9.76258761E+0	7.16043700E+6
129	17/03/2023	15:32:22.646	3.28693733E+0	2.48100000E+3	2.00000000E+0	-9.76258761E+0	7.16043700E+6
130	17/03/2023	15:32:24.146	4.84431133E+0	-2.50400000E+3	2.00000000E+0	-9.76258761E+0	7.16043700E+6
131	17/03/2023	15:32:25.633	6.24138433E+0	2.50400000E+3	2.00000000E+0	-9.76258761E+0	7.16043700E+6
132	17/03/2023	15:32:27.145	1.31001959E+0	-2.49100000E+3	2.00000000E+0	-9.76258761E+0	7.16043700E+6
133	17/03/2023	15:32:28.621	3.19451499E+0	2.47800000E+3	2.00000000E+0	-9.76258761E+0	7.16043700E+6
134	17/03/2023	15:32:30.123	5.74475805E-1	-2.51100000E+3	2.00000000E+0	-9.76258761E+0	7.16043700E+6
135	17/03/2023	15:32:31.624	5.43067548E+0	2.48000000E+3	2.00000000E+0	-9.76258761E+0	7.16043700E+6
136	17/03/2023	15:32:33.081	3.88940829E+0	-2.51400000E+3	2.00000000E+0	-9.76258761E+0	7.16043700E+6
137	17/03/2023	15:32:34.542	1.14703413E+0	2.50000000E+3	2.00000000E+0	-9.76258761E+0	7.16043700E+6
138	17/03/2023	15:32:36.048	4.51565594E+0	-2.47400000E+3	2.00000000E+0	-9.76258761E+0	7.16043700E+6
139	17/03/2023	15:32:37.505	6.11789888E+0	2.48900000E+3	2.00000000E+0	-9.76258761E+0	7.16043700E+6
140	17/03/2023	15:32:38.986	1.66705362E+0	-2.48400000E+3	2.00000000E+0	-9.76258761E+0	7.16043700E+6
141	17/03/2023	15:32:40.482	3.67350049E+0	2.50200000E+3	2.00000000E+0	-9.76258761E+0	7.16043700E+6
142	17/03/2023	15:32:41.945	2.60930132E+0	-2.50600000E+3	2.00000000E+0	-9.76258761E+0	7.16043700E+6
143	17/03/2023	15:32:43.443	2.10615562E+0	2.49000000E+3	2.00000000E+0	-9.76258761E+0	7.16043700E+6
144	17/03/2023	15:32:44.926	4.84201036E+0	-2.50700000E+3	2.00000000E+0	-9.76258761E+0	7.16043700E+6
145	17/03/2023	15:32:46.397	4.26216562E+0	2.50000000E+3	2.00000000E+0	-9.76258761E+0	7.16043700E+6
146	17/03/2023	15:32:47.862	4.10991803E+0	-2.48800000E+3	2.00000000E+0	-9.76258761E+0	7.16043700E+6
147	17/03/2023	15:32:49.336	3.56842281E+0	2.51400000E+3	2.00000000E+0	-9.76258761E+0	7.16043700E+6
148	17/03/2023	15:32:50.818	2.50844208E+0	-2.50700000E+3	2.00000000E+0	-9.76258761E+0	7.16043700E+6
149	17/03/2023	15:32:52.293	3.35596647E+0	2.48200000E+3	2.00000000E+0	-9.76258761E+0	7.16043700E+6
150	17/03/2023	15:32:53.801	8.42155453E-1	-2.51600000E+3	2.00000000E+0	-9.76258761E+0	7.16043700E+6
151	17/03/2023	15:32:55.298	5.86095710E+0	2.50500000E+3	2.00000000E+0	-9.76258761E+0	7.16043700E+6
152	17/03/2023	15:32:56.790	5.25004925E-1	-2.49700000E+3	2.00000000E+0	-9.76258761E+0	7.16043700E+6
153	17/03/2023	15:32:58.272	2.86969456E+0	2.50900000E+3	2.00000000E+0	-9.76258761E+0	7.16043700E+6
154	17/03/2023	15:32:59.741	3.66352962E+0	-2.49900000E+3	2.00000000E+0	-9.76258761E+0	7.16043700E+6
155	17/03/2023	15:33:01.214	3.64972379E+0	2.49500000E+3	2.00000000E+0	-9.76258761E+0	7.16043700E+6
156	17/03/2023	15:33:02.709	4.38488408E+0	-2.51500000E+3	2.00000000E+0	-9.76258761E+0	7.16043700E+6
157	17/03/2023	15:33:04.166	2.39224304E+0	2.48700000E+3	2.00000000E+0	-9.76258761E+0	7.16043700E+6
158	17/03/2023	15:33:05.635	3.53582572E-1	-2.50600000E+3	2.00000000E+0	-9.76258761E+0	7.16043700E+6
159	17/03/2023	15:33:07.163	2.62694210E-1	2.48400000E+3	2.00000000E+0	-9.76258761E+0	7.16043700E+6
160	17/03/2023	15:33:08.664	5.05561718E+0	-2.50100000E+3	2.00000000E+0	-9.76258761E+0	7.16043700E+6
161	17/03/2023	15:33:10.164	2.50614111E+0	2.50300000E+3	2.00000000E+0	-9.76258761E+0	7.16043700E+6
162	17/03/2023	15:33:11.635	1.74336917E+0	-2.49900000E+3	2.00000000E+0	-9.76258761E+0	7.16043700E+6
163	17/03/2023	15:33:13.184	1.26553415E-2	2.49000000E+3	2.00000000E+0	-9.76258761E+0	7.16043700E+6
164	17/03/2023	15:33:14.643	5.19214147E+0	-2.51600000E+3	2.00000000E+0	-9.76258761E+0	7.16043700E+6
165	17/03/2023	15:33:16.321	3.03498099E+0	2.48400000E+3	2.00000000E+0	-9.76258761E+0	7.16043700E+6
166	17/03/2023	15:33:17.800	5.60593279E+0	-2.51000000E+3	2.00000000E+0	-9.76258761E+0	7.16043700E+6
167	17/03/2023	15:33:19.314	5.46020461E+0	2.49400000E+3	2.00000000E+0	-9.76258761E+0	7.16043700E+6
168	17/03/2023	15:33:20.824	1.11213607E-2	-2.49100000E+3	2.00000000E+0	-9.76258761E+0	7.16043700E+6
169	17/03/2023	15:33:22.310	6.21377268E+0	2.51100000E+3	2.00000000E+0	-9.76258761E+0	7.16043700E+6
170	17/03/2023	15:33:23.771	2.09465077E+0	-2.49400000E+3	2.00000000E+0	-9.76258761E+0	7.16043700E+6
171	17/03/2023	15:33:25.264	1.90251967E+0	2.47600000E+3	2.00000000E+0	-9.76258761E+0	7.16043700E+6
172	17/03/2023	15:33:26.760	4.00867529E+0	-2.50600000E+3	2.00000000E+0	-9.76258761E+0	7.16043700E+6
173	17/03/2023	15:33:28.222	4.23762193E-1	2.49200000E+3	2.00000000E+0	-9.76258761E+0	7.16043700E+6
174	17/03/2023	15:33:29.695	4.12985978E+0	-2.49200000E+3	2.00000000E+0	-9.76258761E+0	7.16043700E+6
175	17/03/2023	15:33:31.173	4.75649093E+0	2.51200000E+3	2.00000000E+0	-9.76258761E+0	7.16043700E+6
176	17/03/2023	15:33:32.639	6.16852024E+0	-2.48600000E+3	2.00000000E+0	-9.76258761E+0	7.16043700E+6
177	17/03/2023	15:33:34.121	4.91295697E+0	2.47400000E+3	2.00000000E+0	-9.76258761E+0	7.16043700E+6
178	17/03/2023	15:33:35.621	5.67956387E+0	-2.51200000E+3	2.00000000E+0	-9.76258761E+0	7.16043700E+6
179	17/03/2023	15:33:37.124	1.39208757E+0	2.50300000E+3	2.00000000E+0	-9.76258761E+0	7.16043700E+6
180	17/03/2023	15:33:38.610	4.82590356E+0	-2.48200000E+3	2.00000000E+0	-9.76258761E+0	7.16043700E+6
181	17/03/2023	15:33:40.074	3.18301013E-2	2.51400000E+3	2.00000000E+0	-9.76258761E+0	7.16043700E+6
182	17/03/2023	15:33:41.554	5.17181623E+0	-2.50600000E+3	2.00000000E+0	-9.76258761E+0	7.16043700E+6
183	17/03/2023	15:33:43.018	3.25472374E+0	2.48300000E+3	2.00000000E+0	-9.76258761E+0	7.16043700E+6
184	17/03/2023	15:33:44.494	4.33349573E-1	-2.50300000E+3	2.00000000E+0	-9.76258761E+0	7.16043700E+6
185	17/03/2023	15:33:45.982	4.28249086E+0	2.50500000E+3	2.00000000E+0	-9.76258761E+0	7.16043700E+6
186	17/03/2023	15:33:47.450	3.05185478E+0	-2.48800000E+3	2.00000000E+0	-9.76258761E+0	7.16043700E+6
187	17/03/2023	15:33:48.930	5.43335995E+0	2.51400000E+3	2.00000000E+0	-9.76258761E+0	7.16043700E+6
188	17/03/2023	15:33:50.430	5.60900075E+0	-2.47700000E+3	2.00000000E+0	-9.76258761E+0	7.16043700E+6
189	17/03/2023	15:33:51.905	1.66590314E+0	2.50300000E+3	2.00000000E+0	-9.76258761E+0	7.16043700E+6
190	17/03/2023	15:33:53.364	2.37536925E+0	-2.51000000E+3	2.00000000E+0	-9.76258761E+0	7.16043700E+6
191	17/03/2023	15:33:54.869	2.35926245E+0	2.46400000E+3	2.00000000E+0	-9.76258761E+0	7.16043700E+6
192	17/03/2023	15:33:56.374	3.83341799E+0	-2.49100000E+3	2.00000000E+0	-9.76258761E+0	7.16043700E+6
193	17/03/2023	15:33:57.846	2.41333527E+0	2.51200000E+3	2.00000000E+0	-9.76258761E+0	7.16043700E+6
194	17/03/2023	15:33:59.338	3.53122377E+0	-2.46500000E+3	2.00000000E+0	-9.76258761E+0	7.16043700E+6
195	17/03/2023	15:34:00.865	3.67618496E+0	2.51500000E+3	2.00000000E+0	-9.76258761E+0	7.16043700E+6
196	17/03/2023	15:34:02.342	5.78003961E+0	-2.47200000E+3	2.00000000E+0	-9.76258761E+0	7.16043700E+6
197	17/03/2023	15:34:03.816	1.94125269E+0	2.49800000E+3	2.00000000E+0	-9.76258761E+0	7.16043700E+6
198	17/03/2023	15:34:05.286	8.70534097E-2	-2.51100000E+3	2.00000000E+0	-9.76258761E+0	7.16043700E+6
199	17/03/2023	15:34:06.784	4.17127726E+0	2.47300000E+3	2.00000000E+0	-9.76258761E+0	7.16043700E+6
200	17/03/2023	15:34:08.279	5.22435507E+0	-2.50500000E+3	2.00000000E+0	-9.76258761E+0	7.16043700E+6
201	17/03/2023	15:34:09.780	2.60086443E+0	2.49400000E+3	2.00000000E+0	-9.76258761E+0	7.16043700E+6
202	17/03/2023	15:34:11.255	4.16092289E-1	-2.48400000E+3	2.00000000E+0	-9.76258761E+0	7.16043700E+6
203	17/03/2023	15:34:12.753	6.13707364E+0	2.51500000E+3	2.00000000E+0	-9.76258761E+0	7.16043700E+6
204	17/03/2023	15:34:14.276	2.42944207E+0	-2.49700000E+3	2.00000000E+0	-9.76258761E+0	7.16043700E+6
205	17/03/2023	15:34:15.749	4.63645693E+0	2.47400000E+3	2.00000000E+0	-9.76258761E+0	7.16043700E+6
206	17/03/2023	15:34:17.216	1.83809248E+0	-2.51300000E+3	2.00000000E+0	-9.76258761E+0	7.16043700E+6
207	17/03/2023	15:34:18.689	4.73693267E+0	2.49400000E+3	2.00000000E+0	-9.76258761E+0	7.16043700E+6
208	17/03/2023	15:34:20.158	1.81891772E+0	-2.49200000E+3	2.00000000E+0	-9.76258761E+0	7.16043700E+6
209	17/03/2023	15:34:21.624	3.37092278E+0	2.51700000E+3	2.00000000E+0	-9.76258761E+0	7.16043700E+6
210	17/03/2023	15:34:23.119	5.19827739E+0	-2.48700000E+3	2.00000000E+0	-9.76258761E+0	7.16043700E+6
211	17/03/2023	15:34:24.623	5.65195221E+0	2.48900000E+3	2.00000000E+0	-9.76258761E+0	7.16043700E+6
212	17/03/2023	15:34:26.082	2.17096631E+0	-2.50800000E+3	2.00000000E+0	-9.76258761E+0	7.16043700E+6
213	17/03/2023	15:34:27.560	4.25142775E+0	2.49900000E+3	2.00000000E+0	-9.76258761E+0	7.16043700E+6
214	17/03/2023	15:34:29.048	8.31801082E-1	-2.50400000E+3	2.00000000E+0	-9.76258761E+0	7.16043700E+6
215	17/03/2023	15:34:30.507	7.25572913E-1	2.51700000E+3	2.00000000E+0	-9.76258761E+0	7.16043700E+6
216	17/03/2023	15:34:31.978	2.28563137E-1	-2.50900000E+3	2.00000000E+0	-9.76258761E+0	7.16043700E+6
217	17/03/2023	15:34:33.448	5.95683089E+0	2.47900000E+3	2.00000000E+0	-9.76258761E+0	7.16043700E+6
218	17/03/2023	15:34:34.943	2.65532074E+0	-2.49600000E+3	2.00000000E+0	-9.76258761E+0	7.16043700E+6
219	17/03/2023	15:34:36.423	5.29031624E+0	2.51500000E+3	2.00000000E+0	-9.76258761E+0	7.16043700E+6
220	17/03/2023	15:34:37.912	5.11927738E+0	-2.49200000E+3	2.00000000E+0	-9.76258761E+0	7.16043700E+6
221	17/03/2023	15:34:39.403	5.29875314E+0	2.47200000E+3	2.00000000E+0	-9.76258761E+0	7.16043700E+6
222	17/03/2023	15:34:40.877	5.78770951E+0	-2.51800000E+3	2.00000000E+0	-9.76258761E+0	7.16043700E+6
223	17/03/2023	15:34:42.368	2.84821883E+0	2.50100000E+3	2.00000000E+0	-9.76258761E+0	7.16043700E+6
224	17/03/2023	15:34:43.880	5.38235509E+0	-2.47900000E+3	2.00000000E+0	-9.76258761E+0	7.16043700E+6
225	17/03/2023	15:34:45.344	3.04073342E+0	2.50800000E+3	2.00000000E+0	-9.76258761E+0	7.16043700E+6
226	17/03/2023	15:34:46.846	5.60593279E+0	-2.50600000E+3	2.00000000E+0	-9.76258761E+0	7.16043700E+6
227	17/03/2023	15:34:48.353	2.09388378E-1	2.48200000E+3	2.00000000E+0	-9.76258761E+0	7.16043700E+6
228	17/03/2023	15:34:49.827	1.67203906E+0	-2.51200000E+3	2.00000000E+0	-9.76258761E+0	7.16043700E+6
229	17/03/2023	15:34:51.319	2.24843234E+0	2.49300000E+3	2.00000000E+0	-9.76258761E+0	7.16043700E+6
230	17/03/2023	15:34:52.806	6.09757363E+0	-2.49300000E+3	2.00000000E+0	-9.76258761E+0	7.16043700E+6
231	17/03/2023	15:34:54.288	2.08007795E+0	2.51700000E+3	2.00000000E+0	-9.76258761E+0	7.16043700E+6
232	17/03/2023	15:34:55.820	2.49501975E+0	-2.47700000E+3	2.00000000E+0	-9.76258761E+0	7.16043700E+6
233	17/03/2023	15:34:57.286	4.21001027E+0	2.51800000E+3	2.00000000E+0	-9.76258761E+0	7.16043700E+6
234	17/03/2023	15:34:58.750	1.40359242E+0	-2.51200000E+3	2.00000000E+0	-9.76258761E+0	7.16043700E+6
235	17/03/2023	15:35:00.234	1.76407791E+0	2.48600000E+3	2.00000000E+0	-9.76258761E+0	7.16043700E+6
236	17/03/2023	15:35:01.731	5.77735514E+0	-2.52800000E+3	2.00000000E+0	-9.76258761E+0	7.16043700E+6
237	17/03/2023	15:35:03.222	3.52700533E+0	2.50500000E+3	2.00000000E+0	-9.76258761E+0	7.16043700E+6
238	17/03/2023	15:35:04.759	1.11367005E+0	-2.50000000E+3	2.00000000E+0	-9.76258761E+0	7.16043700E+6
239	17/03/2023	15:35:06.264	2.76193241E+0	2.49900000E+3	2.00000000E+0	-9.76258761E+0	7.16043700E+6
240	17/03/2023	15:35:07.779	6.23294744E+0	-2.51900000E+3	2.00000000E+0	-9.76258761E+0	7.16043700E+6
241	17/03/2023	15:35:09.277	5.47554442E+0	2.49800000E+3	2.00000000E+0	-9.76258761E+0	7.16043700E+6
242	17/03/2023	15:35:10.787	6.26631152E+0	-2.50400000E+3	2.00000000E+0	-9.76258761E+0	7.16043700E+6
