#Iteration	Date	Time	Chirp	Phase	RamanAxis	RTPhase	NFringe	Ratio
1	02/09/2022	17:18:18.681	0.00000000E+0	-3.14159265E+1	5.00000000E+0	4.62878703E-1	-6.30000000E+2	4.63824144E-1
2	02/09/2022	17:18:20.064	0.00000000E+0	-3.12065382E+1	5.00000000E+0	4.55975789E-1	-6.29000000E+2	4.62447394E-1
3	02/09/2022	17:18:21.476	0.00000000E+0	-3.09971498E+1	5.00000000E+0	5.18869002E+0	-6.30000000E+2	4.65272932E-1
4	02/09/2022	17:18:23.014	0.00000000E+0	-3.07877614E+1	5.00000000E+0	5.05830165E+0	-6.31000000E+2	4.64103218E-1
5	02/09/2022	17:18:24.394	0.00000000E+0	-3.05779895E+1	5.00000000E+0	3.52968979E+0	-6.30000000E+2	4.78318684E-1
6	02/09/2022	17:18:25.980	0.00000000E+0	-3.03686012E+1	5.00000000E+0	4.37031126E+0	-6.31000000E+2	4.71207271E-1
7	02/09/2022	17:18:27.361	0.00000000E+0	-3.01592128E+1	5.00000000E+0	5.26462206E+0	-6.30000000E+2	4.69580457E-1
8	02/09/2022	17:18:28.755	0.00000000E+0	-2.99498244E+1	5.00000000E+0	3.78126264E+0	-6.31000000E+2	4.64086686E-1
9	02/09/2022	17:18:30.256	0.00000000E+0	-2.97404360E+1	5.00000000E+0	5.34132110E+0	-6.31000000E+2	4.59029841E-1
10	02/09/2022	17:18:31.649	0.00000000E+0	-2.95310476E+1	5.00000000E+0	5.20786477E+0	-6.30000000E+2	4.58472837E-1
11	02/09/2022	17:18:33.156	0.00000000E+0	-2.93216593E+1	5.00000000E+0	8.51359337E-2	-6.29000000E+2	4.61099463E-1
12	02/09/2022	17:18:34.605	0.00000000E+0	-2.91122709E+1	5.00000000E+0	5.71407843E-2	-6.30000000E+2	4.50031863E-1
13	02/09/2022	17:18:35.989	0.00000000E+0	-2.89024990E+1	5.00000000E+0	6.31233094E-1	-6.29000000E+2	4.44181185E-1
14	02/09/2022	17:18:37.549	0.00000000E+0	-2.86931106E+1	5.00000000E+0	2.01411677E+0	-6.30000000E+2	4.40299698E-1
15	02/09/2022	17:18:38.949	0.00000000E+0	-2.84837223E+1	5.00000000E+0	5.24774828E+0	-6.30000000E+2	4.40689421E-1
16	02/09/2022	17:18:40.413	0.00000000E+0	-2.82743339E+1	5.00000000E+0	5.08744728E+0	-6.30000000E+2	4.36150999E-1
17	02/09/2022	17:18:41.910	0.00000000E+0	-2.80649455E+1	5.00000000E+0	3.37284026E+0	-6.30000000E+2	4.31287110E-1
18	02/09/2022	17:18:43.311	0.00000000E+0	-2.78555571E+1	5.00000000E+0	4.14443259E+0	-6.31000000E+2	4.26049537E-1
19	02/09/2022	17:18:44.883	0.00000000E+0	-2.76461687E+1	5.00000000E+0	7.32475826E-2	-6.29000000E+2	4.25900579E-1
20	02/09/2022	17:18:46.260	0.00000000E+0	-2.74363969E+1	5.00000000E+0	5.08169486E+0	-6.30000000E+2	4.22633083E-1
21	02/09/2022	17:18:47.660	0.00000000E+0	-2.72270085E+1	5.00000000E+0	3.02616060E+0	-6.30000000E+2	4.23573682E-1
22	02/09/2022	17:18:49.209	0.00000000E+0	-2.70176201E+1	5.00000000E+0	2.56941782E+0	-6.30000000E+2	4.34316377E-1
23	02/09/2022	17:18:50.608	0.00000000E+0	-2.68082317E+1	5.00000000E+0	4.48229186E+0	-6.31000000E+2	4.32272365E-1
24	02/09/2022	17:18:51.991	0.00000000E+0	-2.65988434E+1	5.00000000E+0	2.32934983E+0	-6.30000000E+2	4.35208477E-1
25	02/09/2022	17:18:53.510	0.00000000E+0	-2.63894550E+1	5.00000000E+0	6.25595715E+0	-6.30000000E+2	4.35201817E-1
26	02/09/2022	17:18:54.929	0.00000000E+0	-2.61800666E+1	5.00000000E+0	3.89247625E+0	-6.30000000E+2	4.43415231E-1
27	02/09/2022	17:18:56.401	0.00000000E+0	-2.59706782E+1	5.00000000E+0	5.54840851E+0	-6.31000000E+2	4.44645167E-1
28	02/09/2022	17:18:57.770	0.00000000E+0	-2.57609064E+1	5.00000000E+0	4.96741329E+0	-6.31000000E+2	4.43931141E-1
29	02/09/2022	17:18:59.214	0.00000000E+0	-2.55515180E+1	5.00000000E+0	5.45828714E+0	-6.30000000E+2	4.46650114E-1
30	02/09/2022	17:19:00.745	0.00000000E+0	-2.53421296E+1	5.00000000E+0	5.53920463E+0	-6.31000000E+2	4.63487393E-1
31	02/09/2022	17:19:02.324	0.00000000E+0	-2.51327412E+1	5.00000000E+0	1.24559240E+0	-6.30000000E+2	4.64595288E-1
32	02/09/2022	17:19:03.827	0.00000000E+0	-2.49233529E+1	5.00000000E+0	2.57708772E+0	-6.30000000E+2	4.64261915E-1
33	02/09/2022	17:19:05.256	0.00000000E+0	-2.47139645E+1	5.00000000E+0	5.39079198E+0	-6.31000000E+2	4.67571507E-1
34	02/09/2022	17:19:06.651	0.00000000E+0	-2.45045761E+1	5.00000000E+0	3.06796158E-2	-6.29000000E+2	4.69859976E-1
35	02/09/2022	17:19:08.166	0.00000000E+0	-2.42948042E+1	5.00000000E+0	7.95752534E-1	-6.30000000E+2	4.69274345E-1
36	02/09/2022	17:19:09.543	0.00000000E+0	-2.40854158E+1	5.00000000E+0	5.20709778E+0	-6.31000000E+2	4.62808464E-1
37	02/09/2022	17:19:10.993	0.00000000E+0	-2.38760275E+1	5.00000000E+0	1.98228667E+0	-6.30000000E+2	4.66259263E-1
38	02/09/2022	17:19:12.505	0.00000000E+0	-2.36666391E+1	5.00000000E+0	5.01304921E+0	-6.31000000E+2	4.62209259E-1
39	02/09/2022	17:19:13.897	0.00000000E+0	-2.34572507E+1	5.00000000E+0	4.77298122E+0	-6.30000000E+2	4.61691749E-1
40	02/09/2022	17:19:15.374	0.00000000E+0	-2.32478623E+1	5.00000000E+0	1.89868472E+0	-6.30000000E+2	4.58291269E-1
41	02/09/2022	17:19:16.746	0.00000000E+0	-2.30384740E+1	5.00000000E+0	5.14305409E+0	-6.31000000E+2	4.51862762E-1
42	02/09/2022	17:19:18.154	0.00000000E+0	-2.28290856E+1	5.00000000E+0	3.57340825E+0	-6.30000000E+2	4.53176190E-1
43	02/09/2022	17:19:19.725	0.00000000E+0	-2.26193137E+1	5.00000000E+0	5.82951049E+0	-6.31000000E+2	4.35410825E-1
44	02/09/2022	17:19:21.104	0.00000000E+0	-2.24099253E+1	5.00000000E+0	5.46250559E+0	-6.30000000E+2	4.50940644E-1
45	02/09/2022	17:19:22.555	0.00000000E+0	-2.22005370E+1	5.00000000E+0	1.12133996E+0	-6.30000000E+2	4.34248441E-1
46	02/09/2022	17:19:23.889	0.00000000E+0	-2.19911486E+1	5.00000000E+0	4.22611707E+0	-6.30000000E+2	4.31945668E-1
47	02/09/2022	17:19:25.252	0.00000000E+0	-2.17817602E+1	5.00000000E+0	2.85665572E+0	-6.30000000E+2	4.26250692E-1
48	02/09/2022	17:19:26.758	0.00000000E+0	-2.15723718E+1	5.00000000E+0	2.91724796E+0	-6.30000000E+2	4.24290676E-1
49	02/09/2022	17:19:28.150	0.00000000E+0	-2.13629834E+1	5.00000000E+0	5.78003961E+0	-6.31000000E+2	4.24390710E-1
50	02/09/2022	17:19:29.594	0.00000000E+0	-2.11532116E+1	5.00000000E+0	4.98773853E+0	-6.30000000E+2	4.22008547E-1
51	02/09/2022	17:19:31.100	0.00000000E+0	-2.09438232E+1	5.00000000E+0	5.51159297E+0	-6.30000000E+2	4.28612560E-1
52	02/09/2022	17:19:32.489	0.00000000E+0	-2.07344348E+1	5.00000000E+0	3.80580633E+0	-6.31000000E+2	4.27568734E-1
53	02/09/2022	17:19:33.995	0.00000000E+0	-2.05250464E+1	5.00000000E+0	3.87215100E+0	-6.31000000E+2	4.27939972E-1
54	02/09/2022	17:19:35.377	0.00000000E+0	-2.03156581E+1	5.00000000E+0	1.40320893E+0	-6.30000000E+2	4.34729063E-1
55	02/09/2022	17:19:36.747	0.00000000E+0	-2.01062697E+1	5.00000000E+0	1.75295655E+0	-6.30000000E+2	4.33971542E-1
56	02/09/2022	17:19:38.256	0.00000000E+0	-1.98968813E+1	5.00000000E+0	5.48896675E+0	-6.30000000E+2	4.41354327E-1
57	02/09/2022	17:19:39.643	0.00000000E+0	-1.96874929E+1	5.00000000E+0	2.42867508E+0	-6.30000000E+2	4.40410112E-1
58	02/09/2022	17:19:41.014	0.00000000E+0	-1.94777211E+1	5.00000000E+0	1.05269432E+0	-6.30000000E+2	4.49612711E-1
59	02/09/2022	17:19:42.518	0.00000000E+0	-1.92683327E+1	5.00000000E+0	1.46226719E+0	-6.30000000E+2	4.50331692E-1
60	02/09/2022	17:19:43.894	0.00000000E+0	-1.90589443E+1	5.00000000E+0	4.31278699E+0	-6.31000000E+2	4.58945803E-1
61	02/09/2022	17:19:45.404	0.00000000E+0	-1.88495559E+1	5.00000000E+0	4.42975302E+0	-6.31000000E+2	4.60579035E-1
62	02/09/2022	17:19:46.790	0.00000000E+0	-1.86401675E+1	5.00000000E+0	4.86808803E+0	-6.30000000E+2	4.64281045E-1
63	02/09/2022	17:19:48.184	0.00000000E+0	-1.84307792E+1	5.00000000E+0	5.26462206E+0	-6.31000000E+2	4.70010254E-1
64	02/09/2022	17:19:49.658	0.00000000E+0	-1.82213908E+1	5.00000000E+0	7.69674860E-1	-6.30000000E+2	4.68104729E-1
65	02/09/2022	17:19:51.019	0.00000000E+0	-1.80116189E+1	5.00000000E+0	4.64220936E+0	-6.31000000E+2	4.65669190E-1
66	02/09/2022	17:19:52.533	0.00000000E+0	-1.78022305E+1	5.00000000E+0	1.26975260E+0	-6.30000000E+2	4.65562964E-1
67	02/09/2022	17:19:53.983	0.00000000E+0	-1.75928422E+1	5.00000000E+0	4.42591807E+0	-6.31000000E+2	4.56677481E-1
68	02/09/2022	17:19:55.347	0.00000000E+0	-1.73834538E+1	5.00000000E+0	4.24375785E+0	-6.31000000E+2	4.66173390E-1
69	02/09/2022	17:19:56.898	0.00000000E+0	-1.71740654E+1	5.00000000E+0	4.88918027E+0	-6.31000000E+2	4.60665676E-1
70	02/09/2022	17:19:58.279	0.00000000E+0	-1.69646770E+1	5.00000000E+0	6.20418530E+0	-6.31000000E+2	4.52081321E-1
71	02/09/2022	17:19:59.660	0.00000000E+0	-1.67552887E+1	5.00000000E+0	5.46672403E+0	-6.30000000E+2	4.50161055E-1
72	02/09/2022	17:20:01.147	0.00000000E+0	-1.65459003E+1	5.00000000E+0	4.74767054E+0	-6.31000000E+2	4.48500092E-1
73	02/09/2022	17:20:02.539	0.00000000E+0	-1.63361284E+1	5.00000000E+0	4.41019477E-1	-6.29000000E+2	4.47677899E-1
74	02/09/2022	17:20:04.036	0.00000000E+0	-1.61267400E+1	5.00000000E+0	5.55761239E+0	-6.30000000E+2	4.41918594E-1
75	02/09/2022	17:20:05.424	0.00000000E+0	-1.59173516E+1	5.00000000E+0	7.40529225E-1	-6.30000000E+2	4.32067902E-1
76	02/09/2022	17:20:06.807	0.00000000E+0	-1.57079633E+1	5.00000000E+0	5.09204923E+0	-6.31000000E+2	4.31436420E-1
77	02/09/2022	17:20:08.348	0.00000000E+0	-1.54985749E+1	5.00000000E+0	4.47040351E+0	-6.31000000E+2	4.27140112E-1
78	02/09/2022	17:20:09.729	0.00000000E+0	-1.52891865E+1	5.00000000E+0	2.28179642E-1	-6.30000000E+2	4.26690465E-1
79	02/09/2022	17:20:11.131	0.00000000E+0	-1.50797981E+1	5.00000000E+0	3.77512672E+0	-6.31000000E+2	4.23768797E-1
80	02/09/2022	17:20:12.619	0.00000000E+0	-1.48700263E+1	5.00000000E+0	5.99594740E+0	-6.30000000E+2	4.29207371E-1
81	02/09/2022	17:20:14.003	0.00000000E+0	-1.46606379E+1	5.00000000E+0	5.55646191E+0	-6.31000000E+2	4.32061725E-1
82	02/09/2022	17:20:15.514	0.00000000E+0	-1.44512495E+1	5.00000000E+0	4.77950064E+0	-6.31000000E+2	4.29876826E-1
83	02/09/2022	17:20:16.888	0.00000000E+0	-1.42418611E+1	5.00000000E+0	5.32598130E+0	-6.31000000E+2	4.28315992E-1
84	02/09/2022	17:20:18.348	0.00000000E+0	-1.40324728E+1	5.00000000E+0	5.83219496E+0	-6.31000000E+2	4.32532268E-1
85	02/09/2022	17:20:19.877	0.00000000E+0	-1.38230844E+1	5.00000000E+0	5.21400070E+0	-6.30000000E+2	4.38299177E-1
86	02/09/2022	17:20:21.242	0.00000000E+0	-1.36136960E+1	5.00000000E+0	2.55024306E-1	-6.29000000E+2	4.38230637E-1
87	02/09/2022	17:20:22.704	0.00000000E+0	-1.34043076E+1	5.00000000E+0	4.31470446E+0	-6.30000000E+2	4.41879052E-1
88	02/09/2022	17:20:24.107	0.00000000E+0	-1.31945357E+1	5.00000000E+0	3.86678207E+0	-6.30000000E+2	4.51820933E-1
89	02/09/2022	17:20:25.556	0.00000000E+0	-1.29851474E+1	5.00000000E+0	4.47653943E+0	-6.31000000E+2	4.64860432E-1
90	02/09/2022	17:20:27.025	0.00000000E+0	-1.27757590E+1	5.00000000E+0	3.11436449E+0	-6.30000000E+2	4.59976241E-1
91	02/09/2022	17:20:28.429	0.00000000E+0	-1.25663706E+1	5.00000000E+0	4.14980153E+0	-6.31000000E+2	4.57861482E-1
92	02/09/2022	17:20:29.875	0.00000000E+0	-1.23569822E+1	5.00000000E+0	1.62295167E+0	-6.30000000E+2	4.62524946E-1
93	02/09/2022	17:20:31.371	0.00000000E+0	-1.21475939E+1	5.00000000E+0	5.59711240E+0	-6.30000000E+2	4.66928704E-1
94	02/09/2022	17:20:32.759	0.00000000E+0	-1.19382055E+1	5.00000000E+0	3.97761218E+0	-6.31000000E+2	4.66366854E-1
95	02/09/2022	17:20:34.240	0.00000000E+0	-1.17284336E+1	5.00000000E+0	5.32444731E+0	-6.30000000E+2	4.69000872E-1
96	02/09/2022	17:20:35.613	0.00000000E+0	-1.15190452E+1	5.00000000E+0	9.87500132E-1	-6.29000000E+2	4.68360912E-1
97	02/09/2022	17:20:37.001	0.00000000E+0	-1.13096569E+1	5.00000000E+0	5.55032599E+0	-6.31000000E+2	4.65883532E-1
98	02/09/2022	17:20:38.567	0.00000000E+0	-1.11002685E+1	5.00000000E+0	1.03467004E+0	-6.30000000E+2	4.62878221E-1
99	02/09/2022	17:20:39.950	0.00000000E+0	-1.08908801E+1	5.00000000E+0	5.68378231E+0	-6.30000000E+2	4.62703389E-1
100	02/09/2022	17:20:41.370	0.00000000E+0	-1.06814917E+1	5.00000000E+0	2.77497125E+0	-6.30000000E+2	4.59097447E-1
101	02/09/2022	17:20:42.731	0.00000000E+0	-1.04721033E+1	5.00000000E+0	5.92691827E+0	-6.30000000E+2	4.56700237E-1
102	02/09/2022	17:20:44.094	0.00000000E+0	-1.02627150E+1	5.00000000E+0	4.29054426E+0	-6.30000000E+2	4.48749247E-1
103	02/09/2022	17:20:45.670	0.00000000E+0	-1.00529431E+1	5.00000000E+0	5.50315608E+0	-6.31000000E+2	4.47300924E-1
104	02/09/2022	17:20:47.033	0.00000000E+0	-9.84355472E+0	5.00000000E+0	1.08912636E-1	-6.30000000E+2	4.38467310E-1
105	02/09/2022	17:20:48.501	0.00000000E+0	-9.63416634E+0	5.00000000E+0	5.28609780E+0	-6.31000000E+2	4.34731887E-1
106	02/09/2022	17:20:50.003	0.00000000E+0	-9.42477796E+0	5.00000000E+0	5.81455418E+0	-6.31000000E+2	4.33353631E-1
107	02/09/2022	17:20:51.383	0.00000000E+0	-9.21538958E+0	5.00000000E+0	5.61398619E+0	-6.31000000E+2	4.30038520E-1
108	02/09/2022	17:20:52.913	0.00000000E+0	-9.00600121E+0	5.00000000E+0	2.86969456E+0	-6.30000000E+2	4.19426140E-1
109	02/09/2022	17:20:54.298	0.00000000E+0	-8.79661283E+0	5.00000000E+0	3.74866555E+0	-6.31000000E+2	4.24838284E-1
110	02/09/2022	17:20:55.696	0.00000000E+0	-8.58684096E+0	5.00000000E+0	3.53429174E+0	-6.30000000E+2	4.26039082E-1
111	02/09/2022	17:20:57.155	0.00000000E+0	-8.37745258E+0	5.00000000E+0	4.63108800E+0	-6.30000000E+2	4.30112708E-1
112	02/09/2022	17:20:58.542	0.00000000E+0	-8.16806420E+0	5.00000000E+0	4.94977251E+0	-6.31000000E+2	4.24432975E-1
113	02/09/2022	17:20:59.954	0.00000000E+0	-7.95867582E+0	5.00000000E+0	4.63453946E+0	-6.31000000E+2	4.28525706E-1
114	02/09/2022	17:21:01.467	0.00000000E+0	-7.74928745E+0	5.00000000E+0	3.81194226E-1	-6.30000000E+2	4.34899551E-1
115	02/09/2022	17:21:02.858	0.00000000E+0	-7.53989907E+0	5.00000000E+0	2.93105379E+0	-6.30000000E+2	4.43825204E-1
116	02/09/2022	17:21:04.417	0.00000000E+0	-7.33051069E+0	5.00000000E+0	4.57241323E+0	-6.31000000E+2	4.39521764E-1
117	02/09/2022	17:21:05.803	0.00000000E+0	-7.12112231E+0	5.00000000E+0	8.76286525E-1	-6.30000000E+2	4.50080052E-1
118	02/09/2022	17:21:07.197	0.00000000E+0	-6.91135044E+0	5.00000000E+0	5.92154934E+0	-6.31000000E+2	4.52616050E-1
119	02/09/2022	17:21:08.675	0.00000000E+0	-6.70196206E+0	5.00000000E+0	6.09105421E+0	-6.31000000E+2	4.53794171E-1
120	02/09/2022	17:21:10.063	0.00000000E+0	-6.49257368E+0	5.00000000E+0	4.55170449E+0	-6.30000000E+2	4.59060283E-1
121	02/09/2022	17:21:11.603	0.00000000E+0	-6.28318531E+0	5.00000000E+0	5.10662204E+0	-6.30000000E+2	4.67301152E-1
122	02/09/2022	17:21:13.022	0.00000000E+0	-6.07379693E+0	5.00000000E+0	6.03199595E+0	-6.30000000E+2	4.69741498E-1
123	02/09/2022	17:21:14.410	0.00000000E+0	-5.86440855E+0	5.00000000E+0	4.85236473E+0	-6.31000000E+2	4.67089724E-1
124	02/09/2022	17:21:16.027	0.00000000E+0	-5.65502017E+0	5.00000000E+0	4.44931128E+0	-6.30000000E+2	4.64656546E-1
125	02/09/2022	17:21:17.403	0.00000000E+0	-5.44524830E+0	5.00000000E+0	5.76930174E+0	-6.30000000E+2	4.70865860E-1
126	02/09/2022	17:21:18.782	0.00000000E+0	-5.23585992E+0	5.00000000E+0	1.62563614E+0	-6.30000000E+2	4.68417861E-1
127	02/09/2022	17:21:20.286	0.00000000E+0	-5.02647155E+0	5.00000000E+0	2.85051980E+0	-6.30000000E+2	4.71587730E-1
128	02/09/2022	17:21:21.672	0.00000000E+0	-4.81708317E+0	5.00000000E+0	5.50967549E+0	-6.31000000E+2	4.65466959E-1
129	02/09/2022	17:21:23.127	0.00000000E+0	-4.60769479E+0	5.00000000E+0	4.11873842E+0	-6.31000000E+2	4.59348534E-1
130	02/09/2022	17:21:24.539	0.00000000E+0	-4.39830641E+0	5.00000000E+0	5.37046674E+0	-6.31000000E+2	4.62771018E-1
131	02/09/2022	17:21:25.931	0.00000000E+0	-4.18891804E+0	5.00000000E+0	4.15900541E+0	-6.30000000E+2	4.52947926E-1
132	02/09/2022	17:21:27.393	0.00000000E+0	-3.97952966E+0	5.00000000E+0	6.02509304E+0	-6.30000000E+2	4.47735302E-1
133	02/09/2022	17:21:28.776	0.00000000E+0	-3.76975779E+0	5.00000000E+0	1.14665064E+0	-6.30000000E+2	4.44799603E-1
134	02/09/2022	17:21:30.229	0.00000000E+0	-3.56036941E+0	5.00000000E+0	4.30281611E+0	-6.30000000E+2	4.37867355E-1
135	02/09/2022	17:21:31.703	0.00000000E+0	-3.35098103E+0	5.00000000E+0	6.15893286E+0	-6.31000000E+2	4.45105998E-1
136	02/09/2022	17:21:33.092	0.00000000E+0	-3.14159265E+0	5.00000000E+0	4.76262685E+0	-6.30000000E+2	4.32033236E-1
137	02/09/2022	17:21:34.628	0.00000000E+0	-2.93220428E+0	5.00000000E+0	3.61904417E+0	-6.31000000E+2	4.34004983E-1
138	02/09/2022	17:21:36.018	0.00000000E+0	-2.72281590E+0	5.00000000E+0	5.51696190E+0	-6.30000000E+2	4.21491782E-1
139	02/09/2022	17:21:37.465	0.00000000E+0	-2.51342752E+0	5.00000000E+0	2.21008282E+0	-6.30000000E+2	4.32567257E-1
140	02/09/2022	17:21:38.968	0.00000000E+0	-2.30365565E+0	5.00000000E+0	5.99748139E+0	-6.31000000E+2	4.27762385E-1
141	02/09/2022	17:21:40.358	0.00000000E+0	-2.09426727E+0	5.00000000E+0	3.98336461E+0	-6.30000000E+2	4.23032179E-1
142	02/09/2022	17:21:41.865	0.00000000E+0	-1.88487889E+0	5.00000000E+0	3.85987916E+0	-6.30000000E+2	4.28072904E-1
143	02/09/2022	17:21:43.242	0.00000000E+0	-1.67549052E+0	5.00000000E+0	1.58767012E-1	-6.30000000E+2	4.34177339E-1
144	02/09/2022	17:21:44.634	0.00000000E+0	-1.46610214E+0	5.00000000E+0	3.82459760E+0	-6.30000000E+2	4.32270201E-1
145	02/09/2022	17:21:46.094	0.00000000E+0	-1.25671376E+0	5.00000000E+0	5.19444244E+0	-6.30000000E+2	4.37526649E-1
146	02/09/2022	17:21:47.480	0.00000000E+0	-1.04732538E+0	5.00000000E+0	2.43481101E+0	-6.30000000E+2	4.36555908E-1
147	02/09/2022	17:21:48.875	0.00000000E+0	-8.37937005E-1	5.00000000E+0	3.29153928E+0	-6.30000000E+2	4.44279513E-1
148	02/09/2022	17:21:50.378	0.00000000E+0	-6.28165133E-1	5.00000000E+0	2.95636447E+0	-6.30000000E+2	4.54598408E-1
149	02/09/2022	17:21:51.752	0.00000000E+0	-4.18776755E-1	5.00000000E+0	4.89761716E+0	-6.30000000E+2	4.60055962E-1
150	02/09/2022	17:21:53.219	0.00000000E+0	-2.09388378E-1	5.00000000E+0	5.06980650E+0	-6.30000000E+2	4.59383340E-1
151	02/09/2022	17:21:54.605	0.00000000E+0	0.00000000E+0	5.00000000E+0	4.90643755E+0	-6.31000000E+2	4.65722284E-1
152	02/09/2022	17:21:55.986	0.00000000E+0	2.09388378E-1	5.00000000E+0	9.80980714E-1	-6.30000000E+2	4.63935334E-1
153	02/09/2022	17:21:57.554	0.00000000E+0	4.18776755E-1	5.00000000E+0	4.57356372E+0	-6.30000000E+2	4.70154857E-1
154	02/09/2022	17:21:58.952	0.00000000E+0	6.28165133E-1	5.00000000E+0	4.97393270E-1	-6.30000000E+2	4.68655489E-1
155	02/09/2022	17:22:00.406	0.00000000E+0	8.37937005E-1	5.00000000E+0	4.73846665E+0	-6.31000000E+2	4.75212221E-1
156	02/09/2022	17:22:01.760	0.00000000E+0	1.04732538E+0	5.00000000E+0	3.27658296E+0	-6.30000000E+2	4.73193661E-1
157	02/09/2022	17:22:03.152	0.00000000E+0	1.25671376E+0	5.00000000E+0	2.02485464E+0	-6.30000000E+2	4.62099549E-1
158	02/09/2022	17:22:04.617	0.00000000E+0	1.46610214E+0	5.00000000E+0	4.25027727E+0	-6.30000000E+2	4.65420467E-1
159	02/09/2022	17:22:06.040	0.00000000E+0	1.67549052E+0	5.00000000E+0	5.13193273E+0	-6.30000000E+2	4.62282035E-1
160	02/09/2022	17:22:07.497	0.00000000E+0	1.88487889E+0	5.00000000E+0	5.91311244E+0	-6.30000000E+2	4.51128356E-1
161	02/09/2022	17:22:08.993	0.00000000E+0	2.09426727E+0	5.00000000E+0	2.71399551E+0	-6.30000000E+2	4.54638767E-1
162	02/09/2022	17:22:10.363	0.00000000E+0	2.30365565E+0	5.00000000E+0	3.64665583E+0	-6.30000000E+2	4.51821655E-1
163	02/09/2022	17:22:11.913	0.00000000E+0	2.51342752E+0	5.00000000E+0	2.29713623E+0	-6.30000000E+2	4.44512922E-1
164	02/09/2022	17:22:13.274	0.00000000E+0	2.72281590E+0	5.00000000E+0	5.84523379E+0	-6.31000000E+2	4.41345279E-1
165	02/09/2022	17:22:14.654	0.00000000E+0	2.93220428E+0	5.00000000E+0	5.27919488E+0	-6.30000000E+2	4.30779172E-1
166	02/09/2022	17:22:16.201	0.00000000E+0	3.14159265E+0	5.00000000E+0	2.93297127E+0	-6.30000000E+2	4.43059401E-1
167	02/09/2022	17:22:17.600	0.00000000E+0	3.35098103E+0	5.00000000E+0	3.42116065E+0	-6.31000000E+2	4.32811427E-1
168	02/09/2022	17:22:18.989	0.00000000E+0	3.56036941E+0	5.00000000E+0	4.57164624E+0	-6.30000000E+2	4.28561779E-1
169	02/09/2022	17:22:20.485	0.00000000E+0	3.76975779E+0	5.00000000E+0	5.89777263E+0	-6.31000000E+2	4.25434032E-1
170	02/09/2022	17:22:21.870	0.00000000E+0	3.97952966E+0	5.00000000E+0	4.79944239E+0	-6.30000000E+2	4.26855262E-1
171	02/09/2022	17:22:23.342	0.00000000E+0	4.18891804E+0	5.00000000E+0	2.95674797E-1	-6.30000000E+2	4.25774725E-1
172	02/09/2022	17:22:24.739	0.00000000E+0	4.39830641E+0	5.00000000E+0	4.49034526E+0	-6.30000000E+2	4.29129857E-1
173	02/09/2022	17:22:26.108	0.00000000E+0	4.60769479E+0	5.00000000E+0	9.24990415E-1	-6.29000000E+2	4.28637735E-1
174	02/09/2022	17:22:27.619	0.00000000E+0	4.81708317E+0	5.00000000E+0	5.72328232E+0	-6.30000000E+2	4.28162205E-1
175	02/09/2022	17:22:29.015	0.00000000E+0	5.02647155E+0	5.00000000E+0	5.22205410E+0	-6.31000000E+2	4.33497210E-1
176	02/09/2022	17:22:30.530	0.00000000E+0	5.23585992E+0	5.00000000E+0	3.47638396E+0	-6.30000000E+2	4.38441957E-1
177	02/09/2022	17:22:31.974	0.00000000E+0	5.44524830E+0	5.00000000E+0	4.80749579E+0	-6.31000000E+2	4.44701185E-1
178	02/09/2022	17:22:33.352	0.00000000E+0	5.65502017E+0	5.00000000E+0	5.72558329E-1	-6.30000000E+2	4.53253949E-1
179	02/09/2022	17:22:34.904	0.00000000E+0	5.86440855E+0	5.00000000E+0	1.73033033E+0	-6.30000000E+2	4.57044255E-1
180	02/09/2022	17:22:36.319	0.00000000E+0	6.07379693E+0	5.00000000E+0	2.70479162E+0	-6.30000000E+2	4.59874273E-1
181	02/09/2022	17:22:37.714	0.00000000E+0	6.28318531E+0	5.00000000E+0	3.51281600E-1	-6.30000000E+2	4.59429094E-1
182	02/09/2022	17:22:39.207	0.00000000E+0	6.49257368E+0	5.00000000E+0	5.13116574E+0	-6.30000000E+2	4.61086243E-1
183	02/09/2022	17:22:40.600	0.00000000E+0	6.70196206E+0	5.00000000E+0	5.29952013E+0	-6.31000000E+2	4.66761474E-1
184	02/09/2022	17:22:42.132	0.00000000E+0	6.91135044E+0	5.00000000E+0	3.91586946E+0	-6.30000000E+2	4.65593348E-1
185	02/09/2022	17:22:43.506	0.00000000E+0	7.12112231E+0	5.00000000E+0	1.84461190E-1	-6.30000000E+2	4.72994486E-1
186	02/09/2022	17:22:44.877	0.00000000E+0	7.33051069E+0	5.00000000E+0	1.63599051E+0	-6.30000000E+2	4.70196733E-1
187	02/09/2022	17:22:46.430	0.00000000E+0	7.53989907E+0	5.00000000E+0	5.30910751E+0	-6.31000000E+2	4.65561889E-1
188	02/09/2022	17:22:47.810	0.00000000E+0	7.74928745E+0	5.00000000E+0	4.41249574E+0	-6.31000000E+2	4.61153181E-1
189	02/09/2022	17:22:49.189	0.00000000E+0	7.95867582E+0	5.00000000E+0	4.79292297E+0	-6.30000000E+2	4.66373281E-1
190	02/09/2022	17:22:50.701	0.00000000E+0	8.16806420E+0	5.00000000E+0	5.53997162E+0	-6.30000000E+2	4.55678461E-1
191	02/09/2022	17:22:52.062	0.00000000E+0	8.37745258E+0	5.00000000E+0	1.47415554E+0	-6.30000000E+2	4.51205505E-1
192	02/09/2022	17:22:53.594	0.00000000E+0	8.58684096E+0	5.00000000E+0	5.01765116E+0	-6.31000000E+2	4.45172028E-1
193	02/09/2022	17:22:54.994	0.00000000E+0	8.79661283E+0	5.00000000E+0	6.24253482E+0	-6.30000000E+2	4.47853695E-1
194	02/09/2022	17:22:56.420	0.00000000E+0	9.00600121E+0	5.00000000E+0	5.90851050E+0	-6.31000000E+2	4.32599396E-1
195	02/09/2022	17:22:57.931	0.00000000E+0	9.21538958E+0	5.00000000E+0	3.74022866E+0	-6.31000000E+2	4.38257319E-1
196	02/09/2022	17:22:59.342	0.00000000E+0	9.42477796E+0	5.00000000E+0	5.06482107E+0	-6.31000000E+2	4.27150887E-1
197	02/09/2022	17:23:00.871	0.00000000E+0	9.63416634E+0	5.00000000E+0	4.97546669E+0	-6.30000000E+2	4.27054966E-1
198	02/09/2022	17:23:02.259	0.00000000E+0	9.84355472E+0	5.00000000E+0	6.51174844E-1	-6.30000000E+2	4.20140805E-1
199	02/09/2022	17:23:03.630	0.00000000E+0	1.00529431E+1	5.00000000E+0	4.38871903E+0	-6.31000000E+2	4.22297146E-1
200	02/09/2022	17:23:05.186	0.00000000E+0	1.02627150E+1	5.00000000E+0	2.64995181E+0	-6.31000000E+2	4.24523223E-1
201	02/09/2022	17:23:06.560	0.00000000E+0	1.04721033E+1	5.00000000E+0	5.11007350E+0	-6.31000000E+2	4.28320040E-1
202	02/09/2022	17:23:07.969	0.00000000E+0	1.06814917E+1	5.00000000E+0	3.95268500E+0	-6.31000000E+2	4.31987080E-1
203	02/09/2022	17:23:09.446	0.00000000E+0	1.08908801E+1	5.00000000E+0	4.77183074E+0	-6.30000000E+2	4.31831820E-1
204	02/09/2022	17:23:10.847	0.00000000E+0	1.11002685E+1	5.00000000E+0	4.05431122E+0	-6.31000000E+2	4.28845410E-1
205	02/09/2022	17:23:12.323	0.00000000E+0	1.13096569E+1	5.00000000E+0	6.11368043E+0	-6.30000000E+2	4.35450386E-1
206	02/09/2022	17:23:13.711	0.00000000E+0	1.15190452E+1	5.00000000E+0	5.52079686E+0	-6.31000000E+2	4.41998087E-1
207	02/09/2022	17:23:15.097	0.00000000E+0	1.17284336E+1	5.00000000E+0	1.34721863E+0	-6.30000000E+2	4.48412675E-1
208	02/09/2022	17:23:16.669	0.00000000E+0	1.19382055E+1	5.00000000E+0	2.89001980E+0	-6.30000000E+2	4.53475126E-1
209	02/09/2022	17:23:18.069	0.00000000E+0	1.21475939E+1	5.00000000E+0	4.29054426E+0	-6.30000000E+2	4.54384457E-1
210	02/09/2022	17:23:19.497	0.00000000E+0	1.23569822E+1	5.00000000E+0	3.31876743E+0	-6.30000000E+2	4.53625470E-1
211	02/09/2022	17:23:20.832	0.00000000E+0	1.25663706E+1	5.00000000E+0	4.46963652E+0	-6.31000000E+2	4.61993566E-1
212	02/09/2022	17:23:22.224	0.00000000E+0	1.27757590E+1	5.00000000E+0	5.65655416E+0	-6.30000000E+2	4.67562966E-1
213	02/09/2022	17:23:23.783	0.00000000E+0	1.29851474E+1	5.00000000E+0	4.16974328E+0	-6.30000000E+2	4.68239756E-1
214	02/09/2022	17:23:25.154	0.00000000E+0	1.31945357E+1	5.00000000E+0	4.75112200E+0	-6.30000000E+2	4.69908361E-1
215	02/09/2022	17:23:26.565	0.00000000E+0	1.34043076E+1	5.00000000E+0	5.83641340E+0	-6.30000000E+2	4.70352295E-1
216	02/09/2022	17:23:28.052	0.00000000E+0	1.36136960E+1	5.00000000E+0	5.21553468E+0	-6.31000000E+2	4.67746781E-1
217	02/09/2022	17:23:29.428	0.00000000E+0	1.38230844E+1	5.00000000E+0	2.82175766E+0	-6.30000000E+2	4.75738992E-1
218	02/09/2022	17:23:30.943	0.00000000E+0	1.40324728E+1	5.00000000E+0	6.19229695E+0	-6.30000000E+2	4.63754345E-1
219	02/09/2022	17:23:32.350	0.00000000E+0	1.42418611E+1	5.00000000E+0	5.20518031E+0	-6.30000000E+2	4.60708549E-1
220	02/09/2022	17:23:33.715	0.00000000E+0	1.44512495E+1	5.00000000E+0	4.50069963E+0	-6.30000000E+2	4.55699316E-1
221	02/09/2022	17:23:35.260	0.00000000E+0	1.46606379E+1	5.00000000E+0	5.06098611E+0	-6.31000000E+2	4.52295383E-1
222	02/09/2022	17:23:36.627	0.00000000E+0	1.48700263E+1	5.00000000E+0	5.41035024E+0	-6.31000000E+2	4.45940277E-1
223	02/09/2022	17:23:38.087	0.00000000E+0	1.50797981E+1	5.00000000E+0	5.04756378E+0	-6.31000000E+2	4.43921346E-1
224	02/09/2022	17:23:39.582	0.00000000E+0	1.52891865E+1	5.00000000E+0	5.27344245E+0	-6.31000000E+2	4.41620361E-1
225	02/09/2022	17:23:40.973	0.00000000E+0	1.54985749E+1	5.00000000E+0	4.19467046E+0	-6.30000000E+2	4.31727889E-1
226	02/09/2022	17:23:42.460	0.00000000E+0	1.57079633E+1	5.00000000E+0	4.38373360E+0	-6.31000000E+2	4.32810010E-1
227	02/09/2022	17:23:43.856	0.00000000E+0	1.59173516E+1	5.00000000E+0	5.02570456E+0	-6.30000000E+2	4.33214008E-1
228	02/09/2022	17:23:45.260	0.00000000E+0	1.61267400E+1	5.00000000E+0	3.83725294E+0	-6.30000000E+2	4.31576994E-1
229	02/09/2022	17:23:46.776	0.00000000E+0	1.63361284E+1	5.00000000E+0	4.83280647E+0	-6.30000000E+2	4.21663676E-1
230	02/09/2022	17:23:48.156	0.00000000E+0	1.65459003E+1	5.00000000E+0	8.08407875E-1	-6.30000000E+2	4.21392278E-1
231	02/09/2022	17:23:49.654	0.00000000E+0	1.67552887E+1	5.00000000E+0	3.54081115E+0	-6.30000000E+2	4.23257246E-1
232	02/09/2022	17:23:51.094	0.00000000E+0	1.69646770E+1	5.00000000E+0	5.97869012E-1	-6.30000000E+2	4.25221586E-1
233	02/09/2022	17:23:52.474	0.00000000E+0	1.71740654E+1	5.00000000E+0	5.94417555E-2	-6.29000000E+2	4.33895229E-1
234	02/09/2022	17:23:53.952	0.00000000E+0	1.73834538E+1	5.00000000E+0	5.90582603E-2	-6.30000000E+2	4.30815667E-1
235	02/09/2022	17:23:55.357	0.00000000E+0	1.75928422E+1	5.00000000E+0	4.32237437E+0	-6.30000000E+2	4.34308488E-1
236	02/09/2022	17:23:56.749	0.00000000E+0	1.78022305E+1	5.00000000E+0	6.15394743E+0	-6.31000000E+2	4.37622574E-1
237	02/09/2022	17:23:58.245	0.00000000E+0	1.80116189E+1	5.00000000E+0	4.22228212E+0	-6.31000000E+2	4.42576033E-1
238	02/09/2022	17:23:59.633	0.00000000E+0	1.82213908E+1	5.00000000E+0	4.24299086E+0	-6.30000000E+2	4.51145916E-1
239	02/09/2022	17:24:01.088	0.00000000E+0	1.84307792E+1	5.00000000E+0	3.22212664E+0	-6.30000000E+2	4.59813581E-1
240	02/09/2022	17:24:02.491	0.00000000E+0	1.86401675E+1	5.00000000E+0	3.01964118E+0	-6.31000000E+2	4.63045780E-1
241	02/09/2022	17:24:03.869	0.00000000E+0	1.88495559E+1	5.00000000E+0	8.98529247E-1	-6.30000000E+2	4.59814755E-1
242	02/09/2022	17:24:05.288	0.00000000E+0	1.90589443E+1	5.00000000E+0	3.70379661E+0	-6.30000000E+2	4.71853920E-1
243	02/09/2022	17:24:06.668	0.00000000E+0	1.92683327E+1	5.00000000E+0	4.64105887E+0	-6.30000000E+2	4.66649753E-1
244	02/09/2022	17:24:08.095	0.00000000E+0	1.94777211E+1	5.00000000E+0	4.52140837E+0	-6.31000000E+2	4.66169836E-1
245	02/09/2022	17:24:09.534	0.00000000E+0	1.96874929E+1	5.00000000E+0	5.74782601E+0	-6.30000000E+2	4.67927439E-1
246	02/09/2022	17:24:10.914	0.00000000E+0	1.98968813E+1	5.00000000E+0	4.51373847E+0	-6.30000000E+2	4.66800004E-1
247	02/09/2022	17:24:12.426	0.00000000E+0	2.01062697E+1	5.00000000E+0	1.49102933E+0	-6.30000000E+2	4.71251506E-1
248	02/09/2022	17:24:13.828	0.00000000E+0	2.03156581E+1	5.00000000E+0	6.02509304E+0	-6.30000000E+2	4.63815012E-1
249	02/09/2022	17:24:15.261	0.00000000E+0	2.05250464E+1	5.00000000E+0	4.93558319E+0	-6.31000000E+2	4.61379069E-1
250	02/09/2022	17:24:16.791	0.00000000E+0	2.07344348E+1	5.00000000E+0	5.13883564E-1	-6.29000000E+2	4.59154091E-1
251	02/09/2022	17:24:18.168	0.00000000E+0	2.09438232E+1	5.00000000E+0	4.88611230E+0	-6.30000000E+2	4.50410431E-1
252	02/09/2022	17:24:19.612	0.00000000E+0	2.11532116E+1	5.00000000E+0	1.48681088E+0	-6.30000000E+2	4.46885709E-1
253	02/09/2022	17:24:20.993	0.00000000E+0	2.13629834E+1	5.00000000E+0	5.72788426E+0	-6.30000000E+2	4.49432752E-1
254	02/09/2022	17:24:22.383	0.00000000E+0	2.15723718E+1	5.00000000E+0	3.44570434E+0	-6.31000000E+2	4.40343035E-1
255	02/09/2022	17:24:23.886	0.00000000E+0	2.17817602E+1	5.00000000E+0	3.93696169E+0	-6.31000000E+2	4.40424294E-1
256	02/09/2022	17:24:25.277	0.00000000E+0	2.19911486E+1	5.00000000E+0	6.18270957E+0	-6.30000000E+2	4.29665609E-1
257	02/09/2022	17:24:26.657	0.00000000E+0	2.22005370E+1	5.00000000E+0	1.51979147E+0	-6.30000000E+2	4.27582871E-1
258	02/09/2022	17:24:28.158	0.00000000E+0	2.24099253E+1	5.00000000E+0	4.07847142E+0	-6.30000000E+2	4.30216338E-1
259	02/09/2022	17:24:29.603	0.00000000E+0	2.26193137E+1	5.00000000E+0	3.33065579E+0	-6.30000000E+2	4.26195825E-1
260	02/09/2022	17:24:31.101	0.00000000E+0	2.28290856E+1	5.00000000E+0	5.89700564E+0	-6.31000000E+2	4.21281975E-1
261	02/09/2022	17:24:32.473	0.00000000E+0	2.30384740E+1	5.00000000E+0	5.23087449E+0	-6.31000000E+2	4.21837827E-1
262	02/09/2022	17:24:33.863	0.00000000E+0	2.32478623E+1	5.00000000E+0	3.86371411E+0	-6.30000000E+2	4.29877098E-1
263	02/09/2022	17:24:35.362	0.00000000E+0	2.34572507E+1	5.00000000E+0	5.14727253E+0	-6.30000000E+2	4.29673630E-1
264	02/09/2022	17:24:36.764	0.00000000E+0	2.36666391E+1	5.00000000E+0	1.71997596E+0	-6.30000000E+2	4.30787786E-1
265	02/09/2022	17:24:38.149	0.00000000E+0	2.38760275E+1	5.00000000E+0	4.84354434E-1	-6.29000000E+2	4.33675814E-1
266	02/09/2022	17:24:39.537	0.00000000E+0	2.40854158E+1	5.00000000E+0	4.87767541E+0	-6.31000000E+2	4.41980798E-1
267	02/09/2022	17:24:40.913	0.00000000E+0	2.42948042E+1	5.00000000E+0	5.78195708E+0	-6.31000000E+2	4.45761368E-1
268	02/09/2022	17:24:42.433	0.00000000E+0	2.45045761E+1	5.00000000E+0	6.18922898E+0	-6.30000000E+2	4.50898442E-1
269	02/09/2022	17:24:43.813	0.00000000E+0	2.47139645E+1	5.00000000E+0	1.94278667E+0	-6.30000000E+2	4.39351526E-1
270	02/09/2022	17:24:45.195	0.00000000E+0	2.49233529E+1	5.00000000E+0	2.79913144E+0	-6.31000000E+2	4.63692844E-1
271	02/09/2022	17:24:46.723	0.00000000E+0	2.51327412E+1	5.00000000E+0	5.65808814E+0	-6.30000000E+2	4.64505936E-1
272	02/09/2022	17:24:48.098	0.00000000E+0	2.53421296E+1	5.00000000E+0	4.10109764E+0	-6.30000000E+2	4.66159913E-1
273	02/09/2022	17:24:49.678	0.00000000E+0	2.55515180E+1	5.00000000E+0	3.76515584E+0	-6.30000000E+2	4.72646465E-1
274	02/09/2022	17:24:51.076	0.00000000E+0	2.57609064E+1	5.00000000E+0	4.72312685E+0	-6.31000000E+2	4.71319877E-1
275	02/09/2022	17:24:52.471	0.00000000E+0	2.59706782E+1	5.00000000E+0	5.15839389E+0	-6.30000000E+2	4.73187626E-1
276	02/09/2022	17:24:53.976	0.00000000E+0	2.61800666E+1	5.00000000E+0	4.51028701E+0	-6.30000000E+2	4.71824283E-1
277	02/09/2022	17:24:55.352	0.00000000E+0	2.63894550E+1	5.00000000E+0	3.49402474E+0	-6.30000000E+2	4.73217703E-1
278	02/09/2022	17:24:56.743	0.00000000E+0	2.65988434E+1	5.00000000E+0	2.37767022E-1	-6.30000000E+2	4.61729209E-1
279	02/09/2022	17:24:58.185	0.00000000E+0	2.68082317E+1	5.00000000E+0	2.37536925E+0	-6.30000000E+2	4.59579454E-1
280	02/09/2022	17:24:59.563	0.00000000E+0	2.70176201E+1	5.00000000E+0	4.09074327E+0	-6.31000000E+2	4.56968672E-1
281	02/09/2022	17:25:01.036	0.00000000E+0	2.72270085E+1	5.00000000E+0	1.63445653E+0	-6.30000000E+2	4.60900809E-1
282	02/09/2022	17:25:02.439	0.00000000E+0	2.74363969E+1	5.00000000E+0	4.42553457E+0	-6.31000000E+2	4.46631096E-1
283	02/09/2022	17:25:03.816	0.00000000E+0	2.76461687E+1	5.00000000E+0	8.17228265E-1	-6.30000000E+2	4.44640017E-1
284	02/09/2022	17:25:05.289	0.00000000E+0	2.78555571E+1	5.00000000E+0	5.94225808E+0	-6.30000000E+2	4.36752170E-1
285	02/09/2022	17:25:06.673	0.00000000E+0	2.80649455E+1	5.00000000E+0	7.81563211E-1	-6.30000000E+2	4.33537522E-1
286	02/09/2022	17:25:08.217	0.00000000E+0	2.82743339E+1	5.00000000E+0	4.89915114E+0	-6.30000000E+2	4.28487330E-1
287	02/09/2022	17:25:09.635	0.00000000E+0	2.84837223E+1	5.00000000E+0	1.89676724E+0	-6.30000000E+2	4.22716377E-1
288	02/09/2022	17:25:11.000	0.00000000E+0	2.86931106E+1	5.00000000E+0	4.87537444E+0	-6.30000000E+2	4.31553186E-1
289	02/09/2022	17:25:12.549	0.00000000E+0	2.89024990E+1	5.00000000E+0	5.61475318E+0	-6.30000000E+2	4.22793575E-1
290	02/09/2022	17:25:13.944	0.00000000E+0	2.91122709E+1	5.00000000E+0	1.62525264E+0	-6.30000000E+2	4.25426471E-1
291	02/09/2022	17:25:15.352	0.00000000E+0	2.93216593E+1	5.00000000E+0	4.71622393E+0	-6.31000000E+2	4.27657723E-1
292	02/09/2022	17:25:16.861	0.00000000E+0	2.95310476E+1	5.00000000E+0	6.02854450E+0	-6.31000000E+2	4.29230532E-1
293	02/09/2022	17:25:18.255	0.00000000E+0	2.97404360E+1	5.00000000E+0	3.86716557E+0	-6.30000000E+2	4.36079772E-1
294	02/09/2022	17:25:19.723	0.00000000E+0	2.99498244E+1	5.00000000E+0	5.74053960E+0	-6.31000000E+2	4.28890398E-1
295	02/09/2022	17:25:21.132	0.00000000E+0	3.01592128E+1	5.00000000E+0	2.23079156E+0	-6.30000000E+2	4.41811681E-1
296	02/09/2022	17:25:22.530	0.00000000E+0	3.03686012E+1	5.00000000E+0	5.82145709E+0	-6.30000000E+2	4.38801924E-1
297	02/09/2022	17:25:24.071	0.00000000E+0	3.05779895E+1	5.00000000E+0	6.17619015E+0	-6.31000000E+2	4.44949201E-1
298	02/09/2022	17:25:25.454	0.00000000E+0	3.07877614E+1	5.00000000E+0	9.85582656E-1	-6.29000000E+2	4.52662854E-1
299	02/09/2022	17:25:26.941	0.00000000E+0	3.09971498E+1	5.00000000E+0	3.72450535E+0	-6.31000000E+2	4.56454569E-1
300	02/09/2022	17:25:28.447	0.00000000E+0	3.12065382E+1	5.00000000E+0	3.16191790E+0	-6.31000000E+2	4.56160928E-1
301	02/09/2022	17:25:29.848	0.00000000E+0	3.14159265E+1	5.00000000E+0	2.39492751E+0	-6.30000000E+2	4.63087145E-1
