#Iteration	Date	Time	STSX	STSY	RotationRateX	RotationRateY	FrCntX	FrCntY	TiptiltCmd1	TiptiltCmd2	TiptiltMonitor1	TiptiltMonitor2
1	15/03/2023	18:25:09.321	0.00000E+0	0.00000E+0	1.67574E-1	4.24667E-2	0.00000E+0	0.00000E+0	2.12539E+1	1.36994E+1	2.12513E+1	1.36985E+1
2	15/03/2023	18:25:10.800	0.00000E+0	0.00000E+0	1.84175E-1	2.82204E-1	0.00000E+0	0.00000E+0	2.12513E+1	1.36986E+1	2.12521E+1	1.37016E+1
3	15/03/2023	18:25:12.208	0.00000E+0	0.00000E+0	-6.35694E-1	4.78085E-1	0.00000E+0	0.00000E+0	2.12547E+1	1.37007E+1	2.12527E+1	1.37008E+1
4	15/03/2023	18:25:13.722	0.00000E+0	0.00000E+0	1.49461E+2	1.04809E+0	0.00000E+0	0.00000E+0	2.34446E+1	1.15793E+1	2.34433E+1	1.15797E+1
5	15/03/2023	18:25:15.211	0.00000E+0	0.00000E+0	-1.51719E+2	-7.16107E-1	0.00000E+0	0.00000E+0	1.91608E+1	1.57715E+1	1.91582E+1	1.57721E+1
6	15/03/2023	18:25:16.699	0.00000E+0	0.00000E+0	-1.48301E+2	-1.19243E+0	0.00000E+0	0.00000E+0	1.91208E+1	1.58339E+1	1.91189E+1	1.58320E+1
7	15/03/2023	18:25:18.152	0.00000E+0	0.00000E+0	1.56980E+2	2.88308E+0	0.00000E+0	0.00000E+0	2.34631E+1	1.15554E+1	2.34661E+1	1.15544E+1
8	15/03/2023	18:25:19.631	0.00000E+0	0.00000E+0	1.67049E+2	1.17117E+0	0.00000E+0	0.00000E+0	2.36907E+1	1.13213E+1	2.36920E+1	1.13214E+1
9	15/03/2023	18:25:21.120	0.00000E+0	0.00000E+0	-1.43710E+2	-2.12178E+0	0.00000E+0	0.00000E+0	1.92669E+1	1.56769E+1	1.92672E+1	1.56748E+1
10	15/03/2023	18:25:22.605	0.00000E+0	0.00000E+0	-1.29117E+2	3.69614E-2	0.00000E+0	0.00000E+0	1.93320E+1	1.55729E+1	1.93331E+1	1.55742E+1
11	15/03/2023	18:25:24.078	0.00000E+0	0.00000E+0	1.48329E+2	1.82571E+0	0.00000E+0	0.00000E+0	2.33526E+1	1.16409E+1	2.33526E+1	1.16438E+1
12	15/03/2023	18:25:25.608	0.00000E+0	0.00000E+0	7.79423E+1	5.50906E-1	0.00000E+0	0.00000E+0	2.23341E+1	1.25886E+1	2.23347E+1	1.25887E+1
13	15/03/2023	18:25:27.078	0.00000E+0	0.00000E+0	-1.16027E+2	-2.56071E+0	0.00000E+0	0.00000E+0	1.96933E+1	1.52610E+1	1.96936E+1	1.52590E+1
14	15/03/2023	18:25:28.565	0.00000E+0	0.00000E+0	-1.47503E+2	-8.39382E-1	0.00000E+0	0.00000E+0	1.91193E+1	1.57957E+1	1.91193E+1	1.57973E+1
15	15/03/2023	18:25:30.036	0.00000E+0	0.00000E+0	9.56884E+1	8.46664E-1	0.00000E+0	0.00000E+0	2.25243E+1	1.25048E+1	2.25234E+1	1.25060E+1
16	15/03/2023	18:25:31.513	0.00000E+0	0.00000E+0	1.90631E+2	3.23003E-2	0.00000E+0	0.00000E+0	2.40020E+1	1.10128E+1	2.40032E+1	1.10102E+1
17	15/03/2023	18:25:33.032	0.00000E+0	0.00000E+0	-1.56368E+2	-8.37998E-1	0.00000E+0	0.00000E+0	1.90548E+1	1.58284E+1	1.90547E+1	1.58305E+1
18	15/03/2023	18:25:34.497	0.00000E+0	0.00000E+0	-1.26353E+2	-9.25267E-1	0.00000E+0	0.00000E+0	1.93690E+1	1.55553E+1	1.93650E+1	1.55547E+1
19	15/03/2023	18:25:35.961	0.00000E+0	0.00000E+0	1.70554E+2	1.11750E+0	0.00000E+0	0.00000E+0	2.36278E+1	1.13431E+1	2.36278E+1	1.13435E+1
20	15/03/2023	18:25:37.460	0.00000E+0	0.00000E+0	1.18271E+2	1.86514E+0	0.00000E+0	0.00000E+0	2.30545E+1	1.19409E+1	2.30535E+1	1.19420E+1
21	15/03/2023	18:25:38.941	0.00000E+0	0.00000E+0	-1.72486E+2	-1.59557E+0	0.00000E+0	0.00000E+0	1.88349E+1	1.60979E+1	1.88333E+1	1.60986E+1
22	15/03/2023	18:25:40.444	0.00000E+0	0.00000E+0	-9.03357E+1	-1.57299E+0	0.00000E+0	0.00000E+0	1.98065E+1	1.51030E+1	1.98060E+1	1.51014E+1
23	15/03/2023	18:25:41.923	0.00000E+0	0.00000E+0	1.74736E+2	2.35718E+0	0.00000E+0	0.00000E+0	2.37030E+1	1.12930E+1	2.37039E+1	1.12922E+1
24	15/03/2023	18:25:43.397	0.00000E+0	0.00000E+0	1.04816E+2	1.37594E+0	0.00000E+0	0.00000E+0	2.28808E+1	1.21190E+1	2.28797E+1	1.21194E+1
25	15/03/2023	18:25:44.897	0.00000E+0	0.00000E+0	-2.27532E+2	-8.79105E-1	0.00000E+0	0.00000E+0	1.80838E+1	1.68497E+1	1.80844E+1	1.68481E+1
26	15/03/2023	18:25:46.377	0.00000E+0	0.00000E+0	-7.93256E+0	2.56659E-1	0.00000E+0	0.00000E+0	2.09468E+1	1.39928E+1	2.09464E+1	1.39945E+1
27	15/03/2023	18:25:47.827	0.00000E+0	0.00000E+0	2.00929E+2	7.53770E-1	0.00000E+0	0.00000E+0	2.41083E+1	1.08899E+1	2.41065E+1	1.08897E+1
28	15/03/2023	18:25:49.319	0.00000E+0	0.00000E+0	9.20613E-1	-9.31027E-1	0.00000E+0	0.00000E+0	2.14446E+1	1.34956E+1	2.14441E+1	1.34964E+1
29	15/03/2023	18:25:50.821	0.00000E+0	0.00000E+0	-1.38625E+2	5.28173E-1	0.00000E+0	0.00000E+0	1.91909E+1	1.57153E+1	1.91909E+1	1.57155E+1
30	15/03/2023	18:25:52.288	0.00000E+0	0.00000E+0	6.20417E+1	1.86090E+0	0.00000E+0	0.00000E+0	2.21086E+1	1.28283E+1	2.21108E+1	1.28274E+1
31	15/03/2023	18:25:53.762	0.00000E+0	0.00000E+0	1.39581E+2	8.27496E-1	0.00000E+0	0.00000E+0	2.32529E+1	1.17481E+1	2.32529E+1	1.17470E+1
32	15/03/2023	18:25:55.257	0.00000E+0	0.00000E+0	-5.97749E+1	1.38951E+0	0.00000E+0	0.00000E+0	2.04993E+1	1.44209E+1	2.04989E+1	1.44211E+1
33	15/03/2023	18:25:56.795	0.00000E+0	0.00000E+0	-7.42946E+1	-1.51631E+0	0.00000E+0	0.00000E+0	2.01378E+1	1.47924E+1	2.01377E+1	1.47945E+1
34	15/03/2023	18:25:58.274	0.00000E+0	0.00000E+0	9.19092E+1	1.03421E+0	0.00000E+0	0.00000E+0	2.25424E+1	1.24523E+1	2.25438E+1	1.24524E+1
35	15/03/2023	18:25:59.768	0.00000E+0	0.00000E+0	6.91730E+1	1.25485E+0	0.00000E+0	0.00000E+0	2.24299E+1	1.25622E+1	2.24298E+1	1.25616E+1
36	15/03/2023	18:26:01.220	0.00000E+0	0.00000E+0	-2.01610E+2	-2.18904E+0	0.00000E+0	0.00000E+0	1.84235E+1	1.64160E+1	1.84235E+1	1.64177E+1
37	15/03/2023	18:26:02.682	0.00000E+0	0.00000E+0	-7.58375E+1	-8.27872E-1	0.00000E+0	0.00000E+0	2.00969E+1	1.48188E+1	2.00966E+1	1.48181E+1
38	15/03/2023	18:26:04.161	0.00000E+0	0.00000E+0	1.64363E+2	1.27956E+0	0.00000E+0	0.00000E+0	2.36163E+1	1.13523E+1	2.36179E+1	1.13510E+1
39	15/03/2023	18:26:05.638	0.00000E+0	0.00000E+0	3.32027E+1	8.67402E-1	0.00000E+0	0.00000E+0	2.19323E+1	1.30403E+1	2.19353E+1	1.30381E+1
40	15/03/2023	18:26:07.120	0.00000E+0	0.00000E+0	-1.58681E+2	3.87868E-1	0.00000E+0	0.00000E+0	1.89957E+1	1.58828E+1	1.89976E+1	1.58828E+1
41	15/03/2023	18:26:08.628	0.00000E+0	0.00000E+0	-6.68931E+1	-4.80613E-1	0.00000E+0	0.00000E+0	2.01261E+1	1.48151E+1	2.01254E+1	1.48131E+1
42	15/03/2023	18:26:10.102	0.00000E+0	0.00000E+0	1.37119E+2	1.50936E+0	0.00000E+0	0.00000E+0	2.31701E+1	1.17935E+1	2.31698E+1	1.17920E+1
43	15/03/2023	18:26:11.600	0.00000E+0	0.00000E+0	1.49559E+2	8.81439E-1	0.00000E+0	0.00000E+0	2.34546E+1	1.15748E+1	2.34542E+1	1.15763E+1
44	15/03/2023	18:26:13.104	0.00000E+0	0.00000E+0	-1.36315E+2	-1.55402E+0	0.00000E+0	0.00000E+0	1.92620E+1	1.56812E+1	1.92631E+1	1.56812E+1
45	15/03/2023	18:26:14.586	0.00000E+0	0.00000E+0	-1.43656E+2	-2.59536E+0	0.00000E+0	0.00000E+0	1.90863E+1	1.57699E+1	1.90844E+1	1.57666E+1
46	15/03/2023	18:26:16.079	0.00000E+0	0.00000E+0	1.36692E+2	1.45968E+0	0.00000E+0	0.00000E+0	2.31462E+1	1.18135E+1	2.31470E+1	1.18098E+1
47	15/03/2023	18:26:17.544	0.00000E+0	0.00000E+0	1.44438E+2	-2.69681E-1	0.00000E+0	0.00000E+0	2.33556E+1	1.16042E+1	2.33575E+1	1.16046E+1
48	15/03/2023	18:26:19.038	0.00000E+0	0.00000E+0	-1.10245E+2	-1.06587E+0	0.00000E+0	0.00000E+0	1.97513E+1	1.51502E+1	1.97503E+1	1.51511E+1
49	15/03/2023	18:26:20.547	0.00000E+0	0.00000E+0	-1.37821E+2	-2.46119E-1	0.00000E+0	0.00000E+0	1.92438E+1	1.57161E+1	1.92454E+1	1.57162E+1
50	15/03/2023	18:26:22.082	0.00000E+0	0.00000E+0	1.17478E+2	6.57367E-1	0.00000E+0	0.00000E+0	2.28325E+1	1.21424E+1	2.28327E+1	1.21430E+1
51	15/03/2023	18:26:23.580	0.00000E+0	0.00000E+0	1.48208E+2	1.36726E+0	0.00000E+0	0.00000E+0	2.33452E+1	1.15948E+1	2.33443E+1	1.15951E+1
52	15/03/2023	18:26:25.040	0.00000E+0	0.00000E+0	-8.80576E+1	-1.96866E+0	0.00000E+0	0.00000E+0	2.00957E+1	1.48435E+1	2.00940E+1	1.48428E+1
53	15/03/2023	18:26:26.513	0.00000E+0	0.00000E+0	-1.60221E+2	-2.68692E+0	0.00000E+0	0.00000E+0	1.89006E+1	1.59545E+1	1.88999E+1	1.59564E+1
54	15/03/2023	18:26:28.030	0.00000E+0	0.00000E+0	5.01764E+1	-1.85896E+0	0.00000E+0	0.00000E+0	2.19099E+1	1.30801E+1	2.19085E+1	1.30801E+1
55	15/03/2023	18:26:29.523	0.00000E+0	0.00000E+0	1.41857E+2	6.44379E-1	0.00000E+0	0.00000E+0	2.32567E+1	1.17119E+1	2.32562E+1	1.17083E+1
56	15/03/2023	18:26:31.034	0.00000E+0	0.00000E+0	2.50663E+0	-9.25353E-1	0.00000E+0	0.00000E+0	2.14573E+1	1.35282E+1	2.14559E+1	1.35280E+1
57	15/03/2023	18:26:32.500	0.00000E+0	0.00000E+0	-1.28740E+2	2.09918E-1	0.00000E+0	0.00000E+0	1.94491E+1	1.54916E+1	1.94499E+1	1.54903E+1
58	15/03/2023	18:26:33.970	0.00000E+0	0.00000E+0	-5.97258E+1	-2.57701E-1	0.00000E+0	0.00000E+0	2.03052E+1	1.46517E+1	2.03040E+1	1.46515E+1
59	15/03/2023	18:26:35.459	0.00000E+0	0.00000E+0	1.47538E+2	3.97077E-1	0.00000E+0	0.00000E+0	2.32876E+1	1.17022E+1	2.32846E+1	1.17019E+1
60	15/03/2023	18:26:36.934	0.00000E+0	0.00000E+0	3.66687E+1	9.63061E-1	0.00000E+0	0.00000E+0	2.19419E+1	1.29898E+1	2.19432E+1	1.29884E+1
61	15/03/2023	18:26:38.401	0.00000E+0	0.00000E+0	-1.61409E+2	5.04090E-1	0.00000E+0	0.00000E+0	1.89627E+1	1.59918E+1	1.89641E+1	1.59915E+1
62	15/03/2023	18:26:39.881	0.00000E+0	0.00000E+0	-9.35435E+1	-1.74441E-1	0.00000E+0	0.00000E+0	1.98695E+1	1.50695E+1	1.98711E+1	1.50707E+1
63	15/03/2023	18:26:41.359	0.00000E+0	0.00000E+0	1.14577E+2	-3.64090E-1	0.00000E+0	0.00000E+0	2.28770E+1	1.20965E+1	2.28787E+1	1.20963E+1
64	15/03/2023	18:26:42.855	0.00000E+0	0.00000E+0	1.35524E+2	-3.85377E-1	0.00000E+0	0.00000E+0	2.31935E+1	1.17842E+1	2.31915E+1	1.17861E+1
65	15/03/2023	18:26:44.322	0.00000E+0	0.00000E+0	-1.24682E+2	-1.08332E+0	0.00000E+0	0.00000E+0	1.95409E+1	1.53682E+1	1.95400E+1	1.53668E+1
66	15/03/2023	18:26:45.762	0.00000E+0	0.00000E+0	-1.37820E+2	-9.55623E-1	0.00000E+0	0.00000E+0	1.92542E+1	1.56994E+1	1.92527E+1	1.57011E+1
67	15/03/2023	18:26:47.252	0.00000E+0	0.00000E+0	8.97684E+1	8.76247E-1	0.00000E+0	0.00000E+0	2.24363E+1	1.25890E+1	2.24358E+1	1.25884E+1
68	15/03/2023	18:26:48.710	0.00000E+0	0.00000E+0	1.87695E+2	8.06809E-1	0.00000E+0	0.00000E+0	2.39687E+1	1.10314E+1	2.39676E+1	1.10307E+1
69	15/03/2023	18:26:50.180	0.00000E+0	0.00000E+0	-8.77803E+1	-6.22168E-1	0.00000E+0	0.00000E+0	2.01451E+1	1.48231E+1	2.01464E+1	1.48225E+1
70	15/03/2023	18:26:51.655	0.00000E+0	0.00000E+0	-1.67258E+2	-1.51914E+0	0.00000E+0	0.00000E+0	1.88044E+1	1.60557E+1	1.88056E+1	1.60550E+1
71	15/03/2023	18:26:53.125	0.00000E+0	0.00000E+0	1.97724E+1	4.23012E-1	0.00000E+0	0.00000E+0	2.13788E+1	1.35709E+1	2.13791E+1	1.35714E+1
72	15/03/2023	18:26:54.625	0.00000E+0	0.00000E+0	1.48109E+2	8.32855E-1	0.00000E+0	0.00000E+0	2.33703E+1	1.16499E+1	2.33700E+1	1.16491E+1
73	15/03/2023	18:26:56.083	0.00000E+0	0.00000E+0	8.04483E+1	2.71247E-1	0.00000E+0	0.00000E+0	2.25583E+1	1.23495E+1	2.25567E+1	1.23494E+1
74	15/03/2023	18:26:57.569	0.00000E+0	0.00000E+0	-1.43734E+2	-1.81629E+0	0.00000E+0	0.00000E+0	1.92507E+1	1.56823E+1	1.92512E+1	1.56831E+1
75	15/03/2023	18:26:59.078	0.00000E+0	0.00000E+0	-1.30703E+2	-1.59966E-1	0.00000E+0	0.00000E+0	1.93166E+1	1.55995E+1	1.93140E+1	1.55980E+1
76	15/03/2023	18:27:00.548	0.00000E+0	0.00000E+0	1.49431E+2	1.49076E+0	0.00000E+0	0.00000E+0	2.33706E+1	1.16226E+1	2.33709E+1	1.16233E+1
77	15/03/2023	18:27:02.041	0.00000E+0	0.00000E+0	1.41484E+2	1.48209E+0	0.00000E+0	0.00000E+0	2.33605E+1	1.16371E+1	2.33621E+1	1.16412E+1
78	15/03/2023	18:27:03.531	0.00000E+0	0.00000E+0	-1.33201E+2	4.63270E+0	0.00000E+0	0.00000E+0	1.93536E+1	1.55786E+1	1.93543E+1	1.55785E+1
79	15/03/2023	18:27:05.030	0.00000E+0	0.00000E+0	-1.40616E+2	-1.08402E+0	0.00000E+0	0.00000E+0	1.92247E+1	1.57455E+1	1.92253E+1	1.57441E+1
80	15/03/2023	18:27:06.540	0.00000E+0	0.00000E+0	1.29015E+2	6.02663E-1	0.00000E+0	0.00000E+0	2.29329E+1	1.19928E+1	2.29330E+1	1.19927E+1
81	15/03/2023	18:27:07.984	0.00000E+0	0.00000E+0	1.59592E+2	8.59864E-1	0.00000E+0	0.00000E+0	2.35158E+1	1.14454E+1	2.35146E+1	1.14438E+1
82	15/03/2023	18:27:09.458	0.00000E+0	0.00000E+0	-8.51338E+1	9.18695E-1	0.00000E+0	0.00000E+0	2.01529E+1	1.48246E+1	2.01529E+1	1.48258E+1
83	15/03/2023	18:27:10.986	0.00000E+0	0.00000E+0	-1.53220E+2	-1.81257E+0	0.00000E+0	0.00000E+0	1.90614E+1	1.58824E+1	1.90614E+1	1.58825E+1
84	15/03/2023	18:27:12.466	0.00000E+0	0.00000E+0	1.98791E+1	-7.91735E-1	0.00000E+0	0.00000E+0	2.13392E+1	1.36220E+1	2.13390E+1	1.36211E+1
85	15/03/2023	18:27:13.955	0.00000E+0	0.00000E+0	1.42672E+2	5.47883E-1	0.00000E+0	0.00000E+0	2.32488E+1	1.17035E+1	2.32477E+1	1.17040E+1
86	15/03/2023	18:27:15.416	0.00000E+0	0.00000E+0	7.88866E+1	2.29989E-1	0.00000E+0	0.00000E+0	2.25560E+1	1.24467E+1	2.25560E+1	1.24483E+1
87	15/03/2023	18:27:16.890	0.00000E+0	0.00000E+0	-1.20081E+2	-3.76842E-2	0.00000E+0	0.00000E+0	1.95915E+1	1.53982E+1	1.95915E+1	1.53972E+1
88	15/03/2023	18:27:18.381	0.00000E+0	0.00000E+0	-1.28417E+2	1.05470E+0	0.00000E+0	0.00000E+0	1.93790E+1	1.55289E+1	1.93783E+1	1.55286E+1
89	15/03/2023	18:27:19.834	0.00000E+0	0.00000E+0	7.35772E+1	-8.82496E-1	0.00000E+0	0.00000E+0	2.21729E+1	1.27845E+1	2.21746E+1	1.27848E+1
90	15/03/2023	18:27:21.318	0.00000E+0	0.00000E+0	1.82876E+2	1.46300E+0	0.00000E+0	0.00000E+0	2.37962E+1	1.11674E+1	2.37977E+1	1.11672E+1
91	15/03/2023	18:27:22.793	0.00000E+0	0.00000E+0	-2.63030E+1	1.73710E-1	0.00000E+0	0.00000E+0	2.09766E+1	1.39792E+1	2.09758E+1	1.39797E+1
92	15/03/2023	18:27:24.261	0.00000E+0	0.00000E+0	-1.64800E+2	-3.27559E-1	0.00000E+0	0.00000E+0	1.89409E+1	1.59875E+1	1.89381E+1	1.59897E+1
93	15/03/2023	18:27:25.751	0.00000E+0	0.00000E+0	-5.05730E+1	-8.39167E-1	0.00000E+0	0.00000E+0	2.03549E+1	1.45964E+1	2.03570E+1	1.45958E+1
94	15/03/2023	18:27:27.216	0.00000E+0	0.00000E+0	1.67075E+2	-8.62249E-2	0.00000E+0	0.00000E+0	2.36233E+1	1.13747E+1	2.36242E+1	1.13736E+1
95	15/03/2023	18:27:28.672	0.00000E+0	0.00000E+0	1.17653E+2	9.87920E-1	0.00000E+0	0.00000E+0	2.30965E+1	1.19125E+1	2.30944E+1	1.19121E+1
96	15/03/2023	18:27:30.158	0.00000E+0	0.00000E+0	-1.51269E+2	-4.10571E+0	0.00000E+0	0.00000E+0	1.91692E+1	1.58378E+1	1.91688E+1	1.58376E+1
97	15/03/2023	18:27:31.608	0.00000E+0	0.00000E+0	-1.36049E+2	-9.56236E-1	0.00000E+0	0.00000E+0	1.92807E+1	1.56226E+1	1.92795E+1	1.56236E+1
98	15/03/2023	18:27:33.077	0.00000E+0	0.00000E+0	1.07156E+2	1.13500E+0	0.00000E+0	0.00000E+0	2.27308E+1	1.22744E+1	2.27349E+1	1.22736E+1
99	15/03/2023	18:27:34.550	0.00000E+0	0.00000E+0	1.63309E+2	-7.96204E-1	0.00000E+0	0.00000E+0	2.35767E+1	1.14304E+1	2.35787E+1	1.14314E+1
100	15/03/2023	18:27:36.014	0.00000E+0	0.00000E+0	-5.99780E+1	-1.02208E+0	0.00000E+0	0.00000E+0	2.04880E+1	1.44755E+1	2.04905E+1	1.44768E+1
101	15/03/2023	18:27:37.500	0.00000E+0	0.00000E+0	-1.54079E+2	-2.13428E+0	0.00000E+0	0.00000E+0	1.90914E+1	1.58512E+1	1.90908E+1	1.58506E+1
102	15/03/2023	18:27:38.961	0.00000E+0	0.00000E+0	-3.94572E+1	-9.92998E-1	0.00000E+0	0.00000E+0	2.05283E+1	1.44453E+1	2.05280E+1	1.44453E+1
103	15/03/2023	18:27:40.425	0.00000E+0	0.00000E+0	1.35739E+2	6.89416E-1	0.00000E+0	0.00000E+0	2.31501E+1	1.18193E+1	2.31522E+1	1.18198E+1
104	15/03/2023	18:27:41.949	0.00000E+0	0.00000E+0	1.43501E+2	9.13677E-1	0.00000E+0	0.00000E+0	2.33784E+1	1.15898E+1	2.33760E+1	1.15883E+1
105	15/03/2023	18:27:43.421	0.00000E+0	0.00000E+0	-1.19116E+2	-3.41243E+0	0.00000E+0	0.00000E+0	1.95959E+1	1.53362E+1	1.95985E+1	1.53344E+1
106	15/03/2023	18:27:44.935	0.00000E+0	0.00000E+0	-1.54078E+2	4.98168E-1	0.00000E+0	0.00000E+0	1.90597E+1	1.58531E+1	1.90601E+1	1.58525E+1
107	15/03/2023	18:27:46.396	0.00000E+0	0.00000E+0	6.87685E+1	1.02662E+0	0.00000E+0	0.00000E+0	2.21209E+1	1.28340E+1	2.21208E+1	1.28335E+1
108	15/03/2023	18:27:47.890	0.00000E+0	0.00000E+0	1.99909E+2	1.12078E+0	0.00000E+0	0.00000E+0	2.40608E+1	1.09339E+1	2.40605E+1	1.09369E+1
109	15/03/2023	18:27:49.377	0.00000E+0	0.00000E+0	-4.13186E+1	-1.98061E+0	0.00000E+0	0.00000E+0	2.07997E+1	1.41436E+1	2.08009E+1	1.41422E+1
110	15/03/2023	18:27:50.833	0.00000E+0	0.00000E+0	-1.67804E+2	-4.93206E-1	0.00000E+0	0.00000E+0	1.88790E+1	1.60110E+1	1.88804E+1	1.60096E+1
111	15/03/2023	18:27:52.320	0.00000E+0	0.00000E+0	-1.00999E+2	-1.09278E+0	0.00000E+0	0.00000E+0	1.97619E+1	1.52031E+1	1.97606E+1	1.52028E+1
112	15/03/2023	18:27:53.776	0.00000E+0	0.00000E+0	1.26647E+2	3.79467E-1	0.00000E+0	0.00000E+0	2.29978E+1	1.19953E+1	2.29952E+1	1.19957E+1
113	15/03/2023	18:27:55.241	0.00000E+0	0.00000E+0	1.77456E+2	-1.37223E+0	0.00000E+0	0.00000E+0	2.37913E+1	1.12032E+1	2.37917E+1	1.12044E+1
114	15/03/2023	18:27:56.760	0.00000E+0	0.00000E+0	-3.44138E+1	1.52739E+0	0.00000E+0	0.00000E+0	2.08332E+1	1.41192E+1	2.08362E+1	1.41194E+1
115	15/03/2023	18:27:58.244	0.00000E+0	0.00000E+0	-1.56491E+2	-2.16726E-1	0.00000E+0	0.00000E+0	1.89741E+1	1.59536E+1	1.89745E+1	1.59559E+1
116	15/03/2023	18:27:59.695	0.00000E+0	0.00000E+0	-1.27917E+2	-1.13442E+0	0.00000E+0	0.00000E+0	1.94011E+1	1.55445E+1	1.94015E+1	1.55437E+1
117	15/03/2023	18:28:01.173	0.00000E+0	0.00000E+0	1.26268E+2	1.36200E+0	0.00000E+0	0.00000E+0	2.29244E+1	1.20096E+1	2.29244E+1	1.20090E+1
118	15/03/2023	18:28:02.621	0.00000E+0	0.00000E+0	1.84294E+2	1.51910E+0	0.00000E+0	0.00000E+0	2.38624E+1	1.11106E+1	2.38621E+1	1.11112E+1
119	15/03/2023	18:28:04.097	0.00000E+0	0.00000E+0	-1.14987E+2	-3.19676E-1	0.00000E+0	0.00000E+0	1.97010E+1	1.52272E+1	1.96996E+1	1.52285E+1
120	15/03/2023	18:28:05.545	0.00000E+0	0.00000E+0	-1.58487E+2	-2.25365E+0	0.00000E+0	0.00000E+0	1.89570E+1	1.59343E+1	1.89544E+1	1.59332E+1
121	15/03/2023	18:28:07.008	0.00000E+0	0.00000E+0	4.03305E+1	2.97117E-2	0.00000E+0	0.00000E+0	2.17266E+1	1.31775E+1	2.17240E+1	1.31772E+1
122	15/03/2023	18:28:08.507	0.00000E+0	0.00000E+0	1.63461E+2	9.08995E-1	0.00000E+0	0.00000E+0	2.35818E+1	1.14253E+1	2.35829E+1	1.14256E+1
123	15/03/2023	18:28:10.013	0.00000E+0	0.00000E+0	5.09078E+1	6.10890E-1	0.00000E+0	0.00000E+0	2.20922E+1	1.28606E+1	2.20912E+1	1.28585E+1
124	15/03/2023	18:28:11.468	0.00000E+0	0.00000E+0	-1.53569E+2	-1.93984E-1	0.00000E+0	0.00000E+0	1.91426E+1	1.58309E+1	1.91419E+1	1.58296E+1
125	15/03/2023	18:28:12.923	0.00000E+0	0.00000E+0	-1.29190E+2	1.74385E-1	0.00000E+0	0.00000E+0	1.93623E+1	1.55350E+1	1.93634E+1	1.55326E+1
126	15/03/2023	18:28:14.405	0.00000E+0	0.00000E+0	9.53207E+1	-4.02772E-1	0.00000E+0	0.00000E+0	2.25814E+1	1.24255E+1	2.25830E+1	1.24268E+1
127	15/03/2023	18:28:15.893	0.00000E+0	0.00000E+0	1.82594E+2	-1.12803E+0	0.00000E+0	0.00000E+0	2.38766E+1	1.10615E+1	2.38760E+1	1.10625E+1
128	15/03/2023	18:28:17.354	0.00000E+0	0.00000E+0	-6.48669E+1	-3.98442E-1	0.00000E+0	0.00000E+0	2.03667E+1	1.45377E+1	2.03648E+1	1.45367E+1
129	15/03/2023	18:28:18.830	0.00000E+0	0.00000E+0	-1.54628E+2	-1.78722E+0	0.00000E+0	0.00000E+0	1.90723E+1	1.58523E+1	1.90719E+1	1.58535E+1
130	15/03/2023	18:28:20.329	0.00000E+0	0.00000E+0	-4.65100E+1	7.95425E-1	0.00000E+0	0.00000E+0	2.04165E+1	1.45118E+1	2.04175E+1	1.45143E+1
131	15/03/2023	18:28:21.806	0.00000E+0	0.00000E+0	1.56627E+2	9.30609E-2	0.00000E+0	0.00000E+0	2.34533E+1	1.15361E+1	2.34536E+1	1.15361E+1
132	15/03/2023	18:28:23.295	0.00000E+0	0.00000E+0	9.47021E+1	6.39619E-1	0.00000E+0	0.00000E+0	2.27290E+1	1.22634E+1	2.27305E+1	1.22622E+1
133	15/03/2023	18:28:24.753	0.00000E+0	0.00000E+0	-1.07663E+2	1.40668E+0	0.00000E+0	0.00000E+0	1.97077E+1	1.51474E+1	1.97087E+1	1.51500E+1
134	15/03/2023	18:28:26.243	0.00000E+0	0.00000E+0	-1.40495E+2	-1.51319E+0	0.00000E+0	0.00000E+0	1.92132E+1	1.57222E+1	1.92125E+1	1.57242E+1
135	15/03/2023	18:28:27.730	0.00000E+0	0.00000E+0	6.42062E+1	2.06053E+0	0.00000E+0	0.00000E+0	2.20868E+1	1.28518E+1	2.20868E+1	1.28534E+1
136	15/03/2023	18:28:29.166	0.00000E+0	0.00000E+0	1.46686E+2	8.94932E-1	0.00000E+0	0.00000E+0	2.33317E+1	1.16630E+1	2.33277E+1	1.16631E+1
137	15/03/2023	18:28:30.613	0.00000E+0	0.00000E+0	-1.51290E+1	4.06139E-2	0.00000E+0	0.00000E+0	2.11166E+1	1.38043E+1	2.11200E+1	1.38045E+1
138	15/03/2023	18:28:32.077	0.00000E+0	0.00000E+0	-1.60659E+2	-4.94395E-1	0.00000E+0	0.00000E+0	1.89972E+1	1.59277E+1	1.89977E+1	1.59275E+1
139	15/03/2023	18:28:33.577	0.00000E+0	0.00000E+0	-2.08770E+1	1.04671E+0	0.00000E+0	0.00000E+0	2.07807E+1	1.41519E+1	2.07794E+1	1.41516E+1
140	15/03/2023	18:28:35.056	0.00000E+0	0.00000E+0	1.45333E+2	6.02776E-1	0.00000E+0	0.00000E+0	2.33271E+1	1.16693E+1	2.33256E+1	1.16697E+1
141	15/03/2023	18:28:36.599	0.00000E+0	0.00000E+0	5.50146E+1	-1.60665E-1	0.00000E+0	0.00000E+0	2.21667E+1	1.28096E+1	2.21632E+1	1.28104E+1
142	15/03/2023	18:28:38.039	0.00000E+0	0.00000E+0	-1.32404E+2	-4.48667E+0	0.00000E+0	0.00000E+0	1.93887E+1	1.55271E+1	1.93888E+1	1.55277E+1
143	15/03/2023	18:28:39.537	0.00000E+0	0.00000E+0	-1.28812E+2	-1.10593E+0	0.00000E+0	0.00000E+0	1.93896E+1	1.55498E+1	1.93894E+1	1.55493E+1
144	15/03/2023	18:28:40.994	0.00000E+0	0.00000E+0	1.48592E+2	1.54651E+0	0.00000E+0	0.00000E+0	2.33706E+1	1.16157E+1	2.33716E+1	1.16148E+1
145	15/03/2023	18:28:42.474	0.00000E+0	0.00000E+0	1.71964E+2	-6.40738E-1	0.00000E+0	0.00000E+0	2.37850E+1	1.11996E+1	2.37837E+1	1.11976E+1
146	15/03/2023	18:28:43.943	0.00000E+0	0.00000E+0	-1.44153E+2	-7.34144E-1	0.00000E+0	0.00000E+0	1.92302E+1	1.56962E+1	1.92254E+1	1.56956E+1
147	15/03/2023	18:28:45.447	0.00000E+0	0.00000E+0	-1.49551E+2	6.03432E-2	0.00000E+0	0.00000E+0	1.90601E+1	1.58807E+1	1.90570E+1	1.58804E+1
148	15/03/2023	18:28:46.942	0.00000E+0	0.00000E+0	1.19400E+2	-4.97304E-1	0.00000E+0	0.00000E+0	2.28112E+1	1.21270E+1	2.28107E+1	1.21267E+1
149	15/03/2023	18:28:48.400	0.00000E+0	0.00000E+0	1.83853E+2	2.34797E+0	0.00000E+0	0.00000E+0	2.38906E+1	1.11146E+1	2.38900E+1	1.11166E+1
150	15/03/2023	18:28:49.850	0.00000E+0	0.00000E+0	-8.86303E+1	1.29795E-1	0.00000E+0	0.00000E+0	2.01183E+1	1.48530E+1	2.01171E+1	1.48551E+1
151	15/03/2023	18:28:51.325	0.00000E+0	0.00000E+0	-1.62870E+2	-6.89704E-1	0.00000E+0	0.00000E+0	1.89802E+1	1.59448E+1	1.89783E+1	1.59457E+1
152	15/03/2023	18:28:52.758	0.00000E+0	0.00000E+0	-1.00844E+1	-5.00855E-1	0.00000E+0	0.00000E+0	2.09355E+1	1.39807E+1	2.09355E+1	1.39802E+1
153	15/03/2023	18:28:54.258	0.00000E+0	0.00000E+0	1.41800E+2	8.86515E-1	0.00000E+0	0.00000E+0	2.32792E+1	1.17435E+1	2.32786E+1	1.17423E+1
154	15/03/2023	18:28:55.715	0.00000E+0	0.00000E+0	4.41483E+1	4.35076E-1	0.00000E+0	0.00000E+0	2.20712E+1	1.28802E+1	2.20711E+1	1.28802E+1
155	15/03/2023	18:28:57.216	0.00000E+0	0.00000E+0	-1.47387E+2	9.18449E-1	0.00000E+0	0.00000E+0	1.91508E+1	1.57652E+1	1.91509E+1	1.57634E+1
156	15/03/2023	18:28:58.694	0.00000E+0	0.00000E+0	-9.22365E+1	-7.41050E-1	0.00000E+0	0.00000E+0	1.99281E+1	1.50718E+1	1.99264E+1	1.50716E+1
157	15/03/2023	18:29:00.170	0.00000E+0	0.00000E+0	1.54985E+2	1.64474E+0	0.00000E+0	0.00000E+0	2.34095E+1	1.15973E+1	2.34098E+1	1.15957E+1
158	15/03/2023	18:29:01.629	0.00000E+0	0.00000E+0	1.41235E+2	2.66782E-1	0.00000E+0	0.00000E+0	2.33701E+1	1.16142E+1	2.33684E+1	1.16161E+1
159	15/03/2023	18:29:03.145	0.00000E+0	0.00000E+0	-1.32593E+2	-9.86354E-1	0.00000E+0	0.00000E+0	1.94267E+1	1.55197E+1	1.94270E+1	1.55216E+1
160	15/03/2023	18:29:04.613	0.00000E+0	0.00000E+0	-1.67936E+2	-2.53111E+0	0.00000E+0	0.00000E+0	1.87772E+1	1.60848E+1	1.87793E+1	1.60858E+1
161	15/03/2023	18:29:06.102	0.00000E+0	0.00000E+0	7.60017E+1	2.18938E+0	0.00000E+0	0.00000E+0	2.22268E+1	1.26980E+1	2.22262E+1	1.26998E+1
162	15/03/2023	18:29:07.555	0.00000E+0	0.00000E+0	1.98525E+2	8.76220E-1	0.00000E+0	0.00000E+0	2.40073E+1	1.09533E+1	2.40070E+1	1.09529E+1
163	15/03/2023	18:29:09.020	0.00000E+0	0.00000E+0	-2.04411E+1	-8.80547E-1	0.00000E+0	0.00000E+0	2.10071E+1	1.38760E+1	2.10098E+1	1.38795E+1
164	15/03/2023	18:29:10.494	0.00000E+0	0.00000E+0	-1.69167E+2	-1.72781E+0	0.00000E+0	0.00000E+0	1.88323E+1	1.61391E+1	1.88330E+1	1.61378E+1
165	15/03/2023	18:29:11.946	0.00000E+0	0.00000E+0	-1.03492E+2	-7.39514E-1	0.00000E+0	0.00000E+0	1.96778E+1	1.52400E+1	1.96783E+1	1.52393E+1
166	15/03/2023	18:29:13.452	0.00000E+0	0.00000E+0	1.48747E+2	2.11569E+0	0.00000E+0	0.00000E+0	2.33191E+1	1.16601E+1	2.33195E+1	1.16621E+1
167	15/03/2023	18:29:14.971	0.00000E+0	0.00000E+0	1.17707E+2	2.12657E+0	0.00000E+0	0.00000E+0	2.30487E+1	1.19202E+1	2.30476E+1	1.19213E+1
168	15/03/2023	18:29:16.444	0.00000E+0	0.00000E+0	-1.42745E+2	1.81432E-1	0.00000E+0	0.00000E+0	1.92548E+1	1.56663E+1	1.92559E+1	1.56664E+1
169	15/03/2023	18:29:17.931	0.00000E+0	0.00000E+0	-1.37716E+2	7.34594E-1	0.00000E+0	0.00000E+0	1.92549E+1	1.56629E+1	1.92547E+1	1.56614E+1
170	15/03/2023	18:29:19.401	0.00000E+0	0.00000E+0	1.34785E+2	-3.25344E-2	0.00000E+0	0.00000E+0	2.31575E+1	1.18373E+1	2.31580E+1	1.18389E+1
171	15/03/2023	18:29:20.878	0.00000E+0	0.00000E+0	1.66156E+2	-7.79330E-2	0.00000E+0	0.00000E+0	2.36885E+1	1.13052E+1	2.36887E+1	1.13065E+1
172	15/03/2023	18:29:22.364	0.00000E+0	0.00000E+0	-1.12978E+2	-5.71373E-1	0.00000E+0	0.00000E+0	1.97227E+1	1.52041E+1	1.97232E+1	1.52017E+1
173	15/03/2023	18:29:23.833	0.00000E+0	0.00000E+0	-1.60900E+2	-5.33067E-2	0.00000E+0	0.00000E+0	1.89597E+1	1.59720E+1	1.89583E+1	1.59731E+1
174	15/03/2023	18:29:25.306	0.00000E+0	0.00000E+0	5.37516E+1	9.50070E-1	0.00000E+0	0.00000E+0	2.19740E+1	1.29875E+1	2.19713E+1	1.29876E+1
175	15/03/2023	18:29:26.780	0.00000E+0	0.00000E+0	1.80345E+2	1.27762E+0	0.00000E+0	0.00000E+0	2.37846E+1	1.12010E+1	2.37845E+1	1.12005E+1
176	15/03/2023	18:29:28.240	0.00000E+0	0.00000E+0	2.30608E+1	8.68785E-1	0.00000E+0	0.00000E+0	2.17500E+1	1.31782E+1	2.17490E+1	1.31792E+1
177	15/03/2023	18:29:29.746	0.00000E+0	0.00000E+0	-1.72896E+2	-4.19064E+0	0.00000E+0	0.00000E+0	1.88334E+1	1.61304E+1	1.88305E+1	1.61312E+1
178	15/03/2023	18:29:31.218	0.00000E+0	0.00000E+0	-9.54183E+1	-7.81512E-1	0.00000E+0	0.00000E+0	1.97458E+1	1.51713E+1	1.97437E+1	1.51724E+1
179	15/03/2023	18:29:32.685	0.00000E+0	0.00000E+0	1.68224E+2	-6.47323E-1	0.00000E+0	0.00000E+0	2.36223E+1	1.13661E+1	2.36234E+1	1.13668E+1
180	15/03/2023	18:29:34.161	0.00000E+0	0.00000E+0	1.30240E+2	3.05533E-1	0.00000E+0	0.00000E+0	2.32763E+1	1.17439E+1	2.32765E+1	1.17447E+1
181	15/03/2023	18:29:35.643	0.00000E+0	0.00000E+0	-1.61230E+2	-7.50635E-1	0.00000E+0	0.00000E+0	1.89813E+1	1.58879E+1	1.89816E+1	1.58857E+1
182	15/03/2023	18:29:37.123	0.00000E+0	0.00000E+0	-1.26974E+2	1.01211E-1	0.00000E+0	0.00000E+0	1.93639E+1	1.55684E+1	1.93633E+1	1.55679E+1
183	15/03/2023	18:29:38.593	0.00000E+0	0.00000E+0	1.32627E+2	4.29572E-1	0.00000E+0	0.00000E+0	2.30696E+1	1.19228E+1	2.30683E+1	1.19216E+1
184	15/03/2023	18:29:40.055	0.00000E+0	0.00000E+0	1.92979E+2	5.25673E-1	0.00000E+0	0.00000E+0	2.39630E+1	1.09484E+1	2.39649E+1	1.09521E+1
185	15/03/2023	18:29:41.550	0.00000E+0	0.00000E+0	-8.59048E+1	-1.09352E-1	0.00000E+0	0.00000E+0	2.01221E+1	1.48287E+1	2.01235E+1	1.48296E+1
186	15/03/2023	18:29:43.002	0.00000E+0	0.00000E+0	-1.76832E+2	4.83743E-1	0.00000E+0	0.00000E+0	1.86891E+1	1.62335E+1	1.86896E+1	1.62355E+1
187	15/03/2023	18:29:44.452	0.00000E+0	0.00000E+0	-1.63144E+1	1.54148E+0	0.00000E+0	0.00000E+0	2.07901E+1	1.41208E+1	2.07918E+1	1.41196E+1
188	15/03/2023	18:29:45.925	0.00000E+0	0.00000E+0	1.91247E+2	-4.37403E-1	0.00000E+0	0.00000E+0	2.39317E+1	1.10280E+1	2.39316E+1	1.10283E+1
189	15/03/2023	18:29:47.411	0.00000E+0	0.00000E+0	-7.46684E+0	-2.82810E-1	0.00000E+0	0.00000E+0	2.13088E+1	1.36042E+1	2.13071E+1	1.36035E+1
190	15/03/2023	18:29:48.903	0.00000E+0	0.00000E+0	-1.78696E+2	-1.12874E+0	0.00000E+0	0.00000E+0	1.87242E+1	1.61804E+1	1.87235E+1	1.61790E+1
191	15/03/2023	18:29:50.353	0.00000E+0	0.00000E+0	-7.98419E+1	-5.74313E-1	0.00000E+0	0.00000E+0	1.99053E+1	1.50238E+1	1.99057E+1	1.50242E+1
192	15/03/2023	18:29:51.800	0.00000E+0	0.00000E+0	1.77129E+2	1.86168E+0	0.00000E+0	0.00000E+0	2.37385E+1	1.12225E+1	2.37401E+1	1.12217E+1
193	15/03/2023	18:29:53.263	0.00000E+0	0.00000E+0	9.53205E+1	-3.74638E-1	0.00000E+0	0.00000E+0	2.27304E+1	1.22476E+1	2.27287E+1	1.22459E+1
194	15/03/2023	18:29:54.738	0.00000E+0	0.00000E+0	-1.34207E+2	-1.84727E-1	0.00000E+0	0.00000E+0	1.93900E+1	1.55745E+1	1.93920E+1	1.55748E+1
195	15/03/2023	18:29:56.230	0.00000E+0	0.00000E+0	-1.57488E+2	1.70692E+0	0.00000E+0	0.00000E+0	1.90090E+1	1.59494E+1	1.90092E+1	1.59514E+1
196	15/03/2023	18:29:57.681	0.00000E+0	0.00000E+0	1.20117E+2	1.91979E+0	0.00000E+0	0.00000E+0	2.28765E+1	1.20947E+1	2.28774E+1	1.20986E+1
197	15/03/2023	18:29:59.159	0.00000E+0	0.00000E+0	1.78150E+2	2.12513E+0	0.00000E+0	0.00000E+0	2.37940E+1	1.11726E+1	2.37934E+1	1.11726E+1
198	15/03/2023	18:30:00.657	0.00000E+0	0.00000E+0	-1.00653E+2	1.67034E-1	0.00000E+0	0.00000E+0	1.99099E+1	1.50300E+1	1.99075E+1	1.50308E+1
199	15/03/2023	18:30:02.119	0.00000E+0	0.00000E+0	-1.86750E+2	-2.51288E+0	0.00000E+0	0.00000E+0	1.86267E+1	1.63267E+1	1.86259E+1	1.63286E+1
200	15/03/2023	18:30:03.605	0.00000E+0	0.00000E+0	5.34729E+1	-2.40151E-1	0.00000E+0	0.00000E+0	2.19520E+1	1.30332E+1	2.19503E+1	1.30342E+1
201	15/03/2023	18:30:05.102	0.00000E+0	0.00000E+0	1.87890E+2	1.39457E+0	0.00000E+0	0.00000E+0	2.39099E+1	1.10475E+1	2.39087E+1	1.10482E+1
202	15/03/2023	18:30:06.560	0.00000E+0	0.00000E+0	3.95585E+1	-2.33113E-1	0.00000E+0	0.00000E+0	2.20056E+1	1.29510E+1	2.20048E+1	1.29508E+1
203	15/03/2023	18:30:08.037	0.00000E+0	0.00000E+0	-1.72002E+2	-1.96627E+0	0.00000E+0	0.00000E+0	1.88237E+1	1.61006E+1	1.88230E+1	1.60998E+1
204	15/03/2023	18:30:09.506	0.00000E+0	0.00000E+0	-1.41571E+2	-1.58518E+0	0.00000E+0	0.00000E+0	1.91714E+1	1.57788E+1	1.91707E+1	1.57766E+1
205	15/03/2023	18:30:10.987	0.00000E+0	0.00000E+0	1.41714E+2	7.78839E-1	0.00000E+0	0.00000E+0	2.32226E+1	1.17567E+1	2.32220E+1	1.17578E+1
206	15/03/2023	18:30:12.445	0.00000E+0	0.00000E+0	1.79629E+2	1.55480E-1	0.00000E+0	0.00000E+0	2.39139E+1	1.10590E+1	2.39130E+1	1.10584E+1
207	15/03/2023	18:30:13.936	0.00000E+0	0.00000E+0	-1.45825E+2	-1.34662E+0	0.00000E+0	0.00000E+0	1.92574E+1	1.56843E+1	1.92573E+1	1.56835E+1
208	15/03/2023	18:30:15.406	0.00000E+0	0.00000E+0	-1.71490E+2	7.94935E-1	0.00000E+0	0.00000E+0	1.87768E+1	1.61736E+1	1.87747E+1	1.61754E+1
209	15/03/2023	18:30:16.901	0.00000E+0	0.00000E+0	1.19435E+2	1.25713E+0	0.00000E+0	0.00000E+0	2.28856E+1	1.21166E+1	2.28855E+1	1.21132E+1
210	15/03/2023	18:30:18.382	0.00000E+0	0.00000E+0	2.11559E+2	1.16676E+0	0.00000E+0	0.00000E+0	2.43255E+1	1.06571E+1	2.43241E+1	1.06604E+1
211	15/03/2023	18:30:19.860	0.00000E+0	0.00000E+0	-7.52739E+1	-8.14796E-1	0.00000E+0	0.00000E+0	2.02795E+1	1.46756E+1	2.02811E+1	1.46768E+1
212	15/03/2023	18:30:21.302	0.00000E+0	0.00000E+0	-1.94703E+2	-1.51411E+0	0.00000E+0	0.00000E+0	1.84888E+1	1.63987E+1	1.84879E+1	1.63982E+1
213	15/03/2023	18:30:22.844	0.00000E+0	0.00000E+0	1.56663E+1	-7.99750E-1	0.00000E+0	0.00000E+0	2.13350E+1	1.36182E+1	2.13350E+1	1.36191E+1
214	15/03/2023	18:30:24.310	0.00000E+0	0.00000E+0	1.73613E+2	1.15902E+0	0.00000E+0	0.00000E+0	2.36957E+1	1.12455E+1	2.36956E+1	1.12456E+1
215	15/03/2023	18:30:25.782	0.00000E+0	0.00000E+0	8.68680E+1	1.52171E+0	0.00000E+0	0.00000E+0	2.26338E+1	1.23587E+1	2.26333E+1	1.23586E+1
216	15/03/2023	18:30:27.256	0.00000E+0	0.00000E+0	-1.65067E+2	-2.69649E+0	0.00000E+0	0.00000E+0	1.89677E+1	1.59883E+1	1.89683E+1	1.59886E+1
217	15/03/2023	18:30:28.767	0.00000E+0	0.00000E+0	-1.50606E+2	1.06925E+0	0.00000E+0	0.00000E+0	1.90306E+1	1.58788E+1	1.90310E+1	1.58753E+1
218	15/03/2023	18:30:30.194	0.00000E+0	0.00000E+0	1.28669E+2	1.78159E-1	0.00000E+0	0.00000E+0	2.30140E+1	1.19914E+1	2.30155E+1	1.19941E+1
219	15/03/2023	18:30:31.661	0.00000E+0	0.00000E+0	1.59395E+2	5.41456E-2	0.00000E+0	0.00000E+0	2.35289E+1	1.14418E+1	2.35266E+1	1.14425E+1
220	15/03/2023	18:30:33.123	0.00000E+0	0.00000E+0	-1.40028E+2	-3.67307E-1	0.00000E+0	0.00000E+0	1.93804E+1	1.56189E+1	1.93796E+1	1.56172E+1
221	15/03/2023	18:30:34.621	0.00000E+0	0.00000E+0	-1.41890E+2	-7.40047E-1	0.00000E+0	0.00000E+0	1.91722E+1	1.57794E+1	1.91733E+1	1.57780E+1
222	15/03/2023	18:30:36.083	0.00000E+0	0.00000E+0	1.40003E+2	1.45043E+0	0.00000E+0	0.00000E+0	2.31460E+1	1.18223E+1	2.31465E+1	1.18201E+1
223	15/03/2023	18:30:37.551	0.00000E+0	0.00000E+0	1.89507E+2	9.88332E-1	0.00000E+0	0.00000E+0	2.40424E+1	1.09906E+1	2.40416E+1	1.09905E+1
224	15/03/2023	18:30:39.029	0.00000E+0	0.00000E+0	-1.40753E+2	-7.04345E-1	0.00000E+0	0.00000E+0	1.93006E+1	1.56016E+1	1.93023E+1	1.56008E+1
225	15/03/2023	18:30:40.510	0.00000E+0	0.00000E+0	-1.66143E+2	-1.98013E-1	0.00000E+0	0.00000E+0	1.88769E+1	1.60583E+1	1.88769E+1	1.60584E+1
226	15/03/2023	18:30:41.986	0.00000E+0	0.00000E+0	6.76785E+1	1.45941E-1	0.00000E+0	0.00000E+0	2.21069E+1	1.28531E+1	2.21071E+1	1.28528E+1
227	15/03/2023	18:30:43.467	0.00000E+0	0.00000E+0	1.82121E+2	1.29101E+0	0.00000E+0	0.00000E+0	2.37771E+1	1.11785E+1	2.37756E+1	1.11772E+1
228	15/03/2023	18:30:44.937	0.00000E+0	0.00000E+0	-2.24647E+1	-9.02059E-1	0.00000E+0	0.00000E+0	2.10603E+1	1.38707E+1	2.10614E+1	1.38710E+1
229	15/03/2023	18:30:46.429	0.00000E+0	0.00000E+0	-1.64065E+2	-5.01830E+0	0.00000E+0	0.00000E+0	1.89395E+1	1.59305E+1	1.89380E+1	1.59314E+1
230	15/03/2023	18:30:47.882	0.00000E+0	0.00000E+0	-9.66541E+1	-2.46308E+0	0.00000E+0	0.00000E+0	1.97454E+1	1.51380E+1	1.97457E+1	1.51384E+1
231	15/03/2023	18:30:49.366	0.00000E+0	0.00000E+0	1.66158E+2	1.27710E+0	0.00000E+0	0.00000E+0	2.35872E+1	1.14141E+1	2.35867E+1	1.14103E+1
232	15/03/2023	18:30:50.857	0.00000E+0	0.00000E+0	1.20637E+2	-7.05265E-1	0.00000E+0	0.00000E+0	2.31030E+1	1.18386E+1	2.31021E+1	1.18369E+1
233	15/03/2023	18:30:52.315	0.00000E+0	0.00000E+0	-1.49916E+2	-1.31488E-1	0.00000E+0	0.00000E+0	1.91388E+1	1.57178E+1	1.91375E+1	1.57186E+1
234	15/03/2023	18:30:53.785	0.00000E+0	0.00000E+0	-1.54459E+2	-8.83325E-1	0.00000E+0	0.00000E+0	1.90214E+1	1.58769E+1	1.90234E+1	1.58771E+1
235	15/03/2023	18:30:55.252	0.00000E+0	0.00000E+0	1.04743E+2	-3.07762E-1	0.00000E+0	0.00000E+0	2.26993E+1	1.23043E+1	2.26985E+1	1.23046E+1
236	15/03/2023	18:30:56.697	0.00000E+0	0.00000E+0	1.88724E+2	1.67662E+0	0.00000E+0	0.00000E+0	2.39693E+1	1.09977E+1	2.39696E+1	1.09967E+1
237	15/03/2023	18:30:58.200	0.00000E+0	0.00000E+0	-9.65808E+1	-2.05497E-1	0.00000E+0	0.00000E+0	2.00030E+1	1.49076E+1	2.00019E+1	1.49057E+1
238	15/03/2023	18:30:59.682	0.00000E+0	0.00000E+0	-1.88723E+2	-2.75121E+0	0.00000E+0	0.00000E+0	1.85350E+1	1.63994E+1	1.85355E+1	1.64006E+1
239	15/03/2023	18:31:01.175	0.00000E+0	0.00000E+0	4.06058E+1	-1.09724E+0	0.00000E+0	0.00000E+0	2.17404E+1	1.31994E+1	2.17390E+1	1.31967E+1
240	15/03/2023	18:31:02.668	0.00000E+0	0.00000E+0	1.67873E+2	9.63519E-1	0.00000E+0	0.00000E+0	2.36210E+1	1.13326E+1	2.36229E+1	1.13331E+1
241	15/03/2023	18:31:04.118	0.00000E+0	0.00000E+0	6.25358E+1	1.10124E+0	0.00000E+0	0.00000E+0	2.23062E+1	1.26579E+1	2.23044E+1	1.26573E+1
242	15/03/2023	18:31:05.598	0.00000E+0	0.00000E+0	-1.54919E+2	5.61887E-1	0.00000E+0	0.00000E+0	1.90577E+1	1.58439E+1	1.90586E+1	1.58435E+1
