#Iteration	Date	Time	RTPhase	NFringe	AccelAxis	AccelMean	AccelTemp
1	02/09/2022	14:59:02.427	1.37291281E-1	-2.51900000E+3	2.00000000E+0	-9.80590689E+0	7.16115900E+6
2	02/09/2022	14:59:03.868	4.46004914E-1	-2.51400000E+3	2.00000000E+0	-9.80590689E+0	7.16115900E+6
3	02/09/2022	14:59:05.343	5.66384056E+0	-2.51900000E+3	2.00000000E+0	-9.80590689E+0	7.16115900E+6
4	02/09/2022	14:59:06.800	1.16007297E+0	-2.51800000E+3	2.00000000E+0	-9.80590689E+0	7.16115900E+6
5	02/09/2022	14:59:08.287	2.89538874E-1	-2.51400000E+3	2.00000000E+0	-9.80590689E+0	7.16115900E+6
6	02/09/2022	14:59:09.684	4.00752481E-1	-2.51800000E+3	2.00000000E+0	-9.80590689E+0	7.16115900E+6
7	02/09/2022	14:59:11.113	1.34990309E+0	-2.51400000E+3	2.00000000E+0	-9.80590689E+0	7.16115900E+6
8	02/09/2022	14:59:12.648	8.95461285E-1	-2.51800000E+3	2.00000000E+0	-9.80590689E+0	7.16115900E+6
9	02/09/2022	14:59:14.047	1.63023808E+0	-2.51400000E+3	2.00000000E+0	-9.80590689E+0	7.16115900E+6
10	02/09/2022	14:59:15.610	4.05891316E+0	-2.51900000E+3	2.00000000E+0	-9.80590689E+0	7.16115900E+6
11	02/09/2022	14:59:16.995	5.24583080E+0	-2.51600000E+3	2.00000000E+0	-9.80590689E+0	7.16115900E+6
12	02/09/2022	14:59:18.361	4.38718505E-1	-2.51600000E+3	2.00000000E+0	-9.80590689E+0	7.16115900E+6
13	02/09/2022	14:59:19.913	5.82567554E+0	-2.51600000E+3	2.00000000E+0	-9.80590689E+0	7.16115900E+6
14	02/09/2022	14:59:21.289	3.16767033E+0	-2.51500000E+3	2.00000000E+0	-9.80590689E+0	7.16115900E+6
15	02/09/2022	14:59:22.759	6.09527266E+0	-2.51600000E+3	2.00000000E+0	-9.80590689E+0	7.16115900E+6
16	02/09/2022	14:59:24.229	1.97461677E+0	-2.51800000E+3	2.00000000E+0	-9.80590689E+0	7.16115900E+6
17	02/09/2022	14:59:25.623	5.55185997E+0	-2.51500000E+3	2.00000000E+0	-9.80590689E+0	7.16115900E+6
18	02/09/2022	14:59:27.062	2.75042755E+0	-2.51900000E+3	2.00000000E+0	-9.80590689E+0	7.16115900E+6
19	02/09/2022	14:59:28.453	6.08875324E+0	-2.51500000E+3	2.00000000E+0	-9.80590689E+0	7.16115900E+6
20	02/09/2022	14:59:29.847	9.01980703E-1	-2.51900000E+3	2.00000000E+0	-9.80590689E+0	7.16115900E+6
21	02/09/2022	14:59:31.414	5.44831626E+0	-2.51500000E+3	2.00000000E+0	-9.80590689E+0	7.16115900E+6
22	02/09/2022	14:59:32.816	1.05000985E+0	-2.51800000E+3	2.00000000E+0	-9.80590689E+0	7.16115900E+6
23	02/09/2022	14:59:34.263	4.27098601E+0	-2.51800000E+3	2.00000000E+0	-9.80590689E+0	7.16115900E+6
24	02/09/2022	14:59:35.779	3.52355387E+0	-2.51900000E+3	2.00000000E+0	-9.80590689E+0	7.16115900E+6
25	02/09/2022	14:59:37.165	4.68592781E+0	-2.51500000E+3	2.00000000E+0	-9.80590689E+0	7.16115900E+6
26	02/09/2022	14:59:38.712	1.36984484E+0	-2.51500000E+3	2.00000000E+0	-9.80590689E+0	7.16115900E+6
27	02/09/2022	14:59:40.096	4.28440834E+0	-2.51600000E+3	2.00000000E+0	-9.80590689E+0	7.16115900E+6
28	02/09/2022	14:59:41.512	5.83219496E+0	-2.51700000E+3	2.00000000E+0	-9.80590689E+0	7.16115900E+6
29	02/09/2022	14:59:43.034	1.23638852E+0	-2.51900000E+3	2.00000000E+0	-9.80590689E+0	7.16115900E+6
30	02/09/2022	14:59:44.422	4.14750056E+0	-2.51500000E+3	2.00000000E+0	-9.80590689E+0	7.16115900E+6
31	02/09/2022	14:59:45.943	6.12365131E+0	-2.51800000E+3	2.00000000E+0	-9.80590689E+0	7.16115900E+6
32	02/09/2022	14:59:47.324	1.66820411E-1	-2.51800000E+3	2.00000000E+0	-9.80590689E+0	7.16115900E+6
33	02/09/2022	14:59:48.725	1.68507790E+0	-2.51700000E+3	2.00000000E+0	-9.80590689E+0	7.16115900E+6
34	02/09/2022	14:59:50.214	1.53283030E+0	-2.51400000E+3	2.00000000E+0	-9.80590689E+0	7.16115900E+6
35	02/09/2022	14:59:51.645	5.99441342E+0	-2.51800000E+3	2.00000000E+0	-9.80590689E+0	7.16115900E+6
36	02/09/2022	14:59:53.072	5.77160271E+0	-2.51900000E+3	2.00000000E+0	-9.80590689E+0	7.16115900E+6
37	02/09/2022	14:59:54.571	3.94233062E+0	-2.51900000E+3	2.00000000E+0	-9.80590689E+0	7.16115900E+6
38	02/09/2022	14:59:55.962	5.87476292E+0	-2.51500000E+3	2.00000000E+0	-9.80590689E+0	7.16115900E+6
39	02/09/2022	14:59:57.463	5.22205410E+0	-2.51600000E+3	2.00000000E+0	-9.80590689E+0	7.16115900E+6
40	02/09/2022	14:59:58.822	3.21982567E+0	-2.51800000E+3	2.00000000E+0	-9.80590689E+0	7.16115900E+6
41	02/09/2022	15:00:00.231	3.67618496E+0	-2.51900000E+3	2.00000000E+0	-9.80590689E+0	7.16115900E+6
42	02/09/2022	15:00:01.781	1.42468466E+0	-2.51800000E+3	2.00000000E+0	-9.80590689E+0	7.16115900E+6
43	02/09/2022	15:00:03.161	1.58997109E+0	-2.51700000E+3	2.00000000E+0	-9.80590689E+0	7.16115900E+6
44	02/09/2022	15:00:04.614	1.04272344E+0	-2.51800000E+3	2.00000000E+0	-9.80590689E+0	7.16115900E+6
45	02/09/2022	15:00:06.014	3.99832092E+0	-2.51700000E+3	2.00000000E+0	-9.80590689E+0	7.16115900E+6
46	02/09/2022	15:00:07.411	6.29315618E-1	-2.51500000E+3	2.00000000E+0	-9.80590689E+0	7.16115900E+6
47	02/09/2022	15:00:08.869	1.20724288E+0	-2.51500000E+3	2.00000000E+0	-9.80590689E+0	7.16115900E+6
48	02/09/2022	15:00:10.273	7.63155442E-1	-2.51800000E+3	2.00000000E+0	-9.80590689E+0	7.16115900E+6
49	02/09/2022	15:00:11.666	3.76707332E+0	-2.51500000E+3	2.00000000E+0	-9.80590689E+0	7.16115900E+6
50	02/09/2022	15:00:13.147	2.77918969E+0	-2.51800000E+3	2.00000000E+0	-9.80590689E+0	7.16115900E+6
51	02/09/2022	15:00:14.543	1.74336917E+0	-2.51600000E+3	2.00000000E+0	-9.80590689E+0	7.16115900E+6
52	02/09/2022	15:00:16.077	5.36893276E-1	-2.51500000E+3	2.00000000E+0	-9.80590689E+0	7.16115900E+6
53	02/09/2022	15:00:17.459	2.41065081E+0	-2.51500000E+3	2.00000000E+0	-9.80590689E+0	7.16115900E+6
54	02/09/2022	15:00:18.871	8.34102053E-1	-2.51400000E+3	2.00000000E+0	-9.80590689E+0	7.16115900E+6
55	02/09/2022	15:00:20.384	4.66291810E+0	-2.51700000E+3	2.00000000E+0	-9.80590689E+0	7.16115900E+6
56	02/09/2022	15:00:21.775	3.36133540E+0	-2.51700000E+3	2.00000000E+0	-9.80590689E+0	7.16115900E+6
57	02/09/2022	15:00:23.211	4.45698118E+0	-2.51600000E+3	2.00000000E+0	-9.80590689E+0	7.16115900E+6
58	02/09/2022	15:00:24.706	1.14089821E+0	-2.51400000E+3	2.00000000E+0	-9.80590689E+0	7.16115900E+6
59	02/09/2022	15:00:26.095	6.05232120E+0	-2.51900000E+3	2.00000000E+0	-9.80590689E+0	7.16115900E+6
60	02/09/2022	15:00:27.621	5.17718516E-1	-2.51500000E+3	2.00000000E+0	-9.80590689E+0	7.16115900E+6
61	02/09/2022	15:00:29.010	3.90168013E+0	-2.51700000E+3	2.00000000E+0	-9.80590689E+0	7.16115900E+6
62	02/09/2022	15:00:30.379	1.54932060E+0	-2.51700000E+3	2.00000000E+0	-9.80590689E+0	7.16115900E+6
63	02/09/2022	15:00:31.933	2.50882558E+0	-2.51800000E+3	2.00000000E+0	-9.80590689E+0	7.16115900E+6
64	02/09/2022	15:00:33.321	3.14082566E-1	-2.51600000E+3	2.00000000E+0	-9.80590689E+0	7.16115900E+6
65	02/09/2022	15:00:34.855	4.95974338E+0	-2.51900000E+3	2.00000000E+0	-9.80590689E+0	7.16115900E+6
66	02/09/2022	15:00:36.252	4.71353947E+0	-2.51400000E+3	2.00000000E+0	-9.80590689E+0	7.16115900E+6
67	02/09/2022	15:00:37.694	3.70993254E+0	-2.51800000E+3	2.00000000E+0	-9.80590689E+0	7.16115900E+6
68	02/09/2022	15:00:39.226	5.69490368E-1	-2.51600000E+3	2.00000000E+0	-9.80590689E+0	7.16115900E+6
69	02/09/2022	15:00:40.641	2.92108292E+0	-2.51700000E+3	2.00000000E+0	-9.80590689E+0	7.16115900E+6
70	02/09/2022	15:00:42.052	2.01948571E+0	-2.51600000E+3	2.00000000E+0	-9.80590689E+0	7.16115900E+6
71	02/09/2022	15:00:43.533	4.44394234E+0	-2.51800000E+3	2.00000000E+0	-9.80590689E+0	7.16115900E+6
72	02/09/2022	15:00:44.953	4.34154912E+0	-2.51700000E+3	2.00000000E+0	-9.80590689E+0	7.16115900E+6
73	02/09/2022	15:00:46.426	6.09335518E+0	-2.51500000E+3	2.00000000E+0	-9.80590689E+0	7.16115900E+6
74	02/09/2022	15:00:47.816	4.72274335E+0	-2.51900000E+3	2.00000000E+0	-9.80590689E+0	7.16115900E+6
75	02/09/2022	15:00:49.203	4.65946664E-1	-2.51500000E+3	2.00000000E+0	-9.80590689E+0	7.16115900E+6
76	02/09/2022	15:00:50.710	4.54441808E-1	-2.51400000E+3	2.00000000E+0	-9.80590689E+0	7.16115900E+6
77	02/09/2022	15:00:52.101	1.32305843E+0	-2.51800000E+3	2.00000000E+0	-9.80590689E+0	7.16115900E+6
78	02/09/2022	15:00:53.533	6.01588915E+0	-2.51600000E+3	2.00000000E+0	-9.80590689E+0	7.16115900E+6
79	02/09/2022	15:00:54.909	4.99157348E+0	-2.51500000E+3	2.00000000E+0	-9.80590689E+0	7.16115900E+6
80	02/09/2022	15:00:56.301	5.01496669E+0	-2.52000000E+3	2.00000000E+0	-9.80590689E+0	7.16115900E+6
81	02/09/2022	15:00:57.872	8.48674871E-1	-2.51400000E+3	2.00000000E+0	-9.80590689E+0	7.16115900E+6
82	02/09/2022	15:00:59.253	5.00384533E+0	-2.51600000E+3	2.00000000E+0	-9.80590689E+0	7.16115900E+6
83	02/09/2022	15:01:00.692	6.04848625E+0	-2.51700000E+3	2.00000000E+0	-9.80590689E+0	7.16115900E+6
84	02/09/2022	15:01:02.200	1.06995160E-1	-2.51600000E+3	2.00000000E+0	-9.80590689E+0	7.16115900E+6
85	02/09/2022	15:01:03.594	5.76393281E-1	-2.51700000E+3	2.00000000E+0	-9.80590689E+0	7.16115900E+6
86	02/09/2022	15:01:05.081	6.79169994E-1	-2.51400000E+3	2.00000000E+0	-9.80590689E+0	7.16115900E+6
87	02/09/2022	15:01:06.453	5.15685991E+0	-2.51500000E+3	2.00000000E+0	-9.80590689E+0	7.16115900E+6
88	02/09/2022	15:01:07.860	5.52194734E+0	-2.51500000E+3	2.00000000E+0	-9.80590689E+0	7.16115900E+6
89	02/09/2022	15:01:09.337	5.05676767E+0	-2.51600000E+3	2.00000000E+0	-9.80590689E+0	7.16115900E+6
90	02/09/2022	15:01:10.744	5.27152498E+0	-2.51400000E+3	2.00000000E+0	-9.80590689E+0	7.16115900E+6
91	02/09/2022	15:01:12.171	5.73248620E+0	-2.51800000E+3	2.00000000E+0	-9.80590689E+0	7.16115900E+6
92	02/09/2022	15:01:13.678	2.17250029E+0	-2.51800000E+3	2.00000000E+0	-9.80590689E+0	7.16115900E+6
93	02/09/2022	15:01:15.070	1.20762638E+0	-2.51500000E+3	2.00000000E+0	-9.80590689E+0	7.16115900E+6
94	02/09/2022	15:01:16.571	3.94194713E+0	-2.51600000E+3	2.00000000E+0	-9.80590689E+0	7.16115900E+6
95	02/09/2022	15:01:17.976	9.99004988E-1	-2.51800000E+3	2.00000000E+0	-9.80590689E+0	7.16115900E+6
96	02/09/2022	15:01:19.355	4.58736955E+0	-2.51600000E+3	2.00000000E+0	-9.80590689E+0	7.16115900E+6
97	02/09/2022	15:01:20.846	2.15831097E+0	-2.51800000E+3	2.00000000E+0	-9.80590689E+0	7.16115900E+6
98	02/09/2022	15:01:22.245	6.00285032E+0	-2.51600000E+3	2.00000000E+0	-9.80590689E+0	7.16115900E+6
99	02/09/2022	15:01:23.692	3.68423836E+0	-2.51600000E+3	2.00000000E+0	-9.80590689E+0	7.16115900E+6
100	02/09/2022	15:01:25.021	6.55776787E-1	-2.51400000E+3	2.00000000E+0	-9.80590689E+0	7.16115900E+6
101	02/09/2022	15:01:26.414	4.70165111E+0	-2.51900000E+3	2.00000000E+0	-9.80590689E+0	7.16115900E+6
102	02/09/2022	15:01:27.891	4.38948602E+0	-2.51500000E+3	2.00000000E+0	-9.80590689E+0	7.16115900E+6
103	02/09/2022	15:01:29.319	1.36946135E+0	-2.51500000E+3	2.00000000E+0	-9.80590689E+0	7.16115900E+6
104	02/09/2022	15:01:30.777	2.31937895E+0	-2.51500000E+3	2.00000000E+0	-9.80590689E+0	7.16115900E+6
105	02/09/2022	15:01:32.358	3.02194215E+0	-2.51600000E+3	2.00000000E+0	-9.80590689E+0	7.16115900E+6
106	02/09/2022	15:01:33.724	3.50859756E+0	-2.51700000E+3	2.00000000E+0	-9.80590689E+0	7.16115900E+6
107	02/09/2022	15:01:35.254	2.87889844E+0	-2.51700000E+3	2.00000000E+0	-9.80590689E+0	7.16115900E+6
108	02/09/2022	15:01:36.694	6.17273869E+0	-2.51600000E+3	2.00000000E+0	-9.80590689E+0	7.16115900E+6
109	02/09/2022	15:01:38.071	3.40160240E+0	-2.51400000E+3	2.00000000E+0	-9.80590689E+0	7.16115900E+6
110	02/09/2022	15:01:39.539	5.70832601E+0	-2.51600000E+3	2.00000000E+0	-9.80590689E+0	7.16115900E+6
111	02/09/2022	15:01:40.925	3.94233062E-1	-2.51800000E+3	2.00000000E+0	-9.80590689E+0	7.16115900E+6
112	02/09/2022	15:01:42.383	4.24529183E-1	-2.51800000E+3	2.00000000E+0	-9.80590689E+0	7.16115900E+6
113	02/09/2022	15:01:43.883	5.20172885E+0	-2.51900000E+3	2.00000000E+0	-9.80590689E+0	7.16115900E+6
114	02/09/2022	15:01:45.279	2.04633037E+0	-2.51400000E+3	2.00000000E+0	-9.80590689E+0	7.16115900E+6
115	02/09/2022	15:01:46.777	1.90290317E+0	-2.51500000E+3	2.00000000E+0	-9.80590689E+0	7.16115900E+6
116	02/09/2022	15:01:48.176	3.26009267E+0	-2.51900000E+3	2.00000000E+0	-9.80590689E+0	7.16115900E+6
117	02/09/2022	15:01:49.564	4.19198600E+0	-2.51500000E+3	2.00000000E+0	-9.80590689E+0	7.16115900E+6
118	02/09/2022	15:01:51.016	1.41509728E+0	-2.51700000E+3	2.00000000E+0	-9.80590689E+0	7.16115900E+6
119	02/09/2022	15:01:52.406	2.48389839E+0	-2.51600000E+3	2.00000000E+0	-9.80590689E+0	7.16115900E+6
120	02/09/2022	15:01:53.893	4.38910253E+0	-2.51600000E+3	2.00000000E+0	-9.80590689E+0	7.16115900E+6
121	02/09/2022	15:01:55.343	8.48674871E-1	-2.51800000E+3	2.00000000E+0	-9.80590689E+0	7.16115900E+6
122	02/09/2022	15:01:56.714	3.58989854E+0	-2.51800000E+3	2.00000000E+0	-9.80590689E+0	7.16115900E+6
123	02/09/2022	15:01:58.225	1.79360704E+0	-2.51600000E+3	2.00000000E+0	-9.80590689E+0	7.16115900E+6
124	02/09/2022	15:01:59.624	2.64573336E+0	-2.51900000E+3	2.00000000E+0	-9.80590689E+0	7.16115900E+6
125	02/09/2022	15:02:01.025	2.97937419E+0	-2.51500000E+3	2.00000000E+0	-9.80590689E+0	7.16115900E+6
126	02/09/2022	15:02:02.514	5.34553955E+0	-2.51700000E+3	2.00000000E+0	-9.80590689E+0	7.16115900E+6
127	02/09/2022	15:02:03.911	1.12900986E+0	-2.51800000E+3	2.00000000E+0	-9.80590689E+0	7.16115900E+6
128	02/09/2022	15:02:05.423	3.61712670E+0	-2.51800000E+3	2.00000000E+0	-9.80590689E+0	7.16115900E+6
129	02/09/2022	15:02:06.816	5.01458320E+0	-2.51500000E+3	2.00000000E+0	-9.80590689E+0	7.16115900E+6
130	02/09/2022	15:02:08.187	3.25932568E+0	-2.51500000E+3	2.00000000E+0	-9.80590689E+0	7.16115900E+6
131	02/09/2022	15:02:09.738	3.45759270E+0	-2.51500000E+3	2.00000000E+0	-9.80590689E+0	7.16115900E+6
132	02/09/2022	15:02:11.123	3.81040828E+0	-2.51900000E+3	2.00000000E+0	-9.80590689E+0	7.16115900E+6
133	02/09/2022	15:02:12.548	5.40114635E+0	-2.51800000E+3	2.00000000E+0	-9.80590689E+0	7.16115900E+6
134	02/09/2022	15:02:13.931	1.35450504E+0	-2.51400000E+3	2.00000000E+0	-9.80590689E+0	7.16115900E+6
135	02/09/2022	15:02:15.328	4.65754917E+0	-2.51900000E+3	2.00000000E+0	-9.80590689E+0	7.16115900E+6
136	02/09/2022	15:02:16.822	3.33410724E+0	-2.51900000E+3	2.00000000E+0	-9.80590689E+0	7.16115900E+6
137	02/09/2022	15:02:18.205	2.44554887E+0	-2.51700000E+3	2.00000000E+0	-9.80590689E+0	7.16115900E+6
138	02/09/2022	15:02:19.653	3.48136940E+0	-2.51900000E+3	2.00000000E+0	-9.80590689E+0	7.16115900E+6
139	02/09/2022	15:02:21.151	4.41939865E+0	-2.51700000E+3	2.00000000E+0	-9.80590689E+0	7.16115900E+6
140	02/09/2022	15:02:22.560	5.42262209E+0	-2.51600000E+3	2.00000000E+0	-9.80590689E+0	7.16115900E+6
141	02/09/2022	15:02:23.970	2.44516538E+0	-2.51500000E+3	2.00000000E+0	-9.80590689E+0	7.16115900E+6
142	02/09/2022	15:02:25.414	6.03621440E-1	-2.51700000E+3	2.00000000E+0	-9.80590689E+0	7.16115900E+6
143	02/09/2022	15:02:26.782	1.52631088E-1	-2.51700000E+3	2.00000000E+0	-9.80590689E+0	7.16115900E+6
144	02/09/2022	15:02:28.299	3.54848106E+0	-2.51500000E+3	2.00000000E+0	-9.80590689E+0	7.16115900E+6
145	02/09/2022	15:02:29.667	3.09403925E+0	-2.51500000E+3	2.00000000E+0	-9.80590689E+0	7.16115900E+6
146	02/09/2022	15:02:31.048	3.85911217E+0	-2.51600000E+3	2.00000000E+0	-9.80590689E+0	7.16115900E+6
147	02/09/2022	15:02:32.551	5.38695703E+0	-2.51500000E+3	2.00000000E+0	-9.80590689E+0	7.16115900E+6
148	02/09/2022	15:02:33.928	1.70540314E+0	-2.51700000E+3	2.00000000E+0	-9.80590689E+0	7.16115900E+6
149	02/09/2022	15:02:35.371	1.98573813E+0	-2.51400000E+3	2.00000000E+0	-9.80590689E+0	7.16115900E+6
150	02/09/2022	15:02:36.756	5.48743277E+0	-2.51800000E+3	2.00000000E+0	-9.80590689E+0	7.16115900E+6
151	02/09/2022	15:02:38.151	4.78486957E+0	-2.51500000E+3	2.00000000E+0	-9.80590689E+0	7.16115900E+6
152	02/09/2022	15:02:39.645	1.26668464E+0	-2.51800000E+3	2.00000000E+0	-9.80590689E+0	7.16115900E+6
153	02/09/2022	15:02:41.014	1.23868949E-1	-2.51700000E+3	2.00000000E+0	-9.80590689E+0	7.16115900E+6
154	02/09/2022	15:02:42.464	5.38427257E+0	-2.51900000E+3	2.00000000E+0	-9.80590689E+0	7.16115900E+6
155	02/09/2022	15:02:43.826	3.53735970E+0	-2.51700000E+3	2.00000000E+0	-9.80590689E+0	7.16115900E+6
156	02/09/2022	15:02:45.191	2.88656835E+0	-2.51600000E+3	2.00000000E+0	-9.80590689E+0	7.16115900E+6
157	02/09/2022	15:02:46.693	5.68723377E+0	-2.51500000E+3	2.00000000E+0	-9.80590689E+0	7.16115900E+6
158	02/09/2022	15:02:48.081	3.72220438E+0	-2.51900000E+3	2.00000000E+0	-9.80590689E+0	7.16115900E+6
159	02/09/2022	15:02:49.531	5.22895701E+0	-2.51800000E+3	2.00000000E+0	-9.80590689E+0	7.16115900E+6
160	02/09/2022	15:02:51.029	5.53000074E-1	-2.51500000E+3	2.00000000E+0	-9.80590689E+0	7.16115900E+6
161	02/09/2022	15:02:52.395	1.86953909E+0	-2.51400000E+3	2.00000000E+0	-9.80590689E+0	7.16115900E+6
162	02/09/2022	15:02:53.908	1.89178181E+0	-2.51600000E+3	2.00000000E+0	-9.80590689E+0	7.16115900E+6
163	02/09/2022	15:02:55.282	2.41218479E-1	-2.51800000E+3	2.00000000E+0	-9.80590689E+0	7.16115900E+6
164	02/09/2022	15:02:56.668	2.14603912E+0	-2.51700000E+3	2.00000000E+0	-9.80590689E+0	7.16115900E+6
165	02/09/2022	15:02:58.127	3.57647621E+0	-2.51700000E+3	2.00000000E+0	-9.80590689E+0	7.16115900E+6
166	02/09/2022	15:02:59.506	5.78579204E+0	-2.51500000E+3	2.00000000E+0	-9.80590689E+0	7.16115900E+6
167	02/09/2022	15:03:00.934	1.91670899E+0	-2.51600000E+3	2.00000000E+0	-9.80590689E+0	7.16115900E+6
168	02/09/2022	15:03:02.432	5.85136972E+0	-2.51500000E+3	2.00000000E+0	-9.80590689E+0	7.16115900E+6
169	02/09/2022	15:03:03.808	5.16491331E+0	-2.51700000E+3	2.00000000E+0	-9.80590689E+0	7.16115900E+6
170	02/09/2022	15:03:05.346	3.62134515E+0	-2.51500000E+3	2.00000000E+0	-9.80590689E+0	7.16115900E+6
171	02/09/2022	15:03:06.711	8.54427299E-1	-2.51500000E+3	2.00000000E+0	-9.80590689E+0	7.16115900E+6
172	02/09/2022	15:03:08.092	5.17871914E+0	-2.51500000E+3	2.00000000E+0	-9.80590689E+0	7.16115900E+6
173	02/09/2022	15:03:09.583	6.08798625E+0	-2.51600000E+3	2.00000000E+0	-9.80590689E+0	7.16115900E+6
174	02/09/2022	15:03:10.981	3.32030142E+0	-2.51900000E+3	2.00000000E+0	-9.80590689E+0	7.16115900E+6
175	02/09/2022	15:03:12.449	5.39769490E+0	-2.51900000E+3	2.00000000E+0	-9.80590689E+0	7.16115900E+6
176	02/09/2022	15:03:13.939	6.52708825E-1	-2.51700000E+3	2.00000000E+0	-9.80590689E+0	7.16115900E+6
177	02/09/2022	15:03:15.316	6.08645227E+0	-2.52000000E+3	2.00000000E+0	-9.80590689E+0	7.16115900E+6
178	02/09/2022	15:03:16.812	1.87145656E-1	-2.51700000E+3	2.00000000E+0	-9.80590689E+0	7.16115900E+6
179	02/09/2022	15:03:18.188	5.95261245E+0	-2.51900000E+3	2.00000000E+0	-9.80590689E+0	7.16115900E+6
180	02/09/2022	15:03:19.611	5.75434543E+0	-2.51800000E+3	2.00000000E+0	-9.80590689E+0	7.16115900E+6
181	02/09/2022	15:03:21.102	1.97423327E+0	-2.51700000E+3	2.00000000E+0	-9.80590689E+0	7.16115900E+6
182	02/09/2022	15:03:22.490	4.04702481E+0	-2.51700000E+3	2.00000000E+0	-9.80590689E+0	7.16115900E+6
183	02/09/2022	15:03:24.012	4.94056862E+0	-2.51500000E+3	2.00000000E+0	-9.80590689E+0	7.16115900E+6
184	02/09/2022	15:03:25.408	3.40697133E+0	-2.51800000E+3	2.00000000E+0	-9.80590689E+0	7.16115900E+6
185	02/09/2022	15:03:26.799	5.85443768E+0	-2.51600000E+3	2.00000000E+0	-9.80590689E+0	7.16115900E+6
186	02/09/2022	15:03:28.339	1.40359242E-1	-2.51400000E+3	2.00000000E+0	-9.80590689E+0	7.16115900E+6
187	02/09/2022	15:03:29.719	4.56781129E+0	-2.51600000E+3	2.00000000E+0	-9.80590689E+0	7.16115900E+6
188	02/09/2022	15:03:31.161	5.65847163E+0	-2.51700000E+3	2.00000000E+0	-9.80590689E+0	7.16115900E+6
189	02/09/2022	15:03:32.555	3.08598585E+0	-2.51800000E+3	2.00000000E+0	-9.80590689E+0	7.16115900E+6
190	02/09/2022	15:03:33.950	5.27382595E+0	-2.51500000E+3	2.00000000E+0	-9.80590689E+0	7.16115900E+6
191	02/09/2022	15:03:35.417	5.10738903E+0	-2.51500000E+3	2.00000000E+0	-9.80590689E+0	7.16115900E+6
192	02/09/2022	15:03:36.810	4.00752481E-1	-2.51800000E+3	2.00000000E+0	-9.80590689E+0	7.16115900E+6
193	02/09/2022	15:03:38.255	2.35772847E+0	-2.51600000E+3	2.00000000E+0	-9.80590689E+0	7.16115900E+6
194	02/09/2022	15:03:39.765	3.25855869E+0	-2.51800000E+3	2.00000000E+0	-9.80590689E+0	7.16115900E+6
195	02/09/2022	15:03:41.127	3.63553447E+0	-2.51600000E+3	2.00000000E+0	-9.80590689E+0	7.16115900E+6
196	02/09/2022	15:03:42.624	1.62141769E+0	-2.51400000E+3	2.00000000E+0	-9.80590689E+0	7.16115900E+6
197	02/09/2022	15:03:44.017	5.61552017E+0	-2.51900000E+3	2.00000000E+0	-9.80590689E+0	7.16115900E+6
198	02/09/2022	15:03:45.413	4.13331123E+0	-2.51600000E+3	2.00000000E+0	-9.80590689E+0	7.16115900E+6
199	02/09/2022	15:03:46.901	2.29176730E+0	-2.51600000E+3	2.00000000E+0	-9.80590689E+0	7.16115900E+6
200	02/09/2022	15:03:48.295	1.82888859E+0	-2.51800000E+3	2.00000000E+0	-9.80590689E+0	7.16115900E+6
201	02/09/2022	15:03:49.669	3.16613635E+0	-2.51900000E+3	2.00000000E+0	-9.80590689E+0	7.16115900E+6
202	02/09/2022	15:03:51.162	2.70555861E+0	-2.51600000E+3	2.00000000E+0	-9.80590689E+0	7.16115900E+6
203	02/09/2022	15:03:52.554	4.69052975E+0	-2.51800000E+3	2.00000000E+0	-9.80590689E+0	7.16115900E+6
204	02/09/2022	15:03:54.076	4.63147149E+0	-2.51500000E+3	2.00000000E+0	-9.80590689E+0	7.16115900E+6
205	02/09/2022	15:03:55.465	4.61651518E+0	-2.51900000E+3	2.00000000E+0	-9.80590689E+0	7.16115900E+6
206	02/09/2022	15:03:56.843	2.29675273E+0	-2.51700000E+3	2.00000000E+0	-9.80590689E+0	7.16115900E+6
207	02/09/2022	15:03:58.357	4.14558308E-1	-2.51500000E+3	2.00000000E+0	-9.80590689E+0	7.16115900E+6
208	02/09/2022	15:03:59.746	4.61114625E+0	-2.51700000E+3	2.00000000E+0	-9.80590689E+0	7.16115900E+6
209	02/09/2022	15:04:01.164	1.20379142E+0	-2.51800000E+3	2.00000000E+0	-9.80590689E+0	7.16115900E+6
210	02/09/2022	15:04:02.512	1.76177693E+0	-2.51400000E+3	2.00000000E+0	-9.80590689E+0	7.16115900E+6
211	02/09/2022	15:04:03.914	2.21200030E+0	-2.51800000E+3	2.00000000E+0	-9.80590689E+0	7.16115900E+6
212	02/09/2022	15:04:05.429	5.21975313E+0	-2.51500000E+3	2.00000000E+0	-9.80590689E+0	7.16115900E+6
213	02/09/2022	15:04:06.799	1.68392741E+0	-2.51500000E+3	2.00000000E+0	-9.80590689E+0	7.16115900E+6
214	02/09/2022	15:04:08.181	3.47945192E+0	-2.51700000E+3	2.00000000E+0	-9.80590689E+0	7.16115900E+6
215	02/09/2022	15:04:09.703	5.82107359E+0	-2.51900000E+3	2.00000000E+0	-9.80590689E+0	7.16115900E+6
216	02/09/2022	15:04:11.108	3.17265576E+0	-2.51800000E+3	2.00000000E+0	-9.80590689E+0	7.16115900E+6
217	02/09/2022	15:04:12.610	1.52477690E+0	-2.51700000E+3	2.00000000E+0	-9.80590689E+0	7.16115900E+6
218	02/09/2022	15:04:14.002	6.77252518E-1	-2.51600000E+3	2.00000000E+0	-9.80590689E+0	7.16115900E+6
219	02/09/2022	15:04:15.368	2.56366539E+0	-2.51700000E+3	2.00000000E+0	-9.80590689E+0	7.16115900E+6
220	02/09/2022	15:04:16.844	3.80427235E+0	-2.51500000E+3	2.00000000E+0	-9.80590689E+0	7.16115900E+6
221	02/09/2022	15:04:18.216	5.86249108E+0	-2.51600000E+3	2.00000000E+0	-9.80590689E+0	7.16115900E+6
222	02/09/2022	15:04:19.613	4.15632094E+0	-2.51700000E+3	2.00000000E+0	-9.80590689E+0	7.16115900E+6
223	02/09/2022	15:04:21.111	5.65118522E+0	-2.51900000E+3	2.00000000E+0	-9.80590689E+0	7.16115900E+6
224	02/09/2022	15:04:22.505	2.30442264E+0	-2.51500000E+3	2.00000000E+0	-9.80590689E+0	7.16115900E+6
225	02/09/2022	15:04:23.991	3.18301013E-1	-2.51600000E+3	2.00000000E+0	-9.80590689E+0	7.16115900E+6
226	02/09/2022	15:04:25.373	4.06658307E+0	-2.51400000E+3	2.00000000E+0	-9.80590689E+0	7.16115900E+6
227	02/09/2022	15:04:26.745	5.64313182E+0	-2.51500000E+3	2.00000000E+0	-9.80590689E+0	7.16115900E+6
228	02/09/2022	15:04:28.208	3.19719946E+0	-2.51500000E+3	2.00000000E+0	-9.80590689E+0	7.16115900E+6
229	02/09/2022	15:04:29.568	1.77711674E+0	-2.51400000E+3	2.00000000E+0	-9.80590689E+0	7.16115900E+6
230	02/09/2022	15:04:31.029	6.17197170E+0	-2.51500000E+3	2.00000000E+0	-9.80590689E+0	7.16115900E+6
231	02/09/2022	15:04:32.500	3.04073342E+0	-2.51700000E+3	2.00000000E+0	-9.80590689E+0	7.16115900E+6
232	02/09/2022	15:04:33.884	1.45076233E+0	-2.51800000E+3	2.00000000E+0	-9.80590689E+0	7.16115900E+6
233	02/09/2022	15:04:35.380	2.39684498E-1	-2.51700000E+3	2.00000000E+0	-9.80590689E+0	7.16115900E+6
234	02/09/2022	15:04:36.774	5.04219485E+0	-2.51500000E+3	2.00000000E+0	-9.80590689E+0	7.16115900E+6
235	02/09/2022	15:04:38.192	2.37345177E+0	-2.51400000E+3	2.00000000E+0	-9.80590689E+0	7.16115900E+6
236	02/09/2022	15:04:39.672	1.90213618E+0	-2.51800000E+3	2.00000000E+0	-9.80590689E+0	7.16115900E+6
237	02/09/2022	15:04:41.071	4.86578706E+0	-2.51500000E+3	2.00000000E+0	-9.80590689E+0	7.16115900E+6
238	02/09/2022	15:04:42.543	2.57325277E-1	-2.51800000E+3	2.00000000E+0	-9.80590689E+0	7.16115900E+6
239	02/09/2022	15:04:43.915	6.24905423E+0	-2.51900000E+3	2.00000000E+0	-9.80590689E+0	7.16115900E+6
240	02/09/2022	15:04:45.301	5.59366094E+0	-2.51600000E+3	2.00000000E+0	-9.80590689E+0	7.16115900E+6
241	02/09/2022	15:04:46.812	5.97293769E+0	-2.51500000E+3	2.00000000E+0	-9.80590689E+0	7.16115900E+6
242	02/09/2022	15:04:48.208	3.15769945E+0	-2.51900000E+3	2.00000000E+0	-9.80590689E+0	7.16115900E+6
243	02/09/2022	15:04:49.651	4.77374821E+0	-2.51600000E+3	2.00000000E+0	-9.80590689E+0	7.16115900E+6
244	02/09/2022	15:04:51.013	9.74844791E-1	-2.51400000E+3	2.00000000E+0	-9.80590689E+0	7.16115900E+6
245	02/09/2022	15:04:52.395	1.78977208E+0	-2.51700000E+3	2.00000000E+0	-9.80590689E+0	7.16115900E+6
246	02/09/2022	15:04:53.880	6.21875811E+0	-2.51600000E+3	2.00000000E+0	-9.80590689E+0	7.16115900E+6
247	02/09/2022	15:04:55.263	5.65233571E+0	-2.51600000E+3	2.00000000E+0	-9.80590689E+0	7.16115900E+6
248	02/09/2022	15:04:56.708	1.55123807E+0	-2.51600000E+3	2.00000000E+0	-9.80590689E+0	7.16115900E+6
249	02/09/2022	15:04:58.216	3.75786944E+0	-2.51500000E+3	2.00000000E+0	-9.80590689E+0	7.16115900E+6
250	02/09/2022	15:04:59.616	4.58967052E+0	-2.51900000E+3	2.00000000E+0	-9.80590689E+0	7.16115900E+6
251	02/09/2022	15:05:01.112	4.14635007E+0	-2.51800000E+3	2.00000000E+0	-9.80590689E+0	7.16115900E+6
252	02/09/2022	15:05:02.506	4.74767054E-1	-2.51400000E+3	2.00000000E+0	-9.80590689E+0	7.16115900E+6
253	02/09/2022	15:05:03.882	3.82421410E+0	-2.51500000E+3	2.00000000E+0	-9.80590689E+0	7.16115900E+6
254	02/09/2022	15:05:05.352	5.07594243E+0	-2.51800000E+3	2.00000000E+0	-9.80590689E+0	7.16115900E+6
255	02/09/2022	15:05:06.722	2.23961195E+0	-2.51700000E+3	2.00000000E+0	-9.80590689E+0	7.16115900E+6
256	02/09/2022	15:05:08.166	1.74490315E+0	-2.51400000E+3	2.00000000E+0	-9.80590689E+0	7.16115900E+6
257	02/09/2022	15:05:09.657	4.52792779E+0	-2.51800000E+3	2.00000000E+0	-9.80590689E+0	7.16115900E+6
258	02/09/2022	15:05:11.038	2.66912657E+0	-2.51500000E+3	2.00000000E+0	-9.80590689E+0	7.16115900E+6
259	02/09/2022	15:05:12.472	5.63814639E+0	-2.51800000E+3	2.00000000E+0	-9.80590689E+0	7.16115900E+6
260	02/09/2022	15:05:13.852	6.44271931E-1	-2.51800000E+3	2.00000000E+0	-9.80590689E+0	7.16115900E+6
261	02/09/2022	15:05:15.241	1.65861673E+0	-2.51400000E+3	2.00000000E+0	-9.80590689E+0	7.16115900E+6
262	02/09/2022	15:05:16.691	2.41640324E+0	-2.51500000E+3	2.00000000E+0	-9.80590689E+0	7.16115900E+6
263	02/09/2022	15:05:18.067	4.74306860E+0	-2.51500000E+3	2.00000000E+0	-9.80590689E+0	7.16115900E+6
264	02/09/2022	15:05:19.530	2.44746635E+0	-2.51400000E+3	2.00000000E+0	-9.80590689E+0	7.16115900E+6
265	02/09/2022	15:05:20.852	3.37820919E+0	-2.51400000E+3	2.00000000E+0	-9.80590689E+0	7.16115900E+6
266	02/09/2022	15:05:22.248	4.30971902E+0	-2.51800000E+3	2.00000000E+0	-9.80590689E+0	7.16115900E+6
267	02/09/2022	15:05:23.736	2.87161203E+0	-2.51700000E+3	2.00000000E+0	-9.80590689E+0	7.16115900E+6
268	02/09/2022	15:05:25.116	4.04012190E+0	-2.51900000E+3	2.00000000E+0	-9.80590689E+0	7.16115900E+6
269	02/09/2022	15:05:26.577	5.85558816E+0	-2.51900000E+3	2.00000000E+0	-9.80590689E+0	7.16115900E+6
270	02/09/2022	15:05:28.098	6.69582614E-1	-2.51500000E+3	2.00000000E+0	-9.80590689E+0	7.16115900E+6
271	02/09/2022	15:05:29.477	4.96357833E+0	-2.51500000E+3	2.00000000E+0	-9.80590689E+0	7.16115900E+6
272	02/09/2022	15:05:30.917	3.69842768E+0	-2.51800000E+3	2.00000000E+0	-9.80590689E+0	7.16115900E+6
273	02/09/2022	15:05:32.277	6.22067559E+0	-2.51900000E+3	2.00000000E+0	-9.80590689E+0	7.16115900E+6
274	02/09/2022	15:05:33.680	3.68193739E+0	-2.51600000E+3	2.00000000E+0	-9.80590689E+0	7.16115900E+6
275	02/09/2022	15:05:35.149	2.22005370E+0	-2.51900000E+3	2.00000000E+0	-9.80590689E+0	7.16115900E+6
276	02/09/2022	15:05:36.535	3.72757331E-1	-2.51600000E+3	2.00000000E+0	-9.80590689E+0	7.16115900E+6
277	02/09/2022	15:05:37.961	4.48689380E-2	-2.51400000E+3	2.00000000E+0	-9.80590689E+0	7.16115900E+6
278	02/09/2022	15:05:39.496	2.64880133E+0	-2.51700000E+3	2.00000000E+0	-9.80590689E+0	7.16115900E+6
279	02/09/2022	15:05:40.862	3.48673833E+0	-2.51800000E+3	2.00000000E+0	-9.80590689E+0	7.16115900E+6
280	02/09/2022	15:05:42.335	4.83012201E+0	-2.51500000E+3	2.00000000E+0	-9.80590689E+0	7.16115900E+6
281	02/09/2022	15:05:43.726	1.82735461E+0	-2.51800000E+3	2.00000000E+0	-9.80590689E+0	7.16115900E+6
282	02/09/2022	15:05:45.104	2.67526249E+0	-2.51800000E+3	2.00000000E+0	-9.80590689E+0	7.16115900E+6
283	02/09/2022	15:05:46.586	5.28801527E+0	-2.51500000E+3	2.00000000E+0	-9.80590689E+0	7.16115900E+6
284	02/09/2022	15:05:47.983	1.82045170E+0	-2.51700000E+3	2.00000000E+0	-9.80590689E+0	7.16115900E+6
285	02/09/2022	15:05:49.468	4.62111712E-1	-2.51700000E+3	2.00000000E+0	-9.80590689E+0	7.16115900E+6
286	02/09/2022	15:05:50.906	1.37444679E+0	-2.51600000E+3	2.00000000E+0	-9.80590689E+0	7.16115900E+6
287	02/09/2022	15:05:52.279	9.19237987E-1	-2.51400000E+3	2.00000000E+0	-9.80590689E+0	7.16115900E+6
288	02/09/2022	15:05:53.788	6.86072907E-1	-2.51400000E+3	2.00000000E+0	-9.80590689E+0	7.16115900E+6
289	02/09/2022	15:05:55.158	4.79752491E+0	-2.51500000E+3	2.00000000E+0	-9.80590689E+0	7.16115900E+6
290	02/09/2022	15:05:56.582	9.63339935E-1	-2.51500000E+3	2.00000000E+0	-9.80590689E+0	7.16115900E+6
291	02/09/2022	15:05:58.089	4.20540833E+0	-2.51600000E+3	2.00000000E+0	-9.80590689E+0	7.16115900E+6
292	02/09/2022	15:05:59.622	4.09918016E+0	-2.51600000E+3	2.00000000E+0	-9.80590689E+0	7.16115900E+6
293	02/09/2022	15:06:01.113	1.93434977E+0	-2.51900000E+3	2.00000000E+0	-9.80590689E+0	7.16115900E+6
294	02/09/2022	15:06:02.494	5.52923375E+0	-2.51600000E+3	2.00000000E+0	-9.80590689E+0	7.16115900E+6
295	02/09/2022	15:06:03.870	1.88257792E+0	-2.51400000E+3	2.00000000E+0	-9.80590689E+0	7.16115900E+6
296	02/09/2022	15:06:05.453	5.18447157E+0	-2.51800000E+3	2.00000000E+0	-9.80590689E+0	7.16115900E+6
297	02/09/2022	15:06:06.857	1.06918461E+0	-2.51800000E+3	2.00000000E+0	-9.80590689E+0	7.16115900E+6
298	02/09/2022	15:06:08.300	5.52233084E+0	-2.51500000E+3	2.00000000E+0	-9.80590689E+0	7.16115900E+6
299	02/09/2022	15:06:09.679	2.69980619E-1	-2.51700000E+3	2.00000000E+0	-9.80590689E+0	7.16115900E+6
300	02/09/2022	15:06:11.073	1.91747598E-3	-2.51600000E+3	2.00000000E+0	-9.80590689E+0	7.16115900E+6
301	02/09/2022	15:06:12.551	4.20655882E+0	-2.51700000E+3	2.00000000E+0	-9.80590689E+0	7.16115900E+6
