#Iteration	Date	Time	Chirp	Phase	RamanAxis	RatioMean	RatioStdDev
1	02/09/2022	14:59:02.427	0.00000000E+0	-3.14159265E+1	5.00000000E+0	2.98600222E-1	0.00000000E+0
2	02/09/2022	14:59:03.868	0.00000000E+0	-3.12065382E+1	5.00000000E+0	3.17284760E-1	0.00000000E+0
3	02/09/2022	14:59:05.343	0.00000000E+0	-3.09971498E+1	5.00000000E+0	3.45494989E-1	0.00000000E+0
4	02/09/2022	14:59:06.800	0.00000000E+0	-3.07877614E+1	5.00000000E+0	3.75780078E-1	0.00000000E+0
5	02/09/2022	14:59:08.287	0.00000000E+0	-3.05779895E+1	5.00000000E+0	3.93417552E-1	0.00000000E+0
6	02/09/2022	14:59:09.684	0.00000000E+0	-3.03686012E+1	5.00000000E+0	4.63011158E-1	0.00000000E+0
7	02/09/2022	14:59:11.113	0.00000000E+0	-3.01592128E+1	5.00000000E+0	4.84907498E-1	0.00000000E+0
8	02/09/2022	14:59:12.648	0.00000000E+0	-2.99498244E+1	5.00000000E+0	5.22658226E-1	0.00000000E+0
9	02/09/2022	14:59:14.047	0.00000000E+0	-2.97404360E+1	5.00000000E+0	5.72776502E-1	0.00000000E+0
10	02/09/2022	14:59:15.610	0.00000000E+0	-2.95310476E+1	5.00000000E+0	5.76096224E-1	0.00000000E+0
11	02/09/2022	14:59:16.995	0.00000000E+0	-2.93216593E+1	5.00000000E+0	5.84870400E-1	0.00000000E+0
12	02/09/2022	14:59:18.361	0.00000000E+0	-2.91122709E+1	5.00000000E+0	6.12289499E-1	0.00000000E+0
13	02/09/2022	14:59:19.913	0.00000000E+0	-2.89024990E+1	5.00000000E+0	6.17565481E-1	0.00000000E+0
14	02/09/2022	14:59:21.289	0.00000000E+0	-2.86931106E+1	5.00000000E+0	6.26101851E-1	0.00000000E+0
15	02/09/2022	14:59:22.759	0.00000000E+0	-2.84837223E+1	5.00000000E+0	6.22761878E-1	0.00000000E+0
16	02/09/2022	14:59:24.229	0.00000000E+0	-2.82743339E+1	5.00000000E+0	5.93725227E-1	0.00000000E+0
17	02/09/2022	14:59:25.623	0.00000000E+0	-2.80649455E+1	5.00000000E+0	5.84711400E-1	0.00000000E+0
18	02/09/2022	14:59:27.062	0.00000000E+0	-2.78555571E+1	5.00000000E+0	5.43877453E-1	0.00000000E+0
19	02/09/2022	14:59:28.453	0.00000000E+0	-2.76461687E+1	5.00000000E+0	5.23379216E-1	0.00000000E+0
20	02/09/2022	14:59:29.847	0.00000000E+0	-2.74363969E+1	5.00000000E+0	4.74201694E-1	0.00000000E+0
21	02/09/2022	14:59:31.414	0.00000000E+0	-2.72270085E+1	5.00000000E+0	4.55279594E-1	0.00000000E+0
22	02/09/2022	14:59:32.816	0.00000000E+0	-2.70176201E+1	5.00000000E+0	4.02343710E-1	0.00000000E+0
23	02/09/2022	14:59:34.263	0.00000000E+0	-2.68082317E+1	5.00000000E+0	3.82063919E-1	0.00000000E+0
24	02/09/2022	14:59:35.779	0.00000000E+0	-2.65988434E+1	5.00000000E+0	3.38628170E-1	0.00000000E+0
25	02/09/2022	14:59:37.165	0.00000000E+0	-2.63894550E+1	5.00000000E+0	3.18860475E-1	0.00000000E+0
26	02/09/2022	14:59:38.712	0.00000000E+0	-2.61800666E+1	5.00000000E+0	2.94724356E-1	0.00000000E+0
27	02/09/2022	14:59:40.096	0.00000000E+0	-2.59706782E+1	5.00000000E+0	2.82108087E-1	0.00000000E+0
28	02/09/2022	14:59:41.512	0.00000000E+0	-2.57609064E+1	5.00000000E+0	2.68465462E-1	0.00000000E+0
29	02/09/2022	14:59:43.034	0.00000000E+0	-2.55515180E+1	5.00000000E+0	2.66938141E-1	0.00000000E+0
30	02/09/2022	14:59:44.422	0.00000000E+0	-2.53421296E+1	5.00000000E+0	2.64874215E-1	0.00000000E+0
31	02/09/2022	14:59:45.943	0.00000000E+0	-2.51327412E+1	5.00000000E+0	2.79333000E-1	0.00000000E+0
32	02/09/2022	14:59:47.324	0.00000000E+0	-2.49233529E+1	5.00000000E+0	3.12915516E-1	0.00000000E+0
33	02/09/2022	14:59:48.725	0.00000000E+0	-2.47139645E+1	5.00000000E+0	3.34905209E-1	0.00000000E+0
34	02/09/2022	14:59:50.214	0.00000000E+0	-2.45045761E+1	5.00000000E+0	3.66344210E-1	0.00000000E+0
35	02/09/2022	14:59:51.645	0.00000000E+0	-2.42948042E+1	5.00000000E+0	4.03035774E-1	0.00000000E+0
36	02/09/2022	14:59:53.072	0.00000000E+0	-2.40854158E+1	5.00000000E+0	4.40346100E-1	0.00000000E+0
37	02/09/2022	14:59:54.571	0.00000000E+0	-2.38760275E+1	5.00000000E+0	4.97947563E-1	0.00000000E+0
38	02/09/2022	14:59:55.962	0.00000000E+0	-2.36666391E+1	5.00000000E+0	5.21138385E-1	0.00000000E+0
39	02/09/2022	14:59:57.463	0.00000000E+0	-2.34572507E+1	5.00000000E+0	5.46992173E-1	0.00000000E+0
40	02/09/2022	14:59:58.822	0.00000000E+0	-2.32478623E+1	5.00000000E+0	5.87718503E-1	0.00000000E+0
41	02/09/2022	15:00:00.231	0.00000000E+0	-2.30384740E+1	5.00000000E+0	6.10504408E-1	0.00000000E+0
42	02/09/2022	15:00:01.781	0.00000000E+0	-2.28290856E+1	5.00000000E+0	6.16175362E-1	0.00000000E+0
43	02/09/2022	15:00:03.161	0.00000000E+0	-2.26193137E+1	5.00000000E+0	6.24587301E-1	0.00000000E+0
44	02/09/2022	15:00:04.614	0.00000000E+0	-2.24099253E+1	5.00000000E+0	6.25880010E-1	0.00000000E+0
45	02/09/2022	15:00:06.014	0.00000000E+0	-2.22005370E+1	5.00000000E+0	6.18123312E-1	0.00000000E+0
46	02/09/2022	15:00:07.411	0.00000000E+0	-2.19911486E+1	5.00000000E+0	5.99657221E-1	0.00000000E+0
47	02/09/2022	15:00:08.869	0.00000000E+0	-2.17817602E+1	5.00000000E+0	5.87311339E-1	0.00000000E+0
48	02/09/2022	15:00:10.273	0.00000000E+0	-2.15723718E+1	5.00000000E+0	5.39197045E-1	0.00000000E+0
49	02/09/2022	15:00:11.666	0.00000000E+0	-2.13629834E+1	5.00000000E+0	5.20746772E-1	0.00000000E+0
50	02/09/2022	15:00:13.147	0.00000000E+0	-2.11532116E+1	5.00000000E+0	4.76154315E-1	0.00000000E+0
51	02/09/2022	15:00:14.543	0.00000000E+0	-2.09438232E+1	5.00000000E+0	4.56737335E-1	0.00000000E+0
52	02/09/2022	15:00:16.077	0.00000000E+0	-2.07344348E+1	5.00000000E+0	4.16788169E-1	0.00000000E+0
53	02/09/2022	15:00:17.459	0.00000000E+0	-2.05250464E+1	5.00000000E+0	3.81993916E-1	0.00000000E+0
54	02/09/2022	15:00:18.871	0.00000000E+0	-2.03156581E+1	5.00000000E+0	3.49663850E-1	0.00000000E+0
55	02/09/2022	15:00:20.384	0.00000000E+0	-2.01062697E+1	5.00000000E+0	3.19187927E-1	0.00000000E+0
56	02/09/2022	15:00:21.775	0.00000000E+0	-1.98968813E+1	5.00000000E+0	2.93193343E-1	0.00000000E+0
57	02/09/2022	15:00:23.211	0.00000000E+0	-1.96874929E+1	5.00000000E+0	2.77362054E-1	0.00000000E+0
58	02/09/2022	15:00:24.706	0.00000000E+0	-1.94777211E+1	5.00000000E+0	2.71194162E-1	0.00000000E+0
59	02/09/2022	15:00:26.095	0.00000000E+0	-1.92683327E+1	5.00000000E+0	2.67380002E-1	0.00000000E+0
60	02/09/2022	15:00:27.621	0.00000000E+0	-1.90589443E+1	5.00000000E+0	2.81039254E-1	0.00000000E+0
61	02/09/2022	15:00:29.010	0.00000000E+0	-1.88495559E+1	5.00000000E+0	2.87587614E-1	0.00000000E+0
62	02/09/2022	15:00:30.379	0.00000000E+0	-1.86401675E+1	5.00000000E+0	3.13890171E-1	0.00000000E+0
63	02/09/2022	15:00:31.933	0.00000000E+0	-1.84307792E+1	5.00000000E+0	3.43715571E-1	0.00000000E+0
64	02/09/2022	15:00:33.321	0.00000000E+0	-1.82213908E+1	5.00000000E+0	3.79229539E-1	0.00000000E+0
65	02/09/2022	15:00:34.855	0.00000000E+0	-1.80116189E+1	5.00000000E+0	4.37844944E-1	0.00000000E+0
66	02/09/2022	15:00:36.252	0.00000000E+0	-1.78022305E+1	5.00000000E+0	4.43389666E-1	0.00000000E+0
67	02/09/2022	15:00:37.694	0.00000000E+0	-1.75928422E+1	5.00000000E+0	4.86617398E-1	0.00000000E+0
68	02/09/2022	15:00:39.226	0.00000000E+0	-1.73834538E+1	5.00000000E+0	5.23724016E-1	0.00000000E+0
69	02/09/2022	15:00:40.641	0.00000000E+0	-1.71740654E+1	5.00000000E+0	5.48492996E-1	0.00000000E+0
70	02/09/2022	15:00:42.052	0.00000000E+0	-1.69646770E+1	5.00000000E+0	5.79834364E-1	0.00000000E+0
71	02/09/2022	15:00:43.533	0.00000000E+0	-1.67552887E+1	5.00000000E+0	6.10799151E-1	0.00000000E+0
72	02/09/2022	15:00:44.953	0.00000000E+0	-1.65459003E+1	5.00000000E+0	6.18757441E-1	0.00000000E+0
73	02/09/2022	15:00:46.426	0.00000000E+0	-1.63361284E+1	5.00000000E+0	6.24064663E-1	0.00000000E+0
74	02/09/2022	15:00:47.816	0.00000000E+0	-1.61267400E+1	5.00000000E+0	6.22301297E-1	0.00000000E+0
75	02/09/2022	15:00:49.203	0.00000000E+0	-1.59173516E+1	5.00000000E+0	6.16990655E-1	0.00000000E+0
76	02/09/2022	15:00:50.710	0.00000000E+0	-1.57079633E+1	5.00000000E+0	6.06111990E-1	0.00000000E+0
77	02/09/2022	15:00:52.101	0.00000000E+0	-1.54985749E+1	5.00000000E+0	5.78404355E-1	0.00000000E+0
78	02/09/2022	15:00:53.533	0.00000000E+0	-1.52891865E+1	5.00000000E+0	5.62225914E-1	0.00000000E+0
79	02/09/2022	15:00:54.909	0.00000000E+0	-1.50797981E+1	5.00000000E+0	5.34640941E-1	0.00000000E+0
80	02/09/2022	15:00:56.301	0.00000000E+0	-1.48700263E+1	5.00000000E+0	4.79930886E-1	0.00000000E+0
81	02/09/2022	15:00:57.872	0.00000000E+0	-1.46606379E+1	5.00000000E+0	4.73840876E-1	0.00000000E+0
82	02/09/2022	15:00:59.253	0.00000000E+0	-1.44512495E+1	5.00000000E+0	4.19488203E-1	0.00000000E+0
83	02/09/2022	15:01:00.692	0.00000000E+0	-1.42418611E+1	5.00000000E+0	3.74919068E-1	0.00000000E+0
84	02/09/2022	15:01:02.200	0.00000000E+0	-1.40324728E+1	5.00000000E+0	3.56444006E-1	0.00000000E+0
85	02/09/2022	15:01:03.594	0.00000000E+0	-1.38230844E+1	5.00000000E+0	3.18507896E-1	0.00000000E+0
86	02/09/2022	15:01:05.081	0.00000000E+0	-1.36136960E+1	5.00000000E+0	3.14509381E-1	0.00000000E+0
87	02/09/2022	15:01:06.453	0.00000000E+0	-1.34043076E+1	5.00000000E+0	2.86269616E-1	0.00000000E+0
88	02/09/2022	15:01:07.860	0.00000000E+0	-1.31945357E+1	5.00000000E+0	2.72953668E-1	0.00000000E+0
89	02/09/2022	15:01:09.337	0.00000000E+0	-1.29851474E+1	5.00000000E+0	2.73067353E-1	0.00000000E+0
90	02/09/2022	15:01:10.744	0.00000000E+0	-1.27757590E+1	5.00000000E+0	2.71972443E-1	0.00000000E+0
91	02/09/2022	15:01:12.171	0.00000000E+0	-1.25663706E+1	5.00000000E+0	2.98198896E-1	0.00000000E+0
92	02/09/2022	15:01:13.678	0.00000000E+0	-1.23569822E+1	5.00000000E+0	3.25354940E-1	0.00000000E+0
93	02/09/2022	15:01:15.070	0.00000000E+0	-1.21475939E+1	5.00000000E+0	3.24673691E-1	0.00000000E+0
94	02/09/2022	15:01:16.571	0.00000000E+0	-1.19382055E+1	5.00000000E+0	3.64814191E-1	0.00000000E+0
95	02/09/2022	15:01:17.976	0.00000000E+0	-1.17284336E+1	5.00000000E+0	4.24804553E-1	0.00000000E+0
96	02/09/2022	15:01:19.355	0.00000000E+0	-1.15190452E+1	5.00000000E+0	4.36804562E-1	0.00000000E+0
97	02/09/2022	15:01:20.846	0.00000000E+0	-1.13096569E+1	5.00000000E+0	4.89302464E-1	0.00000000E+0
98	02/09/2022	15:01:22.245	0.00000000E+0	-1.11002685E+1	5.00000000E+0	4.96617322E-1	0.00000000E+0
99	02/09/2022	15:01:23.692	0.00000000E+0	-1.08908801E+1	5.00000000E+0	5.31058225E-1	0.00000000E+0
100	02/09/2022	15:01:25.021	0.00000000E+0	-1.06814917E+1	5.00000000E+0	5.63275035E-1	0.00000000E+0
101	02/09/2022	15:01:26.414	0.00000000E+0	-1.04721033E+1	5.00000000E+0	6.08012845E-1	0.00000000E+0
102	02/09/2022	15:01:27.891	0.00000000E+0	-1.02627150E+1	5.00000000E+0	6.09591053E-1	0.00000000E+0
103	02/09/2022	15:01:29.319	0.00000000E+0	-1.00529431E+1	5.00000000E+0	6.27137188E-1	0.00000000E+0
104	02/09/2022	15:01:30.777	0.00000000E+0	-9.84355472E+0	5.00000000E+0	6.34162039E-1	0.00000000E+0
105	02/09/2022	15:01:32.358	0.00000000E+0	-9.63416634E+0	5.00000000E+0	6.26902787E-1	0.00000000E+0
106	02/09/2022	15:01:33.724	0.00000000E+0	-9.42477796E+0	5.00000000E+0	6.15205298E-1	0.00000000E+0
107	02/09/2022	15:01:35.254	0.00000000E+0	-9.21538958E+0	5.00000000E+0	5.90930488E-1	0.00000000E+0
108	02/09/2022	15:01:36.694	0.00000000E+0	-9.00600121E+0	5.00000000E+0	5.66792548E-1	0.00000000E+0
109	02/09/2022	15:01:38.071	0.00000000E+0	-8.79661283E+0	5.00000000E+0	5.43535670E-1	0.00000000E+0
110	02/09/2022	15:01:39.539	0.00000000E+0	-8.58684096E+0	5.00000000E+0	5.00830979E-1	0.00000000E+0
111	02/09/2022	15:01:40.925	0.00000000E+0	-8.37745258E+0	5.00000000E+0	4.48246744E-1	0.00000000E+0
112	02/09/2022	15:01:42.383	0.00000000E+0	-8.16806420E+0	5.00000000E+0	4.05058241E-1	0.00000000E+0
113	02/09/2022	15:01:43.883	0.00000000E+0	-7.95867582E+0	5.00000000E+0	3.71022681E-1	0.00000000E+0
114	02/09/2022	15:01:45.279	0.00000000E+0	-7.74928745E+0	5.00000000E+0	3.46567796E-1	0.00000000E+0
115	02/09/2022	15:01:46.777	0.00000000E+0	-7.53989907E+0	5.00000000E+0	3.06205120E-1	0.00000000E+0
116	02/09/2022	15:01:48.176	0.00000000E+0	-7.33051069E+0	5.00000000E+0	2.93251609E-1	0.00000000E+0
117	02/09/2022	15:01:49.564	0.00000000E+0	-7.12112231E+0	5.00000000E+0	2.90650977E-1	0.00000000E+0
118	02/09/2022	15:01:51.016	0.00000000E+0	-6.91135044E+0	5.00000000E+0	2.67235923E-1	0.00000000E+0
119	02/09/2022	15:01:52.406	0.00000000E+0	-6.70196206E+0	5.00000000E+0	2.71482202E-1	0.00000000E+0
120	02/09/2022	15:01:53.893	0.00000000E+0	-6.49257368E+0	5.00000000E+0	2.79796291E-1	0.00000000E+0
121	02/09/2022	15:01:55.343	0.00000000E+0	-6.28318531E+0	5.00000000E+0	3.05201415E-1	0.00000000E+0
122	02/09/2022	15:01:56.714	0.00000000E+0	-6.07379693E+0	5.00000000E+0	3.16104644E-1	0.00000000E+0
123	02/09/2022	15:01:58.225	0.00000000E+0	-5.86440855E+0	5.00000000E+0	3.25404194E-1	0.00000000E+0
124	02/09/2022	15:01:59.624	0.00000000E+0	-5.65502017E+0	5.00000000E+0	3.88283176E-1	0.00000000E+0
125	02/09/2022	15:02:01.025	0.00000000E+0	-5.44524830E+0	5.00000000E+0	3.95549857E-1	0.00000000E+0
126	02/09/2022	15:02:02.514	0.00000000E+0	-5.23585992E+0	5.00000000E+0	4.53328125E-1	0.00000000E+0
127	02/09/2022	15:02:03.911	0.00000000E+0	-5.02647155E+0	5.00000000E+0	4.95043396E-1	0.00000000E+0
128	02/09/2022	15:02:05.423	0.00000000E+0	-4.81708317E+0	5.00000000E+0	5.36515873E-1	0.00000000E+0
129	02/09/2022	15:02:06.816	0.00000000E+0	-4.60769479E+0	5.00000000E+0	5.50904908E-1	0.00000000E+0
130	02/09/2022	15:02:08.187	0.00000000E+0	-4.39830641E+0	5.00000000E+0	5.87620713E-1	0.00000000E+0
131	02/09/2022	15:02:09.738	0.00000000E+0	-4.18891804E+0	5.00000000E+0	6.10332342E-1	0.00000000E+0
132	02/09/2022	15:02:11.123	0.00000000E+0	-3.97952966E+0	5.00000000E+0	6.29583856E-1	0.00000000E+0
133	02/09/2022	15:02:12.548	0.00000000E+0	-3.76975779E+0	5.00000000E+0	6.31019258E-1	0.00000000E+0
134	02/09/2022	15:02:13.931	0.00000000E+0	-3.56036941E+0	5.00000000E+0	6.29079086E-1	0.00000000E+0
135	02/09/2022	15:02:15.328	0.00000000E+0	-3.35098103E+0	5.00000000E+0	6.18264867E-1	0.00000000E+0
136	02/09/2022	15:02:16.822	0.00000000E+0	-3.14159265E+0	5.00000000E+0	5.99105494E-1	0.00000000E+0
137	02/09/2022	15:02:18.205	0.00000000E+0	-2.93220428E+0	5.00000000E+0	5.79743231E-1	0.00000000E+0
138	02/09/2022	15:02:19.653	0.00000000E+0	-2.72281590E+0	5.00000000E+0	5.41211057E-1	0.00000000E+0
139	02/09/2022	15:02:21.151	0.00000000E+0	-2.51342752E+0	5.00000000E+0	5.21367657E-1	0.00000000E+0
140	02/09/2022	15:02:22.560	0.00000000E+0	-2.30365565E+0	5.00000000E+0	4.83195360E-1	0.00000000E+0
141	02/09/2022	15:02:23.970	0.00000000E+0	-2.09426727E+0	5.00000000E+0	4.47432555E-1	0.00000000E+0
142	02/09/2022	15:02:25.414	0.00000000E+0	-1.88487889E+0	5.00000000E+0	4.12392675E-1	0.00000000E+0
143	02/09/2022	15:02:26.782	0.00000000E+0	-1.67549052E+0	5.00000000E+0	3.83232656E-1	0.00000000E+0
144	02/09/2022	15:02:28.299	0.00000000E+0	-1.46610214E+0	5.00000000E+0	3.36859392E-1	0.00000000E+0
145	02/09/2022	15:02:29.667	0.00000000E+0	-1.25671376E+0	5.00000000E+0	3.21823377E-1	0.00000000E+0
146	02/09/2022	15:02:31.048	0.00000000E+0	-1.04732538E+0	5.00000000E+0	2.96399651E-1	0.00000000E+0
147	02/09/2022	15:02:32.551	0.00000000E+0	-8.37937005E-1	5.00000000E+0	2.81603352E-1	0.00000000E+0
148	02/09/2022	15:02:33.928	0.00000000E+0	-6.28165133E-1	5.00000000E+0	2.69841553E-1	0.00000000E+0
149	02/09/2022	15:02:35.371	0.00000000E+0	-4.18776755E-1	5.00000000E+0	2.71873612E-1	0.00000000E+0
150	02/09/2022	15:02:36.756	0.00000000E+0	-2.09388378E-1	5.00000000E+0	2.78912984E-1	0.00000000E+0
151	02/09/2022	15:02:38.151	0.00000000E+0	0.00000000E+0	5.00000000E+0	3.03631665E-1	0.00000000E+0
152	02/09/2022	15:02:39.645	0.00000000E+0	2.09388378E-1	5.00000000E+0	3.28123473E-1	0.00000000E+0
153	02/09/2022	15:02:41.014	0.00000000E+0	4.18776755E-1	5.00000000E+0	3.65582705E-1	0.00000000E+0
154	02/09/2022	15:02:42.464	0.00000000E+0	6.28165133E-1	5.00000000E+0	3.90503622E-1	0.00000000E+0
155	02/09/2022	15:02:43.826	0.00000000E+0	8.37937005E-1	5.00000000E+0	4.33058973E-1	0.00000000E+0
156	02/09/2022	15:02:45.191	0.00000000E+0	1.04732538E+0	5.00000000E+0	4.56950791E-1	0.00000000E+0
157	02/09/2022	15:02:46.693	0.00000000E+0	1.25671376E+0	5.00000000E+0	4.95143607E-1	0.00000000E+0
158	02/09/2022	15:02:48.081	0.00000000E+0	1.46610214E+0	5.00000000E+0	5.48193323E-1	0.00000000E+0
159	02/09/2022	15:02:49.531	0.00000000E+0	1.67549052E+0	5.00000000E+0	5.54776099E-1	0.00000000E+0
160	02/09/2022	15:02:51.029	0.00000000E+0	1.88487889E+0	5.00000000E+0	5.80296571E-1	0.00000000E+0
161	02/09/2022	15:02:52.395	0.00000000E+0	2.09426727E+0	5.00000000E+0	6.12788757E-1	0.00000000E+0
162	02/09/2022	15:02:53.908	0.00000000E+0	2.30365565E+0	5.00000000E+0	6.35554639E-1	0.00000000E+0
163	02/09/2022	15:02:55.282	0.00000000E+0	2.51342752E+0	5.00000000E+0	6.32805717E-1	0.00000000E+0
164	02/09/2022	15:02:56.668	0.00000000E+0	2.72281590E+0	5.00000000E+0	6.32296014E-1	0.00000000E+0
165	02/09/2022	15:02:58.127	0.00000000E+0	2.93220428E+0	5.00000000E+0	6.33489497E-1	0.00000000E+0
166	02/09/2022	15:02:59.506	0.00000000E+0	3.14159265E+0	5.00000000E+0	6.16382548E-1	0.00000000E+0
167	02/09/2022	15:03:00.934	0.00000000E+0	3.35098103E+0	5.00000000E+0	5.87983802E-1	0.00000000E+0
168	02/09/2022	15:03:02.432	0.00000000E+0	3.56036941E+0	5.00000000E+0	5.58783437E-1	0.00000000E+0
169	02/09/2022	15:03:03.808	0.00000000E+0	3.76975779E+0	5.00000000E+0	5.22789062E-1	0.00000000E+0
170	02/09/2022	15:03:05.346	0.00000000E+0	3.97952966E+0	5.00000000E+0	4.97645669E-1	0.00000000E+0
171	02/09/2022	15:03:06.711	0.00000000E+0	4.18891804E+0	5.00000000E+0	4.51962333E-1	0.00000000E+0
172	02/09/2022	15:03:08.092	0.00000000E+0	4.39830641E+0	5.00000000E+0	4.07739164E-1	0.00000000E+0
173	02/09/2022	15:03:09.583	0.00000000E+0	4.60769479E+0	5.00000000E+0	3.66581365E-1	0.00000000E+0
174	02/09/2022	15:03:10.981	0.00000000E+0	4.81708317E+0	5.00000000E+0	3.32257354E-1	0.00000000E+0
175	02/09/2022	15:03:12.449	0.00000000E+0	5.02647155E+0	5.00000000E+0	3.07011850E-1	0.00000000E+0
176	02/09/2022	15:03:13.939	0.00000000E+0	5.23585992E+0	5.00000000E+0	2.95253038E-1	0.00000000E+0
177	02/09/2022	15:03:15.316	0.00000000E+0	5.44524830E+0	5.00000000E+0	2.71808491E-1	0.00000000E+0
178	02/09/2022	15:03:16.812	0.00000000E+0	5.65502017E+0	5.00000000E+0	2.67503214E-1	0.00000000E+0
179	02/09/2022	15:03:18.188	0.00000000E+0	5.86440855E+0	5.00000000E+0	2.77392662E-1	0.00000000E+0
180	02/09/2022	15:03:19.611	0.00000000E+0	6.07379693E+0	5.00000000E+0	2.80611305E-1	0.00000000E+0
181	02/09/2022	15:03:21.102	0.00000000E+0	6.28318531E+0	5.00000000E+0	3.01071904E-1	0.00000000E+0
182	02/09/2022	15:03:22.490	0.00000000E+0	6.49257368E+0	5.00000000E+0	3.22957946E-1	0.00000000E+0
183	02/09/2022	15:03:24.012	0.00000000E+0	6.70196206E+0	5.00000000E+0	3.43530424E-1	0.00000000E+0
184	02/09/2022	15:03:25.408	0.00000000E+0	6.91135044E+0	5.00000000E+0	3.93695927E-1	0.00000000E+0
185	02/09/2022	15:03:26.799	0.00000000E+0	7.12112231E+0	5.00000000E+0	4.10895105E-1	0.00000000E+0
186	02/09/2022	15:03:28.339	0.00000000E+0	7.33051069E+0	5.00000000E+0	4.38389403E-1	0.00000000E+0
187	02/09/2022	15:03:29.719	0.00000000E+0	7.53989907E+0	5.00000000E+0	4.85899175E-1	0.00000000E+0
188	02/09/2022	15:03:31.161	0.00000000E+0	7.74928745E+0	5.00000000E+0	5.29903869E-1	0.00000000E+0
189	02/09/2022	15:03:32.555	0.00000000E+0	7.95867582E+0	5.00000000E+0	5.71540540E-1	0.00000000E+0
190	02/09/2022	15:03:33.950	0.00000000E+0	8.16806420E+0	5.00000000E+0	5.98764607E-1	0.00000000E+0
191	02/09/2022	15:03:35.417	0.00000000E+0	8.37745258E+0	5.00000000E+0	6.11404946E-1	0.00000000E+0
192	02/09/2022	15:03:36.810	0.00000000E+0	8.58684096E+0	5.00000000E+0	6.26648571E-1	0.00000000E+0
193	02/09/2022	15:03:38.255	0.00000000E+0	8.79661283E+0	5.00000000E+0	6.40081696E-1	0.00000000E+0
194	02/09/2022	15:03:39.765	0.00000000E+0	9.00600121E+0	5.00000000E+0	6.36166727E-1	0.00000000E+0
195	02/09/2022	15:03:41.127	0.00000000E+0	9.21538958E+0	5.00000000E+0	6.25869573E-1	0.00000000E+0
196	02/09/2022	15:03:42.624	0.00000000E+0	9.42477796E+0	5.00000000E+0	6.22700167E-1	0.00000000E+0
197	02/09/2022	15:03:44.017	0.00000000E+0	9.63416634E+0	5.00000000E+0	5.77850368E-1	0.00000000E+0
198	02/09/2022	15:03:45.413	0.00000000E+0	9.84355472E+0	5.00000000E+0	5.65701506E-1	0.00000000E+0
199	02/09/2022	15:03:46.901	0.00000000E+0	1.00529431E+1	5.00000000E+0	5.19765526E-1	0.00000000E+0
200	02/09/2022	15:03:48.295	0.00000000E+0	1.02627150E+1	5.00000000E+0	4.63526622E-1	0.00000000E+0
201	02/09/2022	15:03:49.669	0.00000000E+0	1.04721033E+1	5.00000000E+0	4.27744877E-1	0.00000000E+0
202	02/09/2022	15:03:51.162	0.00000000E+0	1.06814917E+1	5.00000000E+0	4.16217052E-1	0.00000000E+0
203	02/09/2022	15:03:52.554	0.00000000E+0	1.08908801E+1	5.00000000E+0	3.56859967E-1	0.00000000E+0
204	02/09/2022	15:03:54.076	0.00000000E+0	1.11002685E+1	5.00000000E+0	3.44316420E-1	0.00000000E+0
205	02/09/2022	15:03:55.465	0.00000000E+0	1.13096569E+1	5.00000000E+0	2.96564382E-1	0.00000000E+0
206	02/09/2022	15:03:56.843	0.00000000E+0	1.15190452E+1	5.00000000E+0	2.86007587E-1	0.00000000E+0
207	02/09/2022	15:03:58.357	0.00000000E+0	1.17284336E+1	5.00000000E+0	2.70112664E-1	0.00000000E+0
208	02/09/2022	15:03:59.746	0.00000000E+0	1.19382055E+1	5.00000000E+0	2.67811697E-1	0.00000000E+0
209	02/09/2022	15:04:01.164	0.00000000E+0	1.21475939E+1	5.00000000E+0	2.77674761E-1	0.00000000E+0
210	02/09/2022	15:04:02.512	0.00000000E+0	1.23569822E+1	5.00000000E+0	2.81284204E-1	0.00000000E+0
211	02/09/2022	15:04:03.914	0.00000000E+0	1.25663706E+1	5.00000000E+0	3.14016649E-1	0.00000000E+0
212	02/09/2022	15:04:05.429	0.00000000E+0	1.27757590E+1	5.00000000E+0	3.32350939E-1	0.00000000E+0
213	02/09/2022	15:04:06.799	0.00000000E+0	1.29851474E+1	5.00000000E+0	3.38381995E-1	0.00000000E+0
214	02/09/2022	15:04:08.181	0.00000000E+0	1.31945357E+1	5.00000000E+0	3.70892011E-1	0.00000000E+0
215	02/09/2022	15:04:09.703	0.00000000E+0	1.34043076E+1	5.00000000E+0	4.24526785E-1	0.00000000E+0
216	02/09/2022	15:04:11.108	0.00000000E+0	1.36136960E+1	5.00000000E+0	4.65636318E-1	0.00000000E+0
217	02/09/2022	15:04:12.610	0.00000000E+0	1.38230844E+1	5.00000000E+0	5.06510106E-1	0.00000000E+0
218	02/09/2022	15:04:14.002	0.00000000E+0	1.40324728E+1	5.00000000E+0	5.30701962E-1	0.00000000E+0
219	02/09/2022	15:04:15.368	0.00000000E+0	1.42418611E+1	5.00000000E+0	5.54289193E-1	0.00000000E+0
220	02/09/2022	15:04:16.844	0.00000000E+0	1.44512495E+1	5.00000000E+0	5.90702932E-1	0.00000000E+0
221	02/09/2022	15:04:18.216	0.00000000E+0	1.46606379E+1	5.00000000E+0	6.13035865E-1	0.00000000E+0
222	02/09/2022	15:04:19.613	0.00000000E+0	1.48700263E+1	5.00000000E+0	6.26379111E-1	0.00000000E+0
223	02/09/2022	15:04:21.111	0.00000000E+0	1.50797981E+1	5.00000000E+0	6.29439350E-1	0.00000000E+0
224	02/09/2022	15:04:22.505	0.00000000E+0	1.52891865E+1	5.00000000E+0	6.31354346E-1	0.00000000E+0
225	02/09/2022	15:04:23.991	0.00000000E+0	1.54985749E+1	5.00000000E+0	6.16551957E-1	0.00000000E+0
226	02/09/2022	15:04:25.373	0.00000000E+0	1.57079633E+1	5.00000000E+0	6.06991956E-1	0.00000000E+0
227	02/09/2022	15:04:26.745	0.00000000E+0	1.59173516E+1	5.00000000E+0	5.74277220E-1	0.00000000E+0
228	02/09/2022	15:04:28.208	0.00000000E+0	1.61267400E+1	5.00000000E+0	5.49827408E-1	0.00000000E+0
229	02/09/2022	15:04:29.568	0.00000000E+0	1.63361284E+1	5.00000000E+0	5.26293689E-1	0.00000000E+0
230	02/09/2022	15:04:31.029	0.00000000E+0	1.65459003E+1	5.00000000E+0	4.88548763E-1	0.00000000E+0
231	02/09/2022	15:04:32.500	0.00000000E+0	1.67552887E+1	5.00000000E+0	4.38713892E-1	0.00000000E+0
232	02/09/2022	15:04:33.884	0.00000000E+0	1.69646770E+1	5.00000000E+0	3.93246671E-1	0.00000000E+0
233	02/09/2022	15:04:35.380	0.00000000E+0	1.71740654E+1	5.00000000E+0	3.64336437E-1	0.00000000E+0
234	02/09/2022	15:04:36.774	0.00000000E+0	1.73834538E+1	5.00000000E+0	3.39106406E-1	0.00000000E+0
235	02/09/2022	15:04:38.192	0.00000000E+0	1.75928422E+1	5.00000000E+0	3.11652349E-1	0.00000000E+0
236	02/09/2022	15:04:39.672	0.00000000E+0	1.78022305E+1	5.00000000E+0	2.89151145E-1	0.00000000E+0
237	02/09/2022	15:04:41.071	0.00000000E+0	1.80116189E+1	5.00000000E+0	2.76869784E-1	0.00000000E+0
238	02/09/2022	15:04:42.543	0.00000000E+0	1.82213908E+1	5.00000000E+0	2.67779305E-1	0.00000000E+0
239	02/09/2022	15:04:43.915	0.00000000E+0	1.84307792E+1	5.00000000E+0	2.72549358E-1	0.00000000E+0
240	02/09/2022	15:04:45.301	0.00000000E+0	1.86401675E+1	5.00000000E+0	2.79597397E-1	0.00000000E+0
241	02/09/2022	15:04:46.812	0.00000000E+0	1.88495559E+1	5.00000000E+0	2.86403222E-1	0.00000000E+0
242	02/09/2022	15:04:48.208	0.00000000E+0	1.90589443E+1	5.00000000E+0	3.31583674E-1	0.00000000E+0
243	02/09/2022	15:04:49.651	0.00000000E+0	1.92683327E+1	5.00000000E+0	3.40310458E-1	0.00000000E+0
244	02/09/2022	15:04:51.013	0.00000000E+0	1.94777211E+1	5.00000000E+0	3.76790906E-1	0.00000000E+0
245	02/09/2022	15:04:52.395	0.00000000E+0	1.96874929E+1	5.00000000E+0	4.20523616E-1	0.00000000E+0
246	02/09/2022	15:04:53.880	0.00000000E+0	1.98968813E+1	5.00000000E+0	4.44770495E-1	0.00000000E+0
247	02/09/2022	15:04:55.263	0.00000000E+0	2.01062697E+1	5.00000000E+0	4.78132810E-1	0.00000000E+0
248	02/09/2022	15:04:56.708	0.00000000E+0	2.03156581E+1	5.00000000E+0	5.30499307E-1	0.00000000E+0
249	02/09/2022	15:04:58.216	0.00000000E+0	2.05250464E+1	5.00000000E+0	5.61595052E-1	0.00000000E+0
250	02/09/2022	15:04:59.616	0.00000000E+0	2.07344348E+1	5.00000000E+0	5.97011428E-1	0.00000000E+0
251	02/09/2022	15:05:01.112	0.00000000E+0	2.09438232E+1	5.00000000E+0	6.11934065E-1	0.00000000E+0
252	02/09/2022	15:05:02.506	0.00000000E+0	2.11532116E+1	5.00000000E+0	6.14799716E-1	0.00000000E+0
253	02/09/2022	15:05:03.882	0.00000000E+0	2.13629834E+1	5.00000000E+0	6.26266859E-1	0.00000000E+0
254	02/09/2022	15:05:05.352	0.00000000E+0	2.15723718E+1	5.00000000E+0	6.22428364E-1	0.00000000E+0
255	02/09/2022	15:05:06.722	0.00000000E+0	2.17817602E+1	5.00000000E+0	6.14444375E-1	0.00000000E+0
256	02/09/2022	15:05:08.166	0.00000000E+0	2.19911486E+1	5.00000000E+0	6.09544449E-1	0.00000000E+0
257	02/09/2022	15:05:09.657	0.00000000E+0	2.22005370E+1	5.00000000E+0	5.72188781E-1	0.00000000E+0
258	02/09/2022	15:05:11.038	0.00000000E+0	2.24099253E+1	5.00000000E+0	5.55889071E-1	0.00000000E+0
259	02/09/2022	15:05:12.472	0.00000000E+0	2.26193137E+1	5.00000000E+0	5.09551484E-1	0.00000000E+0
260	02/09/2022	15:05:13.852	0.00000000E+0	2.28290856E+1	5.00000000E+0	4.69271467E-1	0.00000000E+0
261	02/09/2022	15:05:15.241	0.00000000E+0	2.30384740E+1	5.00000000E+0	4.51239644E-1	0.00000000E+0
262	02/09/2022	15:05:16.691	0.00000000E+0	2.32478623E+1	5.00000000E+0	4.05397550E-1	0.00000000E+0
263	02/09/2022	15:05:18.067	0.00000000E+0	2.34572507E+1	5.00000000E+0	3.74197109E-1	0.00000000E+0
264	02/09/2022	15:05:19.530	0.00000000E+0	2.36666391E+1	5.00000000E+0	3.43835309E-1	0.00000000E+0
265	02/09/2022	15:05:20.852	0.00000000E+0	2.38760275E+1	5.00000000E+0	3.24997265E-1	0.00000000E+0
266	02/09/2022	15:05:22.248	0.00000000E+0	2.40854158E+1	5.00000000E+0	2.85763349E-1	0.00000000E+0
267	02/09/2022	15:05:23.736	0.00000000E+0	2.42948042E+1	5.00000000E+0	2.74387100E-1	0.00000000E+0
268	02/09/2022	15:05:25.116	0.00000000E+0	2.45045761E+1	5.00000000E+0	2.74245379E-1	0.00000000E+0
269	02/09/2022	15:05:26.577	0.00000000E+0	2.47139645E+1	5.00000000E+0	2.73937902E-1	0.00000000E+0
270	02/09/2022	15:05:28.098	0.00000000E+0	2.49233529E+1	5.00000000E+0	2.88548683E-1	0.00000000E+0
271	02/09/2022	15:05:29.477	0.00000000E+0	2.51327412E+1	5.00000000E+0	2.96549056E-1	0.00000000E+0
272	02/09/2022	15:05:30.917	0.00000000E+0	2.53421296E+1	5.00000000E+0	3.33739231E-1	0.00000000E+0
273	02/09/2022	15:05:32.277	0.00000000E+0	2.55515180E+1	5.00000000E+0	3.67203795E-1	0.00000000E+0
274	02/09/2022	15:05:33.680	0.00000000E+0	2.57609064E+1	5.00000000E+0	3.91913760E-1	0.00000000E+0
275	02/09/2022	15:05:35.149	0.00000000E+0	2.59706782E+1	5.00000000E+0	4.31604808E-1	0.00000000E+0
276	02/09/2022	15:05:36.535	0.00000000E+0	2.61800666E+1	5.00000000E+0	4.48913332E-1	0.00000000E+0
277	02/09/2022	15:05:37.961	0.00000000E+0	2.63894550E+1	5.00000000E+0	4.90462249E-1	0.00000000E+0
278	02/09/2022	15:05:39.496	0.00000000E+0	2.65988434E+1	5.00000000E+0	5.38004290E-1	0.00000000E+0
279	02/09/2022	15:05:40.862	0.00000000E+0	2.68082317E+1	5.00000000E+0	5.62797653E-1	0.00000000E+0
280	02/09/2022	15:05:42.335	0.00000000E+0	2.70176201E+1	5.00000000E+0	5.84695090E-1	0.00000000E+0
281	02/09/2022	15:05:43.726	0.00000000E+0	2.72270085E+1	5.00000000E+0	6.16162429E-1	0.00000000E+0
282	02/09/2022	15:05:45.104	0.00000000E+0	2.74363969E+1	5.00000000E+0	6.23216145E-1	0.00000000E+0
283	02/09/2022	15:05:46.586	0.00000000E+0	2.76461687E+1	5.00000000E+0	6.35269133E-1	0.00000000E+0
284	02/09/2022	15:05:47.983	0.00000000E+0	2.78555571E+1	5.00000000E+0	6.26039326E-1	0.00000000E+0
285	02/09/2022	15:05:49.468	0.00000000E+0	2.80649455E+1	5.00000000E+0	6.16681433E-1	0.00000000E+0
286	02/09/2022	15:05:50.906	0.00000000E+0	2.82743339E+1	5.00000000E+0	6.00147045E-1	0.00000000E+0
287	02/09/2022	15:05:52.279	0.00000000E+0	2.84837223E+1	5.00000000E+0	5.81799039E-1	0.00000000E+0
288	02/09/2022	15:05:53.788	0.00000000E+0	2.86931106E+1	5.00000000E+0	5.53656607E-1	0.00000000E+0
289	02/09/2022	15:05:55.158	0.00000000E+0	2.89024990E+1	5.00000000E+0	5.19269426E-1	0.00000000E+0
290	02/09/2022	15:05:56.582	0.00000000E+0	2.91122709E+1	5.00000000E+0	4.77974017E-1	0.00000000E+0
291	02/09/2022	15:05:58.089	0.00000000E+0	2.93216593E+1	5.00000000E+0	4.31342625E-1	0.00000000E+0
292	02/09/2022	15:05:59.622	0.00000000E+0	2.95310476E+1	5.00000000E+0	3.97961844E-1	0.00000000E+0
293	02/09/2022	15:06:01.113	0.00000000E+0	2.97404360E+1	5.00000000E+0	3.61543402E-1	0.00000000E+0
294	02/09/2022	15:06:02.494	0.00000000E+0	2.99498244E+1	5.00000000E+0	3.19456096E-1	0.00000000E+0
295	02/09/2022	15:06:03.870	0.00000000E+0	3.01592128E+1	5.00000000E+0	3.13080275E-1	0.00000000E+0
296	02/09/2022	15:06:05.453	0.00000000E+0	3.03686012E+1	5.00000000E+0	2.85263641E-1	0.00000000E+0
297	02/09/2022	15:06:06.857	0.00000000E+0	3.05779895E+1	5.00000000E+0	2.76615120E-1	0.00000000E+0
298	02/09/2022	15:06:08.300	0.00000000E+0	3.07877614E+1	5.00000000E+0	2.75090869E-1	0.00000000E+0
299	02/09/2022	15:06:09.679	0.00000000E+0	3.09971498E+1	5.00000000E+0	2.76891052E-1	0.00000000E+0
300	02/09/2022	15:06:11.073	0.00000000E+0	3.12065382E+1	5.00000000E+0	2.80648720E-1	0.00000000E+0
301	02/09/2022	15:06:12.551	0.00000000E+0	3.14159265E+1	5.00000000E+0	2.87328388E-1	0.00000000E+0
