#Iteration	Date	Time	Chirp	Phase	RamanAxis	RatioMean	RatioStdDev
1	15/03/2023	16:22:07.000	0.00000000E+0	-6.28318531E+0	4.00000000E+0	3.14909657E-1	0.00000000E+0
3	15/03/2023	16:22:10.038	0.00000000E+0	-6.17849112E+0	4.00000000E+0	3.47440528E-1	0.00000000E+0
5	15/03/2023	16:22:13.028	0.00000000E+0	-6.07379693E+0	4.00000000E+0	5.44237095E-1	0.00000000E+0
7	15/03/2023	16:22:15.940	0.00000000E+0	-5.96910274E+0	4.00000000E+0	6.19637170E-1	0.00000000E+0
9	15/03/2023	16:22:18.940	0.00000000E+0	-5.86440855E+0	4.00000000E+0	5.77346751E-1	0.00000000E+0
11	15/03/2023	16:22:21.995	0.00000000E+0	-5.75971436E+0	4.00000000E+0	3.10781086E-1	0.00000000E+0
13	15/03/2023	16:22:25.052	0.00000000E+0	-5.65502017E+0	4.00000000E+0	4.30114145E-1	0.00000000E+0
15	15/03/2023	16:22:28.033	0.00000000E+0	-5.55032599E+0	4.00000000E+0	5.94709332E-1	0.00000000E+0
17	15/03/2023	16:22:31.049	0.00000000E+0	-5.44524830E+0	4.00000000E+0	6.36150955E-1	0.00000000E+0
19	15/03/2023	16:22:34.090	0.00000000E+0	-5.34055411E+0	4.00000000E+0	3.38344276E-1	0.00000000E+0
21	15/03/2023	16:22:37.077	0.00000000E+0	-5.23585992E+0	4.00000000E+0	3.12680939E-1	0.00000000E+0
23	15/03/2023	16:22:40.068	0.00000000E+0	-5.13116574E+0	4.00000000E+0	6.55075558E-1	0.00000000E+0
25	15/03/2023	16:22:43.025	0.00000000E+0	-5.02647155E+0	4.00000000E+0	3.51216044E-1	0.00000000E+0
27	15/03/2023	16:22:45.965	0.00000000E+0	-4.92177736E+0	4.00000000E+0	3.81560484E-1	0.00000000E+0
29	15/03/2023	16:22:48.881	0.00000000E+0	-4.81708317E+0	4.00000000E+0	4.57214772E-1	0.00000000E+0
31	15/03/2023	16:22:51.887	0.00000000E+0	-4.71238898E+0	4.00000000E+0	3.15851879E-1	0.00000000E+0
33	15/03/2023	16:22:54.853	0.00000000E+0	-4.60769479E+0	4.00000000E+0	6.53787609E-1	0.00000000E+0
35	15/03/2023	16:22:57.816	0.00000000E+0	-4.50300060E+0	4.00000000E+0	3.72148304E-1	0.00000000E+0
37	15/03/2023	16:23:00.882	0.00000000E+0	-4.39830641E+0	4.00000000E+0	4.45388507E-1	0.00000000E+0
39	15/03/2023	16:23:03.879	0.00000000E+0	-4.29361223E+0	4.00000000E+0	4.45233552E-1	0.00000000E+0
41	15/03/2023	16:23:06.913	0.00000000E+0	-4.18891804E+0	4.00000000E+0	5.07974414E-1	0.00000000E+0
43	15/03/2023	16:23:09.871	0.00000000E+0	-4.08422385E+0	4.00000000E+0	3.75857595E-1	0.00000000E+0
45	15/03/2023	16:23:13.130	0.00000000E+0	-3.97952966E+0	4.00000000E+0	5.60047632E-1	0.00000000E+0
47	15/03/2023	16:23:16.189	0.00000000E+0	-3.87445198E+0	4.00000000E+0	3.20371825E-1	0.00000000E+0
49	15/03/2023	16:23:19.166	0.00000000E+0	-3.76975779E+0	4.00000000E+0	5.32241685E-1	0.00000000E+0
51	15/03/2023	16:23:22.181	0.00000000E+0	-3.66506360E+0	4.00000000E+0	3.67193959E-1	0.00000000E+0
53	15/03/2023	16:23:25.198	0.00000000E+0	-3.56036941E+0	4.00000000E+0	3.34912630E-1	0.00000000E+0
55	15/03/2023	16:23:28.170	0.00000000E+0	-3.45567522E+0	4.00000000E+0	3.93885805E-1	0.00000000E+0
57	15/03/2023	16:23:31.163	0.00000000E+0	-3.35098103E+0	4.00000000E+0	6.47004879E-1	0.00000000E+0
59	15/03/2023	16:23:34.123	0.00000000E+0	-3.24628684E+0	4.00000000E+0	6.15501005E-1	0.00000000E+0
61	15/03/2023	16:23:37.057	0.00000000E+0	-3.14159265E+0	4.00000000E+0	6.16413387E-1	0.00000000E+0
63	15/03/2023	16:23:40.073	0.00000000E+0	-3.03689846E+0	4.00000000E+0	6.10918436E-1	0.00000000E+0
65	15/03/2023	16:23:43.040	0.00000000E+0	-2.93220428E+0	4.00000000E+0	4.27432889E-1	0.00000000E+0
67	15/03/2023	16:23:46.085	0.00000000E+0	-2.82751009E+0	4.00000000E+0	6.40475444E-1	0.00000000E+0
69	15/03/2023	16:23:49.074	0.00000000E+0	-2.72281590E+0	4.00000000E+0	6.05400510E-1	0.00000000E+0
71	15/03/2023	16:23:52.180	0.00000000E+0	-2.61812171E+0	4.00000000E+0	3.91870553E-1	0.00000000E+0
73	15/03/2023	16:23:55.233	0.00000000E+0	-2.51342752E+0	4.00000000E+0	5.91958468E-1	0.00000000E+0
75	15/03/2023	16:23:58.183	0.00000000E+0	-2.40873333E+0	4.00000000E+0	5.39288799E-1	0.00000000E+0
77	15/03/2023	16:24:01.167	0.00000000E+0	-2.30365565E+0	4.00000000E+0	5.83544400E-1	0.00000000E+0
79	15/03/2023	16:24:04.156	0.00000000E+0	-2.19896146E+0	4.00000000E+0	5.31248026E-1	0.00000000E+0
81	15/03/2023	16:24:07.137	0.00000000E+0	-2.09426727E+0	4.00000000E+0	6.49140498E-1	0.00000000E+0
83	15/03/2023	16:24:10.124	0.00000000E+0	-1.98957308E+0	4.00000000E+0	3.40460910E-1	0.00000000E+0
85	15/03/2023	16:24:13.070	0.00000000E+0	-1.88487889E+0	4.00000000E+0	3.50610264E-1	0.00000000E+0
87	15/03/2023	16:24:16.031	0.00000000E+0	-1.78018470E+0	4.00000000E+0	3.60979263E-1	0.00000000E+0
89	15/03/2023	16:24:19.010	0.00000000E+0	-1.67549052E+0	4.00000000E+0	5.67303573E-1	0.00000000E+0
91	15/03/2023	16:24:21.998	0.00000000E+0	-1.57079633E+0	4.00000000E+0	3.71625135E-1	0.00000000E+0
93	15/03/2023	16:24:25.016	0.00000000E+0	-1.46610214E+0	4.00000000E+0	5.58221728E-1	0.00000000E+0
95	15/03/2023	16:24:27.968	0.00000000E+0	-1.36140795E+0	4.00000000E+0	3.49930370E-1	0.00000000E+0
97	15/03/2023	16:24:30.927	0.00000000E+0	-1.25671376E+0	4.00000000E+0	6.07363035E-1	0.00000000E+0
99	15/03/2023	16:24:33.958	0.00000000E+0	-1.15201957E+0	4.00000000E+0	6.37420090E-1	0.00000000E+0
101	15/03/2023	16:24:36.949	0.00000000E+0	-1.04732538E+0	4.00000000E+0	6.53128298E-1	0.00000000E+0
103	15/03/2023	16:24:39.925	0.00000000E+0	-9.42631194E-1	4.00000000E+0	6.37533063E-1	0.00000000E+0
105	15/03/2023	16:24:42.876	0.00000000E+0	-8.37937005E-1	4.00000000E+0	6.48523112E-1	0.00000000E+0
107	15/03/2023	16:24:45.853	0.00000000E+0	-7.32859321E-1	4.00000000E+0	6.57711868E-1	0.00000000E+0
109	15/03/2023	16:24:48.881	0.00000000E+0	-6.28165133E-1	4.00000000E+0	5.38078360E-1	0.00000000E+0
111	15/03/2023	16:24:51.848	0.00000000E+0	-5.23470944E-1	4.00000000E+0	6.64457670E-1	0.00000000E+0
113	15/03/2023	16:24:54.787	0.00000000E+0	-4.18776755E-1	4.00000000E+0	4.88637212E-1	0.00000000E+0
115	15/03/2023	16:24:57.745	0.00000000E+0	-3.14082566E-1	4.00000000E+0	6.12037067E-1	0.00000000E+0
117	15/03/2023	16:25:00.686	0.00000000E+0	-2.09388378E-1	4.00000000E+0	6.39305417E-1	0.00000000E+0
119	15/03/2023	16:25:03.751	0.00000000E+0	-1.04694189E-1	4.00000000E+0	4.99386914E-1	0.00000000E+0
121	15/03/2023	16:25:06.860	0.00000000E+0	0.00000000E+0	4.00000000E+0	4.25463184E-1	0.00000000E+0
123	15/03/2023	16:25:09.871	0.00000000E+0	1.04694189E-1	4.00000000E+0	6.72660129E-1	0.00000000E+0
125	15/03/2023	16:25:12.906	0.00000000E+0	2.09388378E-1	4.00000000E+0	3.96350632E-1	0.00000000E+0
127	15/03/2023	16:25:15.859	0.00000000E+0	3.14082566E-1	4.00000000E+0	5.10324933E-1	0.00000000E+0
129	15/03/2023	16:25:18.848	0.00000000E+0	4.18776755E-1	4.00000000E+0	4.57821331E-1	0.00000000E+0
131	15/03/2023	16:25:21.811	0.00000000E+0	5.23470944E-1	4.00000000E+0	3.59316926E-1	0.00000000E+0
133	15/03/2023	16:25:24.815	0.00000000E+0	6.28165133E-1	4.00000000E+0	3.28384661E-1	0.00000000E+0
135	15/03/2023	16:25:27.874	0.00000000E+0	7.32859321E-1	4.00000000E+0	5.66757397E-1	0.00000000E+0
137	15/03/2023	16:25:30.876	0.00000000E+0	8.37937005E-1	4.00000000E+0	4.87591450E-1	0.00000000E+0
139	15/03/2023	16:25:33.897	0.00000000E+0	9.42631194E-1	4.00000000E+0	5.99225306E-1	0.00000000E+0
141	15/03/2023	16:25:36.895	0.00000000E+0	1.04732538E+0	4.00000000E+0	6.31912635E-1	0.00000000E+0
143	15/03/2023	16:25:39.876	0.00000000E+0	1.15201957E+0	4.00000000E+0	5.63325650E-1	0.00000000E+0
145	15/03/2023	16:25:42.875	0.00000000E+0	1.25671376E+0	4.00000000E+0	6.59110487E-1	0.00000000E+0
147	15/03/2023	16:25:45.824	0.00000000E+0	1.36140795E+0	4.00000000E+0	4.72646434E-1	0.00000000E+0
149	15/03/2023	16:25:48.744	0.00000000E+0	1.46610214E+0	4.00000000E+0	3.67256966E-1	0.00000000E+0
151	15/03/2023	16:25:51.744	0.00000000E+0	1.57079633E+0	4.00000000E+0	6.21779554E-1	0.00000000E+0
153	15/03/2023	16:25:54.692	0.00000000E+0	1.67549052E+0	4.00000000E+0	4.22599221E-1	0.00000000E+0
155	15/03/2023	16:25:57.682	0.00000000E+0	1.78018470E+0	4.00000000E+0	3.18796977E-1	0.00000000E+0
157	15/03/2023	16:26:00.693	0.00000000E+0	1.88487889E+0	4.00000000E+0	5.59931487E-1	0.00000000E+0
159	15/03/2023	16:26:03.684	0.00000000E+0	1.98957308E+0	4.00000000E+0	6.26014740E-1	0.00000000E+0
161	15/03/2023	16:26:06.677	0.00000000E+0	2.09426727E+0	4.00000000E+0	5.02417357E-1	0.00000000E+0
163	15/03/2023	16:26:09.646	0.00000000E+0	2.19896146E+0	4.00000000E+0	5.74782229E-1	0.00000000E+0
165	15/03/2023	16:26:12.643	0.00000000E+0	2.30365565E+0	4.00000000E+0	4.57296269E-1	0.00000000E+0
167	15/03/2023	16:26:15.686	0.00000000E+0	2.40873333E+0	4.00000000E+0	3.96702391E-1	0.00000000E+0
169	15/03/2023	16:26:18.656	0.00000000E+0	2.51342752E+0	4.00000000E+0	5.81905171E-1	0.00000000E+0
171	15/03/2023	16:26:21.661	0.00000000E+0	2.61812171E+0	4.00000000E+0	5.66368480E-1	0.00000000E+0
173	15/03/2023	16:26:24.614	0.00000000E+0	2.72281590E+0	4.00000000E+0	4.02895263E-1	0.00000000E+0
175	15/03/2023	16:26:27.627	0.00000000E+0	2.82751009E+0	4.00000000E+0	6.44298615E-1	0.00000000E+0
177	15/03/2023	16:26:30.651	0.00000000E+0	2.93220428E+0	4.00000000E+0	5.44352268E-1	0.00000000E+0
179	15/03/2023	16:26:33.622	0.00000000E+0	3.03689846E+0	4.00000000E+0	4.83121978E-1	0.00000000E+0
181	15/03/2023	16:26:36.570	0.00000000E+0	3.14159265E+0	4.00000000E+0	3.54142366E-1	0.00000000E+0
183	15/03/2023	16:26:39.573	0.00000000E+0	3.24628684E+0	4.00000000E+0	3.38910892E-1	0.00000000E+0
185	15/03/2023	16:26:42.602	0.00000000E+0	3.35098103E+0	4.00000000E+0	3.32335760E-1	0.00000000E+0
187	15/03/2023	16:26:45.601	0.00000000E+0	3.45567522E+0	4.00000000E+0	4.78662389E-1	0.00000000E+0
189	15/03/2023	16:26:48.567	0.00000000E+0	3.56036941E+0	4.00000000E+0	4.31936957E-1	0.00000000E+0
191	15/03/2023	16:26:51.563	0.00000000E+0	3.66506360E+0	4.00000000E+0	3.87334432E-1	0.00000000E+0
193	15/03/2023	16:26:54.568	0.00000000E+0	3.76975779E+0	4.00000000E+0	3.40927852E-1	0.00000000E+0
195	15/03/2023	16:26:57.560	0.00000000E+0	3.87445198E+0	4.00000000E+0	4.12993715E-1	0.00000000E+0
197	15/03/2023	16:27:00.587	0.00000000E+0	3.97952966E+0	4.00000000E+0	4.51860602E-1	0.00000000E+0
199	15/03/2023	16:27:03.601	0.00000000E+0	4.08422385E+0	4.00000000E+0	4.15207876E-1	0.00000000E+0
201	15/03/2023	16:27:06.536	0.00000000E+0	4.18891804E+0	4.00000000E+0	5.23929891E-1	0.00000000E+0
203	15/03/2023	16:27:09.534	0.00000000E+0	4.29361223E+0	4.00000000E+0	4.74369036E-1	0.00000000E+0
205	15/03/2023	16:27:12.505	0.00000000E+0	4.39830641E+0	4.00000000E+0	3.40601220E-1	0.00000000E+0
207	15/03/2023	16:27:15.559	0.00000000E+0	4.50300060E+0	4.00000000E+0	4.64352795E-1	0.00000000E+0
209	15/03/2023	16:27:18.509	0.00000000E+0	4.60769479E+0	4.00000000E+0	3.41008943E-1	0.00000000E+0
211	15/03/2023	16:27:21.465	0.00000000E+0	4.71238898E+0	4.00000000E+0	4.74004927E-1	0.00000000E+0
213	15/03/2023	16:27:24.429	0.00000000E+0	4.81708317E+0	4.00000000E+0	3.38749258E-1	0.00000000E+0
215	15/03/2023	16:27:27.375	0.00000000E+0	4.92177736E+0	4.00000000E+0	5.28540018E-1	0.00000000E+0
217	15/03/2023	16:27:30.335	0.00000000E+0	5.02647155E+0	4.00000000E+0	4.75314958E-1	0.00000000E+0
219	15/03/2023	16:27:33.304	0.00000000E+0	5.13116574E+0	4.00000000E+0	3.46356294E-1	0.00000000E+0
221	15/03/2023	16:27:36.278	0.00000000E+0	5.23585992E+0	4.00000000E+0	5.72611304E-1	0.00000000E+0
223	15/03/2023	16:27:39.257	0.00000000E+0	5.34055411E+0	4.00000000E+0	5.14396682E-1	0.00000000E+0
225	15/03/2023	16:27:42.227	0.00000000E+0	5.44524830E+0	4.00000000E+0	4.58051194E-1	0.00000000E+0
227	15/03/2023	16:27:45.150	0.00000000E+0	5.55032599E+0	4.00000000E+0	3.17600233E-1	0.00000000E+0
229	15/03/2023	16:27:48.115	0.00000000E+0	5.65502017E+0	4.00000000E+0	4.59678539E-1	0.00000000E+0
231	15/03/2023	16:27:51.097	0.00000000E+0	5.75971436E+0	4.00000000E+0	5.78063193E-1	0.00000000E+0
233	15/03/2023	16:27:54.060	0.00000000E+0	5.86440855E+0	4.00000000E+0	5.59784665E-1	0.00000000E+0
235	15/03/2023	16:27:57.114	0.00000000E+0	5.96910274E+0	4.00000000E+0	3.80202007E-1	0.00000000E+0
237	15/03/2023	16:28:00.082	0.00000000E+0	6.07379693E+0	4.00000000E+0	6.46674661E-1	0.00000000E+0
239	15/03/2023	16:28:03.103	0.00000000E+0	6.17849112E+0	4.00000000E+0	6.25326672E-1	0.00000000E+0
241	15/03/2023	16:28:06.106	0.00000000E+0	6.28318531E+0	4.00000000E+0	6.06544582E-1	0.00000000E+0
