#Iteration	Date	Time	STSX	STSY	RotationRateX	RotationRateY	FrCntX	FrCntY	TiptiltCmd1	TiptiltCmd2	TiptiltMonitor1	TiptiltMonitor2
1	15/03/2023	16:22:07.000	0.00000E+0	0.00000E+0	-9.67807E-2	9.56666E-2	0.00000E+0	0.00000E+0	2.12487E+1	1.37017E+1	2.12461E+1	1.37015E+1
2	15/03/2023	16:22:08.551	0.00000E+0	0.00000E+0	-3.87848E-1	-2.50027E-1	0.00000E+0	0.00000E+0	2.12548E+1	1.36953E+1	2.12568E+1	1.36923E+1
3	15/03/2023	16:22:10.038	0.00000E+0	0.00000E+0	1.36904E+1	8.82510E-1	0.00000E+0	0.00000E+0	2.14011E+1	1.36364E+1	2.14025E+1	1.36381E+1
4	15/03/2023	16:22:11.565	0.00000E+0	0.00000E+0	1.75901E+2	4.97702E-1	0.00000E+0	0.00000E+0	2.38020E+1	1.11249E+1	2.38035E+1	1.11257E+1
5	15/03/2023	16:22:13.028	0.00000E+0	0.00000E+0	-2.45507E+2	2.58794E-1	0.00000E+0	0.00000E+0	1.77677E+1	1.71987E+1	1.77685E+1	1.71984E+1
6	15/03/2023	16:22:14.507	0.00000E+0	0.00000E+0	6.15236E+1	3.92449E-1	0.00000E+0	0.00000E+0	2.19015E+1	1.29711E+1	2.19023E+1	1.29707E+1
7	15/03/2023	16:22:15.940	0.00000E+0	0.00000E+0	2.07250E+2	-3.80757E-1	0.00000E+0	0.00000E+0	2.42019E+1	1.07869E+1	2.42015E+1	1.07865E+1
8	15/03/2023	16:22:17.439	0.00000E+0	0.00000E+0	-1.30480E+2	-1.40394E+0	0.00000E+0	0.00000E+0	1.95366E+1	1.53837E+1	1.95374E+1	1.53841E+1
9	15/03/2023	16:22:18.940	0.00000E+0	0.00000E+0	-1.79452E+2	-2.86354E+0	0.00000E+0	0.00000E+0	1.86165E+1	1.63068E+1	1.86158E+1	1.63072E+1
10	15/03/2023	16:22:20.498	0.00000E+0	0.00000E+0	1.97677E+2	-6.52394E-1	0.00000E+0	0.00000E+0	2.39939E+1	1.09700E+1	2.39938E+1	1.09703E+1
11	15/03/2023	16:22:21.995	0.00000E+0	0.00000E+0	9.02921E+1	8.59164E-1	0.00000E+0	0.00000E+0	2.27247E+1	1.22517E+1	2.27238E+1	1.22517E+1
12	15/03/2023	16:22:23.551	0.00000E+0	0.00000E+0	-2.24209E+2	6.27894E-1	0.00000E+0	0.00000E+0	1.80961E+1	1.68592E+1	1.80949E+1	1.68578E+1
13	15/03/2023	16:22:25.052	0.00000E+0	0.00000E+0	7.46862E+1	8.56618E-1	0.00000E+0	0.00000E+0	2.21439E+1	1.27795E+1	2.21468E+1	1.27785E+1
14	15/03/2023	16:22:26.535	0.00000E+0	0.00000E+0	2.39241E+2	1.15678E+0	0.00000E+0	0.00000E+0	2.46987E+1	1.02967E+1	2.46970E+1	1.02973E+1
15	15/03/2023	16:22:28.033	0.00000E+0	0.00000E+0	-2.02138E+2	-1.95010E+0	0.00000E+0	0.00000E+0	1.84556E+1	1.64454E+1	1.84572E+1	1.64430E+1
16	15/03/2023	16:22:29.542	0.00000E+0	0.00000E+0	-8.19434E+1	-1.99001E+0	0.00000E+0	0.00000E+0	1.98814E+1	1.50868E+1	1.98828E+1	1.50868E+1
17	15/03/2023	16:22:31.049	0.00000E+0	0.00000E+0	2.28683E+2	1.71591E+0	0.00000E+0	0.00000E+0	2.44921E+1	1.05020E+1	2.44953E+1	1.05027E+1
18	15/03/2023	16:22:32.577	0.00000E+0	0.00000E+0	-1.18616E+2	2.06992E-1	0.00000E+0	0.00000E+0	1.97711E+1	1.51905E+1	1.97696E+1	1.51918E+1
19	15/03/2023	16:22:34.090	0.00000E+0	0.00000E+0	-1.86208E+2	-2.23991E+0	0.00000E+0	0.00000E+0	1.84761E+1	1.64554E+1	1.84772E+1	1.64554E+1
20	15/03/2023	16:22:35.591	0.00000E+0	0.00000E+0	2.22244E+2	2.08127E+0	0.00000E+0	0.00000E+0	2.43418E+1	1.06170E+1	2.43428E+1	1.06169E+1
21	15/03/2023	16:22:37.077	0.00000E+0	0.00000E+0	-3.69072E+0	-1.02479E+0	0.00000E+0	0.00000E+0	2.13913E+1	1.35679E+1	2.13893E+1	1.35671E+1
22	15/03/2023	16:22:38.582	0.00000E+0	0.00000E+0	-2.25396E+2	-2.19049E+0	0.00000E+0	0.00000E+0	1.79937E+1	1.69630E+1	1.79940E+1	1.69637E+1
23	15/03/2023	16:22:40.068	0.00000E+0	0.00000E+0	1.75739E+2	2.91266E+0	0.00000E+0	0.00000E+0	2.36042E+1	1.13478E+1	2.36048E+1	1.13483E+1
24	15/03/2023	16:22:41.545	0.00000E+0	0.00000E+0	1.26513E+2	3.09538E-1	0.00000E+0	0.00000E+0	2.31983E+1	1.17847E+1	2.31978E+1	1.17840E+1
25	15/03/2023	16:22:43.025	0.00000E+0	0.00000E+0	-2.26372E+2	-4.60690E-1	0.00000E+0	0.00000E+0	1.80053E+1	1.68525E+1	1.80050E+1	1.68526E+1
26	15/03/2023	16:22:44.490	0.00000E+0	0.00000E+0	3.69452E+1	1.62556E-1	0.00000E+0	0.00000E+0	2.16221E+1	1.33466E+1	2.16226E+1	1.33468E+1
27	15/03/2023	16:22:45.965	0.00000E+0	0.00000E+0	2.17882E+2	1.18214E+0	0.00000E+0	0.00000E+0	2.44669E+1	1.05245E+1	2.44669E+1	1.05241E+1
28	15/03/2023	16:22:47.432	0.00000E+0	0.00000E+0	-2.04446E+2	-2.62265E+0	0.00000E+0	0.00000E+0	1.84184E+1	1.64457E+1	1.84179E+1	1.64472E+1
29	15/03/2023	16:22:48.881	0.00000E+0	0.00000E+0	-6.68738E+1	2.05449E-1	0.00000E+0	0.00000E+0	2.00191E+1	1.48909E+1	2.00186E+1	1.48897E+1
30	15/03/2023	16:22:50.342	0.00000E+0	0.00000E+0	2.45328E+2	7.46475E-1	0.00000E+0	0.00000E+0	2.47281E+1	1.02723E+1	2.47272E+1	1.02713E+1
31	15/03/2023	16:22:51.887	0.00000E+0	0.00000E+0	-1.26372E+2	-1.20150E+0	0.00000E+0	0.00000E+0	1.96514E+1	1.52850E+1	1.96508E+1	1.52856E+1
32	15/03/2023	16:22:53.371	0.00000E+0	0.00000E+0	-2.03805E+2	9.73397E-2	0.00000E+0	0.00000E+0	1.82875E+1	1.66221E+1	1.82894E+1	1.66258E+1
33	15/03/2023	16:22:54.853	0.00000E+0	0.00000E+0	2.19026E+2	2.14228E+0	0.00000E+0	0.00000E+0	2.43167E+1	1.06365E+1	2.43179E+1	1.06356E+1
34	15/03/2023	16:22:56.350	0.00000E+0	0.00000E+0	-1.66990E+1	-1.08511E+0	0.00000E+0	0.00000E+0	2.12712E+1	1.37551E+1	2.12728E+1	1.37538E+1
35	15/03/2023	16:22:57.816	0.00000E+0	0.00000E+0	-1.21490E+2	-2.88756E+0	0.00000E+0	0.00000E+0	1.94540E+1	1.54357E+1	1.94569E+1	1.54365E+1
36	15/03/2023	16:22:59.395	0.00000E+0	0.00000E+0	7.39831E+1	4.35667E-2	0.00000E+0	0.00000E+0	2.22851E+1	1.27107E+1	2.22850E+1	1.27100E+1
37	15/03/2023	16:23:00.882	0.00000E+0	0.00000E+0	6.14328E+1	-2.78509E-1	0.00000E+0	0.00000E+0	2.21909E+1	1.27634E+1	2.21896E+1	1.27643E+1
38	15/03/2023	16:23:02.384	0.00000E+0	0.00000E+0	-7.66262E+1	-2.00234E+0	0.00000E+0	0.00000E+0	2.01532E+1	1.47852E+1	2.01537E+1	1.47851E+1
39	15/03/2023	16:23:03.879	0.00000E+0	0.00000E+0	1.69333E+1	-6.54966E-1	0.00000E+0	0.00000E+0	2.14634E+1	1.34866E+1	2.14639E+1	1.34863E+1
40	15/03/2023	16:23:05.391	0.00000E+0	0.00000E+0	9.41866E+1	9.87545E-1	0.00000E+0	0.00000E+0	2.25766E+1	1.23964E+1	2.25776E+1	1.23968E+1
41	15/03/2023	16:23:06.913	0.00000E+0	0.00000E+0	-4.29392E+1	4.17703E-1	0.00000E+0	0.00000E+0	2.07212E+1	1.42407E+1	2.07181E+1	1.42388E+1
42	15/03/2023	16:23:08.402	0.00000E+0	0.00000E+0	-1.95127E+2	-2.81889E+0	0.00000E+0	0.00000E+0	1.85021E+1	1.64406E+1	1.85018E+1	1.64412E+1
43	15/03/2023	16:23:09.871	0.00000E+0	0.00000E+0	7.95220E+1	6.26753E-1	0.00000E+0	0.00000E+0	2.22213E+1	1.26792E+1	2.22203E+1	1.26788E+1
44	15/03/2023	16:23:11.521	0.00000E+0	0.00000E+0	1.63206E+2	1.62242E+0	0.00000E+0	0.00000E+0	2.37148E+1	1.13027E+1	2.37146E+1	1.13024E+1
45	15/03/2023	16:23:13.130	0.00000E+0	0.00000E+0	-1.68806E+2	-4.98028E-1	0.00000E+0	0.00000E+0	1.89133E+1	1.60381E+1	1.89124E+1	1.60365E+1
46	15/03/2023	16:23:14.679	0.00000E+0	0.00000E+0	-2.32884E+1	7.65328E-1	0.00000E+0	0.00000E+0	2.07516E+1	1.41943E+1	2.07492E+1	1.41953E+1
47	15/03/2023	16:23:16.189	0.00000E+0	0.00000E+0	1.70040E+2	8.17480E-1	0.00000E+0	0.00000E+0	2.36217E+1	1.13334E+1	2.36245E+1	1.13336E+1
48	15/03/2023	16:23:17.692	0.00000E+0	0.00000E+0	1.90853E+1	-4.00409E-2	0.00000E+0	0.00000E+0	2.16640E+1	1.32644E+1	2.16637E+1	1.32612E+1
49	15/03/2023	16:23:19.166	0.00000E+0	0.00000E+0	-1.64302E+2	-2.50502E+0	0.00000E+0	0.00000E+0	1.89343E+1	1.59936E+1	1.89341E+1	1.59929E+1
50	15/03/2023	16:23:20.702	0.00000E+0	0.00000E+0	-9.87522E+1	1.43051E+0	0.00000E+0	0.00000E+0	1.97500E+1	1.52008E+1	1.97486E+1	1.52015E+1
51	15/03/2023	16:23:22.181	0.00000E+0	0.00000E+0	1.30553E+2	1.60107E+0	0.00000E+0	0.00000E+0	2.30939E+1	1.18821E+1	2.30939E+1	1.18818E+1
52	15/03/2023	16:23:23.664	0.00000E+0	0.00000E+0	1.58311E+2	1.38062E+0	0.00000E+0	0.00000E+0	2.35236E+1	1.14792E+1	2.35273E+1	1.14811E+1
53	15/03/2023	16:23:25.198	0.00000E+0	0.00000E+0	-1.16426E+2	-1.17185E+0	0.00000E+0	0.00000E+0	1.96980E+1	1.52715E+1	1.96976E+1	1.52716E+1
54	15/03/2023	16:23:26.658	0.00000E+0	0.00000E+0	-1.48830E+2	-1.36101E+0	0.00000E+0	0.00000E+0	1.90475E+1	1.58397E+1	1.90473E+1	1.58393E+1
55	15/03/2023	16:23:28.170	0.00000E+0	0.00000E+0	4.19840E+1	-9.23114E-1	0.00000E+0	0.00000E+0	2.16993E+1	1.31957E+1	2.16994E+1	1.31947E+1
56	15/03/2023	16:23:29.661	0.00000E+0	0.00000E+0	1.77219E+2	1.24606E+0	0.00000E+0	0.00000E+0	2.37424E+1	1.12486E+1	2.37424E+1	1.12482E+1
57	15/03/2023	16:23:31.163	0.00000E+0	0.00000E+0	-3.67797E+1	1.62564E+0	0.00000E+0	0.00000E+0	2.08286E+1	1.41513E+1	2.08290E+1	1.41498E+1
58	15/03/2023	16:23:32.638	0.00000E+0	0.00000E+0	-1.15154E+2	-1.16931E+0	0.00000E+0	0.00000E+0	1.96544E+1	1.53271E+1	1.96542E+1	1.53282E+1
59	15/03/2023	16:23:34.123	0.00000E+0	0.00000E+0	-9.63817E+1	-8.55891E-1	0.00000E+0	0.00000E+0	1.98672E+1	1.50458E+1	1.98668E+1	1.50462E+1
60	15/03/2023	16:23:35.577	0.00000E+0	0.00000E+0	1.06792E+2	1.64579E-1	0.00000E+0	0.00000E+0	2.26947E+1	1.22798E+1	2.26947E+1	1.22809E+1
61	15/03/2023	16:23:37.057	0.00000E+0	0.00000E+0	1.45179E+2	1.37225E+0	0.00000E+0	0.00000E+0	2.32896E+1	1.16718E+1	2.32884E+1	1.16710E+1
62	15/03/2023	16:23:38.540	0.00000E+0	0.00000E+0	-3.14934E+1	-4.68393E-1	0.00000E+0	0.00000E+0	2.08835E+1	1.40717E+1	2.08839E+1	1.40717E+1
63	15/03/2023	16:23:40.073	0.00000E+0	0.00000E+0	-1.23943E+2	-1.37832E+0	0.00000E+0	0.00000E+0	1.95072E+1	1.54539E+1	1.95073E+1	1.54543E+1
64	15/03/2023	16:23:41.521	0.00000E+0	0.00000E+0	-1.00337E+2	-2.42839E-1	0.00000E+0	0.00000E+0	1.98053E+1	1.51353E+1	1.98037E+1	1.51345E+1
65	15/03/2023	16:23:43.040	0.00000E+0	0.00000E+0	1.20444E+2	1.86018E-2	0.00000E+0	0.00000E+0	2.29424E+1	1.20397E+1	2.29431E+1	1.20370E+1
66	15/03/2023	16:23:44.581	0.00000E+0	0.00000E+0	1.45213E+2	1.36814E+0	0.00000E+0	0.00000E+0	2.32933E+1	1.16584E+1	2.32923E+1	1.16583E+1
67	15/03/2023	16:23:46.085	0.00000E+0	0.00000E+0	-6.95537E+1	3.02090E-1	0.00000E+0	0.00000E+0	2.03586E+1	1.45674E+1	2.03581E+1	1.45684E+1
68	15/03/2023	16:23:47.610	0.00000E+0	0.00000E+0	-1.60963E+2	-1.80035E+0	0.00000E+0	0.00000E+0	1.89376E+1	1.59852E+1	1.89378E+1	1.59873E+1
69	15/03/2023	16:23:49.074	0.00000E+0	0.00000E+0	1.92374E+1	1.83809E+0	0.00000E+0	0.00000E+0	2.13624E+1	1.35719E+1	2.13620E+1	1.35716E+1
70	15/03/2023	16:23:50.598	0.00000E+0	0.00000E+0	1.69178E+2	1.64969E+0	0.00000E+0	0.00000E+0	2.36212E+1	1.12455E+1	2.36224E+1	1.12453E+1
71	15/03/2023	16:23:52.180	0.00000E+0	0.00000E+0	1.19566E+2	6.01564E-2	0.00000E+0	0.00000E+0	2.31288E+1	1.18344E+1	2.31273E+1	1.18347E+1
72	15/03/2023	16:23:53.659	0.00000E+0	0.00000E+0	-1.40985E+2	-5.94323E-1	0.00000E+0	0.00000E+0	1.92591E+1	1.56558E+1	1.92598E+1	1.56588E+1
73	15/03/2023	16:23:55.233	0.00000E+0	0.00000E+0	-2.86270E+1	1.38126E+0	0.00000E+0	0.00000E+0	2.07469E+1	1.41877E+1	2.07492E+1	1.41872E+1
74	15/03/2023	16:23:56.709	0.00000E+0	0.00000E+0	8.96813E+1	2.35724E+0	0.00000E+0	0.00000E+0	2.25004E+1	1.24610E+1	2.25046E+1	1.24588E+1
75	15/03/2023	16:23:58.183	0.00000E+0	0.00000E+0	4.09996E+1	3.14777E-1	0.00000E+0	0.00000E+0	2.19332E+1	1.30130E+1	2.19322E+1	1.30154E+1
76	15/03/2023	16:23:59.679	0.00000E+0	0.00000E+0	-7.00981E+1	-1.78699E+0	0.00000E+0	0.00000E+0	2.02966E+1	1.46128E+1	2.02938E+1	1.46117E+1
77	15/03/2023	16:24:01.167	0.00000E+0	0.00000E+0	-2.65386E+1	-1.31235E-1	0.00000E+0	0.00000E+0	2.08255E+1	1.41134E+1	2.08261E+1	1.41143E+1
78	15/03/2023	16:24:02.686	0.00000E+0	0.00000E+0	5.40166E+1	1.04944E+0	0.00000E+0	0.00000E+0	2.19441E+1	1.30129E+1	2.19444E+1	1.30118E+1
79	15/03/2023	16:24:04.156	0.00000E+0	0.00000E+0	4.32349E+1	-1.46541E+0	0.00000E+0	0.00000E+0	2.20887E+1	1.28758E+1	2.20901E+1	1.28753E+1
80	15/03/2023	16:24:05.667	0.00000E+0	0.00000E+0	-1.83951E+2	1.18131E-1	0.00000E+0	0.00000E+0	1.86082E+1	1.62961E+1	1.86082E+1	1.62960E+1
81	15/03/2023	16:24:07.137	0.00000E+0	0.00000E+0	1.22380E+2	1.65479E+0	0.00000E+0	0.00000E+0	2.28167E+1	1.21052E+1	2.28166E+1	1.21032E+1
82	15/03/2023	16:24:08.619	0.00000E+0	0.00000E+0	9.32756E+1	2.41313E+0	0.00000E+0	0.00000E+0	2.28422E+1	1.21670E+1	2.28441E+1	1.21659E+1
83	15/03/2023	16:24:10.124	0.00000E+0	0.00000E+0	-2.10058E+2	-1.82240E+0	0.00000E+0	0.00000E+0	1.81996E+1	1.66999E+1	1.82002E+1	1.67001E+1
84	15/03/2023	16:24:11.606	0.00000E+0	0.00000E+0	-6.69724E+1	-5.17198E-1	0.00000E+0	0.00000E+0	2.00687E+1	1.48673E+1	2.00681E+1	1.48657E+1
85	15/03/2023	16:24:13.070	0.00000E+0	0.00000E+0	2.15314E+2	1.53002E+0	0.00000E+0	0.00000E+0	2.43075E+1	1.06487E+1	2.43088E+1	1.06473E+1
86	15/03/2023	16:24:14.534	0.00000E+0	0.00000E+0	-3.53809E+1	-3.93564E-1	0.00000E+0	0.00000E+0	2.08789E+1	1.40697E+1	2.08792E+1	1.40698E+1
87	15/03/2023	16:24:16.031	0.00000E+0	0.00000E+0	-1.81940E+2	-1.15895E-1	0.00000E+0	0.00000E+0	1.86748E+1	1.61950E+1	1.86757E+1	1.61952E+1
88	15/03/2023	16:24:17.532	0.00000E+0	0.00000E+0	3.34718E+1	-5.14627E-1	0.00000E+0	0.00000E+0	2.14987E+1	1.34709E+1	2.15019E+1	1.34704E+1
89	15/03/2023	16:24:19.010	0.00000E+0	0.00000E+0	1.94956E+2	1.52183E+0	0.00000E+0	0.00000E+0	2.39847E+1	1.09711E+1	2.39857E+1	1.09721E+1
90	15/03/2023	16:24:20.473	0.00000E+0	0.00000E+0	-1.45018E+1	4.32350E-1	0.00000E+0	0.00000E+0	2.12168E+1	1.37198E+1	2.12171E+1	1.37166E+1
91	15/03/2023	16:24:21.998	0.00000E+0	0.00000E+0	-1.80500E+2	-1.26138E+0	0.00000E+0	0.00000E+0	1.86945E+1	1.62179E+1	1.86958E+1	1.62196E+1
92	15/03/2023	16:24:23.508	0.00000E+0	0.00000E+0	-5.07675E+1	3.73902E-1	0.00000E+0	0.00000E+0	2.03676E+1	1.45513E+1	2.03680E+1	1.45535E+1
93	15/03/2023	16:24:25.016	0.00000E+0	0.00000E+0	2.05372E+2	3.80056E+0	0.00000E+0	0.00000E+0	2.41322E+1	1.08397E+1	2.41323E+1	1.08422E+1
94	15/03/2023	16:24:26.468	0.00000E+0	0.00000E+0	1.99875E+1	-5.24575E-1	0.00000E+0	0.00000E+0	2.17286E+1	1.32631E+1	2.17304E+1	1.32631E+1
95	15/03/2023	16:24:27.968	0.00000E+0	0.00000E+0	-1.83684E+2	-3.19190E-1	0.00000E+0	0.00000E+0	1.86603E+1	1.62496E+1	1.86610E+1	1.62505E+1
96	15/03/2023	16:24:29.460	0.00000E+0	0.00000E+0	-6.24860E+1	1.03017E+0	0.00000E+0	0.00000E+0	2.01943E+1	1.47473E+1	2.01941E+1	1.47484E+1
97	15/03/2023	16:24:30.927	0.00000E+0	0.00000E+0	1.76794E+2	2.09701E+0	0.00000E+0	0.00000E+0	2.37396E+1	1.12394E+1	2.37390E+1	1.12399E+1
98	15/03/2023	16:24:32.431	0.00000E+0	0.00000E+0	4.13084E+1	1.08068E+0	0.00000E+0	0.00000E+0	2.20035E+1	1.29317E+1	2.20034E+1	1.29306E+1
99	15/03/2023	16:24:33.958	0.00000E+0	0.00000E+0	-1.59261E+2	-9.92071E-1	0.00000E+0	0.00000E+0	1.89984E+1	1.58670E+1	1.89977E+1	1.58681E+1
100	15/03/2023	16:24:35.441	0.00000E+0	0.00000E+0	-6.91253E+1	-1.13240E+0	0.00000E+0	0.00000E+0	2.00524E+1	1.48530E+1	2.00504E+1	1.48520E+1
101	15/03/2023	16:24:36.949	0.00000E+0	0.00000E+0	1.69860E+2	1.87555E+0	0.00000E+0	0.00000E+0	2.36493E+1	1.12831E+1	2.36492E+1	1.12812E+1
102	15/03/2023	16:24:38.421	0.00000E+0	0.00000E+0	6.84221E+1	-4.01318E-2	0.00000E+0	0.00000E+0	2.24136E+1	1.25745E+1	2.24146E+1	1.25759E+1
103	15/03/2023	16:24:39.925	0.00000E+0	0.00000E+0	-1.63648E+2	-2.04101E-1	0.00000E+0	0.00000E+0	1.88493E+1	1.60350E+1	1.88484E+1	1.60334E+1
104	15/03/2023	16:24:41.419	0.00000E+0	0.00000E+0	-1.04111E+2	-1.67400E-2	0.00000E+0	0.00000E+0	1.96743E+1	1.52714E+1	1.96744E+1	1.52724E+1
105	15/03/2023	16:24:42.876	0.00000E+0	0.00000E+0	1.81445E+2	1.91121E+0	0.00000E+0	0.00000E+0	2.38107E+1	1.11747E+1	2.38108E+1	1.11776E+1
106	15/03/2023	16:24:44.351	0.00000E+0	0.00000E+0	7.68526E+1	3.60744E-1	0.00000E+0	0.00000E+0	2.24633E+1	1.24987E+1	2.24639E+1	1.24992E+1
107	15/03/2023	16:24:45.853	0.00000E+0	0.00000E+0	-1.75114E+2	-2.69140E+0	0.00000E+0	0.00000E+0	1.87974E+1	1.61289E+1	1.87984E+1	1.61275E+1
108	15/03/2023	16:24:47.380	0.00000E+0	0.00000E+0	-1.39892E+2	-1.68715E+0	0.00000E+0	0.00000E+0	1.91515E+1	1.57484E+1	1.91522E+1	1.57467E+1
109	15/03/2023	16:24:48.881	0.00000E+0	0.00000E+0	1.82000E+2	-2.97942E-1	0.00000E+0	0.00000E+0	2.38233E+1	1.11543E+1	2.38241E+1	1.11529E+1
110	15/03/2023	16:24:50.320	0.00000E+0	0.00000E+0	1.47054E+2	1.33495E+0	0.00000E+0	0.00000E+0	2.34774E+1	1.15290E+1	2.34770E+1	1.15260E+1
111	15/03/2023	16:24:51.848	0.00000E+0	0.00000E+0	-1.77362E+2	1.52568E+0	0.00000E+0	0.00000E+0	1.87503E+1	1.61627E+1	1.87500E+1	1.61609E+1
112	15/03/2023	16:24:53.300	0.00000E+0	0.00000E+0	-1.46779E+2	-2.26947E+0	0.00000E+0	0.00000E+0	1.91181E+1	1.57959E+1	1.91171E+1	1.57950E+1
113	15/03/2023	16:24:54.787	0.00000E+0	0.00000E+0	1.70032E+2	1.75872E+0	0.00000E+0	0.00000E+0	2.35785E+1	1.13933E+1	2.35779E+1	1.13922E+1
114	15/03/2023	16:24:56.259	0.00000E+0	0.00000E+0	1.66764E+2	-5.17356E-1	0.00000E+0	0.00000E+0	2.36898E+1	1.12730E+1	2.36906E+1	1.12744E+1
115	15/03/2023	16:24:57.745	0.00000E+0	0.00000E+0	-1.70897E+2	2.73984E+0	0.00000E+0	0.00000E+0	1.88858E+1	1.60490E+1	1.88861E+1	1.60491E+1
116	15/03/2023	16:24:59.239	0.00000E+0	0.00000E+0	-1.49622E+2	1.84824E-1	0.00000E+0	0.00000E+0	1.90555E+1	1.58723E+1	1.90530E+1	1.58724E+1
117	15/03/2023	16:25:00.686	0.00000E+0	0.00000E+0	1.74487E+2	2.34314E-1	0.00000E+0	0.00000E+0	2.36377E+1	1.12543E+1	2.36362E+1	1.12520E+1
118	15/03/2023	16:25:02.201	0.00000E+0	0.00000E+0	2.24484E+2	5.03193E-1	0.00000E+0	0.00000E+0	2.45046E+1	1.04205E+1	2.45024E+1	1.04190E+1
119	15/03/2023	16:25:03.751	0.00000E+0	0.00000E+0	-1.60164E+2	-1.69214E+0	0.00000E+0	0.00000E+0	1.90452E+1	1.58637E+1	1.90433E+1	1.58640E+1
120	15/03/2023	16:25:05.366	0.00000E+0	0.00000E+0	-1.02382E+2	-8.05623E-1	0.00000E+0	0.00000E+0	1.97096E+1	1.52322E+1	1.97095E+1	1.52330E+1
121	15/03/2023	16:25:06.860	0.00000E+0	0.00000E+0	1.66659E+2	1.53851E+0	0.00000E+0	0.00000E+0	2.36197E+1	1.13889E+1	2.36186E+1	1.13901E+1
122	15/03/2023	16:25:08.364	0.00000E+0	0.00000E+0	6.69864E+1	9.83276E-1	0.00000E+0	0.00000E+0	2.24059E+1	1.25450E+1	2.24013E+1	1.25464E+1
123	15/03/2023	16:25:09.871	0.00000E+0	0.00000E+0	-1.71257E+2	-2.33753E+0	0.00000E+0	0.00000E+0	1.88054E+1	1.61306E+1	1.88067E+1	1.61334E+1
124	15/03/2023	16:25:11.389	0.00000E+0	0.00000E+0	7.87007E+1	9.46575E-1	0.00000E+0	0.00000E+0	2.21507E+1	1.27844E+1	2.21489E+1	1.27844E+1
125	15/03/2023	16:25:12.906	0.00000E+0	0.00000E+0	1.78508E+2	-6.03038E-1	0.00000E+0	0.00000E+0	2.39294E+1	1.10698E+1	2.39289E+1	1.10683E+1
126	15/03/2023	16:25:14.415	0.00000E+0	0.00000E+0	-2.27810E+2	-1.15297E+0	0.00000E+0	0.00000E+0	1.80112E+1	1.68497E+1	1.80089E+1	1.68511E+1
127	15/03/2023	16:25:15.859	0.00000E+0	0.00000E+0	-1.86936E+2	4.93765E-1	0.00000E+0	0.00000E+0	1.84034E+1	1.65035E+1	1.84025E+1	1.65034E+1
128	15/03/2023	16:25:17.355	0.00000E+0	0.00000E+0	1.99706E+2	2.89792E+0	0.00000E+0	0.00000E+0	2.40199E+1	1.09478E+1	2.40188E+1	1.09475E+1
129	15/03/2023	16:25:18.848	0.00000E+0	0.00000E+0	7.03259E+1	2.00645E-1	0.00000E+0	0.00000E+0	2.24551E+1	1.24823E+1	2.24538E+1	1.24821E+1
130	15/03/2023	16:25:20.327	0.00000E+0	0.00000E+0	-2.01277E+2	-2.05489E+0	0.00000E+0	0.00000E+0	1.83691E+1	1.65164E+1	1.83709E+1	1.65173E+1
131	15/03/2023	16:25:21.811	0.00000E+0	0.00000E+0	-6.51929E+1	-1.28023E+0	0.00000E+0	0.00000E+0	2.01431E+1	1.47865E+1	2.01432E+1	1.47840E+1
132	15/03/2023	16:25:23.346	0.00000E+0	0.00000E+0	2.27821E+2	1.67580E+0	0.00000E+0	0.00000E+0	2.44842E+1	1.05221E+1	2.44850E+1	1.05227E+1
133	15/03/2023	16:25:24.815	0.00000E+0	0.00000E+0	-2.92168E+1	-8.43598E-1	0.00000E+0	0.00000E+0	2.10307E+1	1.39149E+1	2.10308E+1	1.39152E+1
134	15/03/2023	16:25:26.299	0.00000E+0	0.00000E+0	-2.14678E+2	-3.00833E+0	0.00000E+0	0.00000E+0	1.81422E+1	1.67351E+1	1.81423E+1	1.67363E+1
135	15/03/2023	16:25:27.874	0.00000E+0	0.00000E+0	1.15202E+2	-9.63100E-1	0.00000E+0	0.00000E+0	2.27553E+1	1.22510E+1	2.27567E+1	1.22522E+1
136	15/03/2023	16:25:29.375	0.00000E+0	0.00000E+0	2.11423E+2	1.87194E-1	0.00000E+0	0.00000E+0	2.43090E+1	1.06635E+1	2.43092E+1	1.06643E+1
137	15/03/2023	16:25:30.876	0.00000E+0	0.00000E+0	-1.53168E+2	9.53389E-1	0.00000E+0	0.00000E+0	1.91825E+1	1.57590E+1	1.91813E+1	1.57562E+1
138	15/03/2023	16:25:32.400	0.00000E+0	0.00000E+0	-1.44346E+2	6.02412E-1	0.00000E+0	0.00000E+0	1.90701E+1	1.59572E+1	1.90732E+1	1.59582E+1
139	15/03/2023	16:25:33.897	0.00000E+0	0.00000E+0	1.80654E+2	1.15141E+0	0.00000E+0	0.00000E+0	2.37533E+1	1.12037E+1	2.37523E+1	1.12043E+1
140	15/03/2023	16:25:35.398	0.00000E+0	0.00000E+0	6.83060E+1	7.01014E-1	0.00000E+0	0.00000E+0	2.24348E+1	1.25558E+1	2.24333E+1	1.25549E+1
141	15/03/2023	16:25:36.895	0.00000E+0	0.00000E+0	-2.22399E+2	6.62572E-2	0.00000E+0	0.00000E+0	1.81359E+1	1.67937E+1	1.81366E+1	1.67921E+1
142	15/03/2023	16:25:38.382	0.00000E+0	0.00000E+0	3.50585E+1	-3.99891E+0	0.00000E+0	0.00000E+0	2.15684E+1	1.33833E+1	2.15693E+1	1.33848E+1
143	15/03/2023	16:25:39.876	0.00000E+0	0.00000E+0	2.22910E+2	6.36845E-1	0.00000E+0	0.00000E+0	2.43949E+1	1.05565E+1	2.43965E+1	1.05549E+1
144	15/03/2023	16:25:41.364	0.00000E+0	0.00000E+0	-4.00606E+1	5.08546E-1	0.00000E+0	0.00000E+0	2.08431E+1	1.41281E+1	2.08428E+1	1.41291E+1
145	15/03/2023	16:25:42.875	0.00000E+0	0.00000E+0	-2.00167E+2	-2.81677E-3	0.00000E+0	0.00000E+0	1.84213E+1	1.64806E+1	1.84206E+1	1.64798E+1
146	15/03/2023	16:25:44.313	0.00000E+0	0.00000E+0	-1.23696E+1	5.39912E-2	0.00000E+0	0.00000E+0	2.08051E+1	1.41331E+1	2.08066E+1	1.41334E+1
147	15/03/2023	16:25:45.824	0.00000E+0	0.00000E+0	1.99929E+2	3.79073E-1	0.00000E+0	0.00000E+0	2.40736E+1	1.08878E+1	2.40714E+1	1.08859E+1
148	15/03/2023	16:25:47.294	0.00000E+0	0.00000E+0	2.92396E+0	-1.27185E+0	0.00000E+0	0.00000E+0	2.15029E+1	1.34363E+1	2.15022E+1	1.34347E+1
149	15/03/2023	16:25:48.744	0.00000E+0	0.00000E+0	-1.92736E+2	-4.63402E-1	0.00000E+0	0.00000E+0	1.85552E+1	1.64295E+1	1.85535E+1	1.64296E+1
150	15/03/2023	16:25:50.238	0.00000E+0	0.00000E+0	-2.38478E+1	-8.93613E-1	0.00000E+0	0.00000E+0	2.06695E+1	1.42670E+1	2.06694E+1	1.42651E+1
151	15/03/2023	16:25:51.744	0.00000E+0	0.00000E+0	2.12400E+2	1.86743E+0	0.00000E+0	0.00000E+0	2.42678E+1	1.07077E+1	2.42672E+1	1.07058E+1
152	15/03/2023	16:25:53.178	0.00000E+0	0.00000E+0	-4.67431E+1	-8.21961E-1	0.00000E+0	0.00000E+0	2.06792E+1	1.42437E+1	2.06772E+1	1.42442E+1
153	15/03/2023	16:25:54.692	0.00000E+0	0.00000E+0	-1.83178E+2	-1.78039E+0	0.00000E+0	0.00000E+0	1.85974E+1	1.63151E+1	1.85956E+1	1.63143E+1
154	15/03/2023	16:25:56.191	0.00000E+0	0.00000E+0	1.14283E+2	1.39759E+0	0.00000E+0	0.00000E+0	2.27363E+1	1.21922E+1	2.27369E+1	1.21920E+1
155	15/03/2023	16:25:57.682	0.00000E+0	0.00000E+0	2.00112E+2	-6.36715E-1	0.00000E+0	0.00000E+0	2.41515E+1	1.08663E+1	2.41513E+1	1.08625E+1
156	15/03/2023	16:25:59.181	0.00000E+0	0.00000E+0	-1.75992E+2	2.06019E+0	0.00000E+0	0.00000E+0	1.88431E+1	1.61122E+1	1.88432E+1	1.61138E+1
157	15/03/2023	16:26:00.693	0.00000E+0	0.00000E+0	-1.32576E+2	8.49286E-1	0.00000E+0	0.00000E+0	1.92202E+1	1.57283E+1	1.92188E+1	1.57266E+1
158	15/03/2023	16:26:02.205	0.00000E+0	0.00000E+0	1.96662E+2	9.84717E-1	0.00000E+0	0.00000E+0	2.40356E+1	1.09699E+1	2.40329E+1	1.09700E+1
159	15/03/2023	16:26:03.684	0.00000E+0	0.00000E+0	4.90725E+1	-2.60990E-2	0.00000E+0	0.00000E+0	2.21152E+1	1.28344E+1	2.21159E+1	1.28343E+1
160	15/03/2023	16:26:05.167	0.00000E+0	0.00000E+0	-1.98931E+2	-1.73466E+0	0.00000E+0	0.00000E+0	1.84838E+1	1.64577E+1	1.84816E+1	1.64594E+1
161	15/03/2023	16:26:06.677	0.00000E+0	0.00000E+0	-4.44668E+1	-6.38731E-2	0.00000E+0	0.00000E+0	2.04322E+1	1.45020E+1	2.04330E+1	1.45048E+1
162	15/03/2023	16:26:08.151	0.00000E+0	0.00000E+0	2.29704E+2	6.42223E-1	0.00000E+0	0.00000E+0	2.44718E+1	1.05406E+1	2.44713E+1	1.05431E+1
163	15/03/2023	16:26:09.646	0.00000E+0	0.00000E+0	-1.56709E+1	8.66580E-1	0.00000E+0	0.00000E+0	2.11890E+1	1.37631E+1	2.11879E+1	1.37634E+1
164	15/03/2023	16:26:11.138	0.00000E+0	0.00000E+0	-2.04641E+2	-1.73857E+0	0.00000E+0	0.00000E+0	1.83664E+1	1.65646E+1	1.83653E+1	1.65630E+1
165	15/03/2023	16:26:12.643	0.00000E+0	0.00000E+0	2.76286E+1	-1.64288E+0	0.00000E+0	0.00000E+0	2.15673E+1	1.34068E+1	2.15688E+1	1.34072E+1
166	15/03/2023	16:26:14.116	0.00000E+0	0.00000E+0	2.04851E+2	1.32604E+0	0.00000E+0	0.00000E+0	2.40977E+1	1.08190E+1	2.40961E+1	1.08196E+1
167	15/03/2023	16:26:15.686	0.00000E+0	0.00000E+0	-2.84274E+1	-1.54453E+0	0.00000E+0	0.00000E+0	2.09505E+1	1.39854E+1	2.09515E+1	1.39854E+1
168	15/03/2023	16:26:17.205	0.00000E+0	0.00000E+0	-1.97313E+2	1.44261E+0	0.00000E+0	0.00000E+0	1.84022E+1	1.65178E+1	1.84018E+1	1.65171E+1
169	15/03/2023	16:26:18.656	0.00000E+0	0.00000E+0	-6.14229E+0	4.47893E-1	0.00000E+0	0.00000E+0	2.09066E+1	1.40127E+1	2.09077E+1	1.40118E+1
170	15/03/2023	16:26:20.137	0.00000E+0	0.00000E+0	1.98865E+2	-2.12125E-1	0.00000E+0	0.00000E+0	2.40642E+1	1.09364E+1	2.40616E+1	1.09342E+1
171	15/03/2023	16:26:21.661	0.00000E+0	0.00000E+0	-8.44888E+0	3.90407E-2	0.00000E+0	0.00000E+0	2.12778E+1	1.36952E+1	2.12786E+1	1.36947E+1
172	15/03/2023	16:26:23.161	0.00000E+0	0.00000E+0	-2.20137E+2	-1.68364E+0	0.00000E+0	0.00000E+0	1.81285E+1	1.67090E+1	1.81265E+1	1.67080E+1
173	15/03/2023	16:26:24.614	0.00000E+0	0.00000E+0	3.02367E+1	-1.08095E+0	0.00000E+0	0.00000E+0	2.14599E+1	1.34824E+1	2.14602E+1	1.34829E+1
174	15/03/2023	16:26:26.083	0.00000E+0	0.00000E+0	2.25676E+2	2.06176E+0	0.00000E+0	0.00000E+0	2.44310E+1	1.05637E+1	2.44314E+1	1.05642E+1
175	15/03/2023	16:26:27.627	0.00000E+0	0.00000E+0	-5.43592E+1	-1.40301E+0	0.00000E+0	0.00000E+0	2.06442E+1	1.43167E+1	2.06445E+1	1.43162E+1
176	15/03/2023	16:26:29.136	0.00000E+0	0.00000E+0	-2.13155E+2	-3.07523E-1	0.00000E+0	0.00000E+0	1.81189E+1	1.67315E+1	1.81203E+1	1.67308E+1
177	15/03/2023	16:26:30.651	0.00000E+0	0.00000E+0	7.20247E+1	1.49645E+0	0.00000E+0	0.00000E+0	2.22141E+1	1.27967E+1	2.22151E+1	1.27976E+1
178	15/03/2023	16:26:32.140	0.00000E+0	0.00000E+0	2.28035E+2	3.11970E-1	0.00000E+0	0.00000E+0	2.45734E+1	1.04168E+1	2.45753E+1	1.04143E+1
179	15/03/2023	16:26:33.622	0.00000E+0	0.00000E+0	-1.04382E+2	2.42102E-1	0.00000E+0	0.00000E+0	1.99054E+1	1.50201E+1	1.99051E+1	1.50205E+1
180	15/03/2023	16:26:35.061	0.00000E+0	0.00000E+0	-1.96976E+2	-8.71646E-1	0.00000E+0	0.00000E+0	1.84445E+1	1.64291E+1	1.84444E+1	1.64288E+1
181	15/03/2023	16:26:36.570	0.00000E+0	0.00000E+0	9.90393E+1	2.13623E+0	0.00000E+0	0.00000E+0	2.25359E+1	1.23924E+1	2.25367E+1	1.23917E+1
182	15/03/2023	16:26:38.056	0.00000E+0	0.00000E+0	2.04532E+2	1.24957E+0	0.00000E+0	0.00000E+0	2.42102E+1	1.07582E+1	2.42105E+1	1.07595E+1
183	15/03/2023	16:26:39.573	0.00000E+0	0.00000E+0	-1.52124E+2	-4.73082E-1	0.00000E+0	0.00000E+0	1.92316E+1	1.57099E+1	1.92340E+1	1.57084E+1
184	15/03/2023	16:26:41.091	0.00000E+0	0.00000E+0	-1.70863E+2	-4.96208E-1	0.00000E+0	0.00000E+0	1.87061E+1	1.61982E+1	1.87055E+1	1.61998E+1
185	15/03/2023	16:26:42.602	0.00000E+0	0.00000E+0	1.80370E+2	2.57296E+0	0.00000E+0	0.00000E+0	2.37489E+1	1.12414E+1	2.37505E+1	1.12421E+1
186	15/03/2023	16:26:44.104	0.00000E+0	0.00000E+0	1.00831E+2	-7.69546E-1	0.00000E+0	0.00000E+0	2.28938E+1	1.20886E+1	2.28919E+1	1.20901E+1
187	15/03/2023	16:26:45.601	0.00000E+0	0.00000E+0	-1.81223E+2	-2.73380E+0	0.00000E+0	0.00000E+0	1.86841E+1	1.62632E+1	1.86858E+1	1.62626E+1
188	15/03/2023	16:26:47.082	0.00000E+0	0.00000E+0	-9.88529E+1	-1.23128E+0	0.00000E+0	0.00000E+0	1.96697E+1	1.52240E+1	1.96687E+1	1.52232E+1
189	15/03/2023	16:26:48.567	0.00000E+0	0.00000E+0	1.70667E+2	1.95119E+0	0.00000E+0	0.00000E+0	2.36640E+1	1.13486E+1	2.36648E+1	1.13469E+1
190	15/03/2023	16:26:50.069	0.00000E+0	0.00000E+0	1.17303E+2	9.56156E-1	0.00000E+0	0.00000E+0	2.30394E+1	1.19475E+1	2.30426E+1	1.19506E+1
191	15/03/2023	16:26:51.563	0.00000E+0	0.00000E+0	-1.56997E+2	-7.05278E-1	0.00000E+0	0.00000E+0	1.90331E+1	1.58870E+1	1.90319E+1	1.58866E+1
192	15/03/2023	16:26:53.067	0.00000E+0	0.00000E+0	-1.79447E+2	9.42949E-1	0.00000E+0	0.00000E+0	1.86441E+1	1.62857E+1	1.86418E+1	1.62852E+1
193	15/03/2023	16:26:54.568	0.00000E+0	0.00000E+0	1.38197E+2	2.57551E+0	0.00000E+0	0.00000E+0	2.31437E+1	1.18365E+1	2.31460E+1	1.18359E+1
194	15/03/2023	16:26:56.036	0.00000E+0	0.00000E+0	1.95074E+2	1.29497E+0	0.00000E+0	0.00000E+0	2.41861E+1	1.08442E+1	2.41850E+1	1.08436E+1
195	15/03/2023	16:26:57.560	0.00000E+0	0.00000E+0	-1.53468E+2	-1.43408E+0	0.00000E+0	0.00000E+0	1.91482E+1	1.57945E+1	1.91493E+1	1.57962E+1
196	15/03/2023	16:26:59.050	0.00000E+0	0.00000E+0	-1.99152E+2	-2.45012E+0	0.00000E+0	0.00000E+0	1.84229E+1	1.65383E+1	1.84246E+1	1.65380E+1
197	15/03/2023	16:27:00.587	0.00000E+0	0.00000E+0	1.20498E+2	6.19454E-1	0.00000E+0	0.00000E+0	2.29229E+1	1.20723E+1	2.29234E+1	1.20720E+1
198	15/03/2023	16:27:02.081	0.00000E+0	0.00000E+0	2.13659E+2	6.36848E-1	0.00000E+0	0.00000E+0	2.43222E+1	1.06573E+1	2.43223E+1	1.06564E+1
199	15/03/2023	16:27:03.601	0.00000E+0	0.00000E+0	-1.49645E+2	-7.30345E-1	0.00000E+0	0.00000E+0	1.92348E+1	1.57081E+1	1.92360E+1	1.57078E+1
200	15/03/2023	16:27:05.050	0.00000E+0	0.00000E+0	-1.72058E+2	-4.84601E-1	0.00000E+0	0.00000E+0	1.87679E+1	1.62001E+1	1.87680E+1	1.62027E+1
201	15/03/2023	16:27:06.536	0.00000E+0	0.00000E+0	1.58242E+2	1.66588E+0	0.00000E+0	0.00000E+0	2.33732E+1	1.15840E+1	2.33746E+1	1.15857E+1
202	15/03/2023	16:27:08.028	0.00000E+0	0.00000E+0	1.47958E+2	1.78577E+0	0.00000E+0	0.00000E+0	2.35334E+1	1.15128E+1	2.35348E+1	1.15130E+1
203	15/03/2023	16:27:09.534	0.00000E+0	0.00000E+0	-1.70143E+2	6.58438E-1	0.00000E+0	0.00000E+0	1.88856E+1	1.60403E+1	1.88849E+1	1.60380E+1
204	15/03/2023	16:27:11.004	0.00000E+0	0.00000E+0	-1.43703E+2	-9.15433E-1	0.00000E+0	0.00000E+0	1.90415E+1	1.58696E+1	1.90422E+1	1.58700E+1
205	15/03/2023	16:27:12.505	0.00000E+0	0.00000E+0	1.95778E+2	2.92281E-1	0.00000E+0	0.00000E+0	2.39662E+1	1.10341E+1	2.39642E+1	1.10323E+1
206	15/03/2023	16:27:14.057	0.00000E+0	0.00000E+0	6.28263E+1	-1.61208E-1	0.00000E+0	0.00000E+0	2.22805E+1	1.27155E+1	2.22799E+1	1.27162E+1
207	15/03/2023	16:27:15.559	0.00000E+0	0.00000E+0	-2.16600E+2	-8.36873E-2	0.00000E+0	0.00000E+0	1.81833E+1	1.66847E+1	1.81827E+1	1.66867E+1
208	15/03/2023	16:27:17.038	0.00000E+0	0.00000E+0	3.15247E+1	6.39384E-1	0.00000E+0	0.00000E+0	2.15862E+1	1.34266E+1	2.15862E+1	1.34266E+1
209	15/03/2023	16:27:18.509	0.00000E+0	0.00000E+0	2.33660E+2	1.41237E+0	0.00000E+0	0.00000E+0	2.45990E+1	1.03981E+1	2.45979E+1	1.03992E+1
210	15/03/2023	16:27:19.994	0.00000E+0	0.00000E+0	-1.39055E+2	-1.25434E+0	0.00000E+0	0.00000E+0	1.93641E+1	1.55207E+1	1.93652E+1	1.55196E+1
211	15/03/2023	16:27:21.465	0.00000E+0	0.00000E+0	-1.72391E+2	-3.44811E+0	0.00000E+0	0.00000E+0	1.86692E+1	1.62359E+1	1.86679E+1	1.62356E+1
212	15/03/2023	16:27:22.926	0.00000E+0	0.00000E+0	2.06618E+2	1.11293E+0	0.00000E+0	0.00000E+0	2.40890E+1	1.08713E+1	2.40904E+1	1.08714E+1
213	15/03/2023	16:27:24.429	0.00000E+0	0.00000E+0	4.65134E+1	3.05488E-1	0.00000E+0	0.00000E+0	2.20879E+1	1.28821E+1	2.20861E+1	1.28822E+1
214	15/03/2023	16:27:25.892	0.00000E+0	0.00000E+0	-2.35418E+2	-1.50148E+0	0.00000E+0	0.00000E+0	1.79432E+1	1.69436E+1	1.79424E+1	1.69458E+1
215	15/03/2023	16:27:27.375	0.00000E+0	0.00000E+0	1.05900E+2	-9.12513E-1	0.00000E+0	0.00000E+0	2.26264E+1	1.23451E+1	2.26270E+1	1.23452E+1
216	15/03/2023	16:27:28.857	0.00000E+0	0.00000E+0	1.97100E+2	2.14914E+0	0.00000E+0	0.00000E+0	2.42243E+1	1.07517E+1	2.42249E+1	1.07519E+1
217	15/03/2023	16:27:30.335	0.00000E+0	0.00000E+0	-1.94046E+2	2.84329E+0	0.00000E+0	0.00000E+0	1.85676E+1	1.63610E+1	1.85708E+1	1.63600E+1
218	15/03/2023	16:27:31.824	0.00000E+0	0.00000E+0	-1.24678E+2	-1.37595E+0	0.00000E+0	0.00000E+0	1.92898E+1	1.56124E+1	1.92911E+1	1.56124E+1
219	15/03/2023	16:27:33.304	0.00000E+0	0.00000E+0	2.12736E+2	9.83985E-1	0.00000E+0	0.00000E+0	2.42478E+1	1.07362E+1	2.42475E+1	1.07381E+1
220	15/03/2023	16:27:34.769	0.00000E+0	0.00000E+0	7.15166E+1	-3.55535E-2	0.00000E+0	0.00000E+0	2.24173E+1	1.25707E+1	2.24159E+1	1.25701E+1
221	15/03/2023	16:27:36.278	0.00000E+0	0.00000E+0	-2.09875E+2	-1.79798E+0	0.00000E+0	0.00000E+0	1.83012E+1	1.66462E+1	1.83018E+1	1.66461E+1
222	15/03/2023	16:27:37.775	0.00000E+0	0.00000E+0	3.34646E+1	7.89521E-1	0.00000E+0	0.00000E+0	2.15657E+1	1.33836E+1	2.15689E+1	1.33842E+1
223	15/03/2023	16:27:39.257	0.00000E+0	0.00000E+0	2.23556E+2	-9.41731E-1	0.00000E+0	0.00000E+0	2.44907E+1	1.04628E+1	2.44922E+1	1.04620E+1
224	15/03/2023	16:27:40.713	0.00000E+0	0.00000E+0	-1.37744E+2	-1.06449E+0	0.00000E+0	0.00000E+0	1.94407E+1	1.55052E+1	1.94395E+1	1.55063E+1
225	15/03/2023	16:27:42.227	0.00000E+0	0.00000E+0	-1.45070E+2	-4.00118E+0	0.00000E+0	0.00000E+0	1.90469E+1	1.58478E+1	1.90471E+1	1.58487E+1
226	15/03/2023	16:27:43.691	0.00000E+0	0.00000E+0	2.04464E+2	1.23349E+0	0.00000E+0	0.00000E+0	2.40564E+1	1.09446E+1	2.40526E+1	1.09443E+1
227	15/03/2023	16:27:45.150	0.00000E+0	0.00000E+0	7.73570E+1	9.92173E-1	0.00000E+0	0.00000E+0	2.25197E+1	1.24731E+1	2.25224E+1	1.24707E+1
228	15/03/2023	16:27:46.604	0.00000E+0	0.00000E+0	-2.00084E+2	-9.87002E-1	0.00000E+0	0.00000E+0	1.84219E+1	1.64689E+1	1.84227E+1	1.64679E+1
229	15/03/2023	16:27:48.115	0.00000E+0	0.00000E+0	-3.18386E-2	-1.85832E+0	0.00000E+0	0.00000E+0	2.10022E+1	1.39221E+1	2.10026E+1	1.39228E+1
230	15/03/2023	16:27:49.603	0.00000E+0	0.00000E+0	2.01010E+2	-9.19853E-1	0.00000E+0	0.00000E+0	2.41178E+1	1.08530E+1	2.41215E+1	1.08500E+1
231	15/03/2023	16:27:51.097	0.00000E+0	0.00000E+0	-7.99470E+1	-5.04637E-1	0.00000E+0	0.00000E+0	2.02628E+1	1.46418E+1	2.02623E+1	1.46414E+1
232	15/03/2023	16:27:52.571	0.00000E+0	0.00000E+0	-1.91968E+2	2.84018E-1	0.00000E+0	0.00000E+0	1.83659E+1	1.65422E+1	1.83653E+1	1.65415E+1
233	15/03/2023	16:27:54.060	0.00000E+0	0.00000E+0	1.88085E+2	2.95666E-1	0.00000E+0	0.00000E+0	2.38819E+1	1.11109E+1	2.38835E+1	1.11081E+1
234	15/03/2023	16:27:55.596	0.00000E+0	0.00000E+0	9.08349E+1	-7.50030E-1	0.00000E+0	0.00000E+0	2.27281E+1	1.22486E+1	2.27300E+1	1.22481E+1
235	15/03/2023	16:27:57.114	0.00000E+0	0.00000E+0	-2.06300E+2	-3.10103E+0	0.00000E+0	0.00000E+0	1.83187E+1	1.66181E+1	1.83174E+1	1.66194E+1
236	15/03/2023	16:27:58.607	0.00000E+0	0.00000E+0	-3.20312E+1	5.43874E-1	0.00000E+0	0.00000E+0	2.05229E+1	1.43885E+1	2.05225E+1	1.43876E+1
237	15/03/2023	16:28:00.082	0.00000E+0	0.00000E+0	2.27422E+2	1.42172E+0	0.00000E+0	0.00000E+0	2.45078E+1	1.05283E+1	2.45073E+1	1.05286E+1
238	15/03/2023	16:28:01.603	0.00000E+0	0.00000E+0	-3.99375E+1	-5.67500E-1	0.00000E+0	0.00000E+0	2.08743E+1	1.41068E+1	2.08730E+1	1.41053E+1
239	15/03/2023	16:28:03.103	0.00000E+0	0.00000E+0	-2.31103E+2	-2.69938E+0	0.00000E+0	0.00000E+0	1.79540E+1	1.69505E+1	1.79548E+1	1.69513E+1
240	15/03/2023	16:28:04.639	0.00000E+0	0.00000E+0	1.20609E+2	1.30589E+0	0.00000E+0	0.00000E+0	2.29186E+1	1.20785E+1	2.29181E+1	1.20792E+1
241	15/03/2023	16:28:06.106	0.00000E+0	0.00000E+0	1.87702E+2	9.98512E-1	0.00000E+0	0.00000E+0	2.40073E+1	1.09239E+1	2.40044E+1	1.09251E+1
242	15/03/2023	16:28:07.619	0.00000E+0	0.00000E+0	-1.65529E+2	-1.88829E+0	0.00000E+0	0.00000E+0	1.90000E+1	1.59107E+1	1.89980E+1	1.59104E+1
