#Iteration	Date	Time	Chirp	Phase	RamanAxis	RTPhase	NFringe	Ratio
1	02/09/2022	15:07:24.836	0.00000000E+0	-3.14159265E+1	5.00000000E+0	3.17572373E+0	-6.31000000E+2	3.55039457E-1
2	02/09/2022	15:07:26.233	0.00000000E+0	-3.12065382E+1	5.00000000E+0	5.61168522E+0	-6.30000000E+2	3.58233029E-1
3	02/09/2022	15:07:27.698	0.00000000E+0	-3.09971498E+1	5.00000000E+0	2.25073331E+0	-6.30000000E+2	3.91690658E-1
4	02/09/2022	15:07:29.118	0.00000000E+0	-3.07877614E+1	5.00000000E+0	4.95092299E+0	-6.31000000E+2	4.02199119E-1
5	02/09/2022	15:07:30.522	0.00000000E+0	-3.05779895E+1	5.00000000E+0	5.71714640E+0	-6.30000000E+2	4.29754973E-1
6	02/09/2022	15:07:31.998	0.00000000E+0	-3.03686012E+1	5.00000000E+0	3.82114614E+0	-6.31000000E+2	4.58512111E-1
7	02/09/2022	15:07:33.405	0.00000000E+0	-3.01592128E+1	5.00000000E+0	8.76286525E-1	-6.30000000E+2	4.87342805E-1
8	02/09/2022	15:07:34.860	0.00000000E+0	-2.99498244E+1	5.00000000E+0	4.13446172E+0	-6.30000000E+2	5.08327101E-1
9	02/09/2022	15:07:36.359	0.00000000E+0	-2.97404360E+1	5.00000000E+0	5.32981625E+0	-6.30000000E+2	5.21765454E-1
10	02/09/2022	15:07:37.753	0.00000000E+0	-2.95310476E+1	5.00000000E+0	4.93750066E+0	-6.31000000E+2	5.46664843E-1
11	02/09/2022	15:07:39.253	0.00000000E+0	-2.93216593E+1	5.00000000E+0	4.38181612E+0	-6.31000000E+2	5.62185077E-1
12	02/09/2022	15:07:40.674	0.00000000E+0	-2.91122709E+1	5.00000000E+0	5.80535029E+0	-6.31000000E+2	5.71374666E-1
13	02/09/2022	15:07:42.031	0.00000000E+0	-2.89024990E+1	5.00000000E+0	6.14512704E+0	-6.31000000E+2	5.72716979E-1
14	02/09/2022	15:07:43.566	0.00000000E+0	-2.86931106E+1	5.00000000E+0	5.08591330E+0	-6.30000000E+2	5.66682577E-1
15	02/09/2022	15:07:44.946	0.00000000E+0	-2.84837223E+1	5.00000000E+0	1.66782061E+0	-6.30000000E+2	5.67466878E-1
16	02/09/2022	15:07:46.381	0.00000000E+0	-2.82743339E+1	5.00000000E+0	4.35650544E-1	-6.30000000E+2	5.62014394E-1
17	02/09/2022	15:07:47.871	0.00000000E+0	-2.80649455E+1	5.00000000E+0	5.78809301E+0	-6.31000000E+2	5.31718720E-1
18	02/09/2022	15:07:49.258	0.00000000E+0	-2.78555571E+1	5.00000000E+0	1.84192743E+0	-6.30000000E+2	5.05764308E-1
19	02/09/2022	15:07:50.724	0.00000000E+0	-2.76461687E+1	5.00000000E+0	4.94938901E+0	-6.30000000E+2	4.95446088E-1
20	02/09/2022	15:07:52.132	0.00000000E+0	-2.74363969E+1	5.00000000E+0	1.41548077E+0	-6.30000000E+2	4.63011636E-1
21	02/09/2022	15:07:53.534	0.00000000E+0	-2.72270085E+1	5.00000000E+0	4.41402972E+0	-6.31000000E+2	4.43386985E-1
22	02/09/2022	15:07:55.036	0.00000000E+0	-2.70176201E+1	5.00000000E+0	5.21821915E+0	-6.31000000E+2	4.21367785E-1
23	02/09/2022	15:07:56.418	0.00000000E+0	-2.68082317E+1	5.00000000E+0	1.95889347E+0	-6.30000000E+2	3.97075362E-1
24	02/09/2022	15:07:57.910	0.00000000E+0	-2.65988434E+1	5.00000000E+0	5.29913663E+0	-6.31000000E+2	3.67519504E-1
25	02/09/2022	15:07:59.299	0.00000000E+0	-2.63894550E+1	5.00000000E+0	4.34078213E+0	-6.30000000E+2	3.67747787E-1
26	02/09/2022	15:08:00.701	0.00000000E+0	-2.61800666E+1	5.00000000E+0	5.47707840E+0	-6.31000000E+2	3.40020809E-1
27	02/09/2022	15:08:02.217	0.00000000E+0	-2.59706782E+1	5.00000000E+0	3.69957817E+0	-6.30000000E+2	3.36134938E-1
28	02/09/2022	15:08:03.578	0.00000000E+0	-2.57609064E+1	5.00000000E+0	5.43527743E+0	-6.31000000E+2	3.33783466E-1
29	02/09/2022	15:08:04.966	0.00000000E+0	-2.55515180E+1	5.00000000E+0	4.09687919E+0	-6.30000000E+2	3.32467144E-1
30	02/09/2022	15:08:06.459	0.00000000E+0	-2.53421296E+1	5.00000000E+0	2.01603425E+0	-6.30000000E+2	3.38447062E-1
31	02/09/2022	15:08:07.844	0.00000000E+0	-2.51327412E+1	5.00000000E+0	5.29606867E+0	-6.30000000E+2	3.44274535E-1
32	02/09/2022	15:08:09.271	0.00000000E+0	-2.49233529E+1	5.00000000E+0	4.31777242E+0	-6.31000000E+2	3.75741506E-1
33	02/09/2022	15:08:10.656	0.00000000E+0	-2.47139645E+1	5.00000000E+0	4.35458796E+0	-6.30000000E+2	3.83681572E-1
34	02/09/2022	15:08:12.050	0.00000000E+0	-2.45045761E+1	5.00000000E+0	4.67480645E+0	-6.31000000E+2	4.15536689E-1
35	02/09/2022	15:08:13.549	0.00000000E+0	-2.42948042E+1	5.00000000E+0	1.48604389E+0	-6.30000000E+2	4.34376123E-1
36	02/09/2022	15:08:14.944	0.00000000E+0	-2.40854158E+1	5.00000000E+0	2.26492263E+0	-6.30000000E+2	4.52537718E-1
37	02/09/2022	15:08:16.350	0.00000000E+0	-2.38760275E+1	5.00000000E+0	5.17910264E+0	-6.31000000E+2	4.88600507E-1
38	02/09/2022	15:08:17.836	0.00000000E+0	-2.36666391E+1	5.00000000E+0	3.54272863E+0	-6.30000000E+2	5.09966990E-1
39	02/09/2022	15:08:19.225	0.00000000E+0	-2.34572507E+1	5.00000000E+0	5.89470467E+0	-6.31000000E+2	5.35712921E-1
40	02/09/2022	15:08:20.686	0.00000000E+0	-2.32478623E+1	5.00000000E+0	5.43182597E+0	-6.31000000E+2	5.53561563E-1
41	02/09/2022	15:08:22.068	0.00000000E+0	-2.30384740E+1	5.00000000E+0	5.11275797E+0	-6.30000000E+2	5.62767963E-1
42	02/09/2022	15:08:23.457	0.00000000E+0	-2.28290856E+1	5.00000000E+0	5.20249584E+0	-6.31000000E+2	5.67051995E-1
43	02/09/2022	15:08:24.953	0.00000000E+0	-2.26193137E+1	5.00000000E+0	4.12065589E+0	-6.30000000E+2	5.81641155E-1
44	02/09/2022	15:08:26.341	0.00000000E+0	-2.24099253E+1	5.00000000E+0	4.08652482E+0	-6.31000000E+2	5.70420420E-1
45	02/09/2022	15:08:27.772	0.00000000E+0	-2.22005370E+1	5.00000000E+0	6.02586003E+0	-6.30000000E+2	5.67010012E-1
46	02/09/2022	15:08:29.268	0.00000000E+0	-2.19911486E+1	5.00000000E+0	2.22158768E+0	-6.30000000E+2	5.60057044E-1
47	02/09/2022	15:08:30.665	0.00000000E+0	-2.17817602E+1	5.00000000E+0	4.60424333E+0	-6.31000000E+2	5.39804818E-1
48	02/09/2022	15:08:32.156	0.00000000E+0	-2.15723718E+1	5.00000000E+0	5.60133085E+0	-6.30000000E+2	5.24884290E-1
49	02/09/2022	15:08:33.537	0.00000000E+0	-2.13629834E+1	5.00000000E+0	4.83203948E-1	-6.30000000E+2	5.08493641E-1
50	02/09/2022	15:08:34.988	0.00000000E+0	-2.11532116E+1	5.00000000E+0	4.53866566E+0	-6.30000000E+2	4.77841761E-1
51	02/09/2022	15:08:36.495	0.00000000E+0	-2.09438232E+1	5.00000000E+0	4.17933066E+0	-6.30000000E+2	4.50344055E-1
52	02/09/2022	15:08:37.883	0.00000000E+0	-2.07344348E+1	5.00000000E+0	4.43934040E+0	-6.31000000E+2	4.24634928E-1
53	02/09/2022	15:08:39.307	0.00000000E+0	-2.05250464E+1	5.00000000E+0	1.82543714E+0	-6.30000000E+2	3.94234016E-1
54	02/09/2022	15:08:40.695	0.00000000E+0	-2.03156581E+1	5.00000000E+0	3.52010241E+0	-6.30000000E+2	3.78012846E-1
55	02/09/2022	15:08:42.058	0.00000000E+0	-2.01062697E+1	5.00000000E+0	5.62549104E+0	-6.30000000E+2	3.53952169E-1
56	02/09/2022	15:08:43.587	0.00000000E+0	-1.98968813E+1	5.00000000E+0	5.06635505E+0	-6.31000000E+2	3.46646529E-1
57	02/09/2022	15:08:44.968	0.00000000E+0	-1.96874929E+1	5.00000000E+0	5.85098622E+0	-6.30000000E+2	3.35798351E-1
58	02/09/2022	15:08:46.428	0.00000000E+0	-1.94777211E+1	5.00000000E+0	4.24337435E+0	-6.30000000E+2	3.38455938E-1
59	02/09/2022	15:08:47.815	0.00000000E+0	-1.92683327E+1	5.00000000E+0	9.54136050E-1	-6.30000000E+2	3.24301733E-1
60	02/09/2022	15:08:49.206	0.00000000E+0	-1.90589443E+1	5.00000000E+0	3.03344701E+0	-6.30000000E+2	3.36945574E-1
61	02/09/2022	15:08:50.679	0.00000000E+0	-1.88495559E+1	5.00000000E+0	5.48628229E+0	-6.30000000E+2	3.42326658E-1
62	02/09/2022	15:08:52.049	0.00000000E+0	-1.86401675E+1	5.00000000E+0	5.60516580E+0	-6.30000000E+2	3.56408132E-1
63	02/09/2022	15:08:53.431	0.00000000E+0	-1.84307792E+1	5.00000000E+0	6.24943773E+0	-6.31000000E+2	3.88651359E-1
64	02/09/2022	15:08:54.973	0.00000000E+0	-1.82213908E+1	5.00000000E+0	4.87460745E+0	-6.30000000E+2	3.98632317E-1
65	02/09/2022	15:08:56.409	0.00000000E+0	-1.80116189E+1	5.00000000E+0	5.96411730E+0	-6.31000000E+2	4.30942455E-1
66	02/09/2022	15:08:57.903	0.00000000E+0	-1.78022305E+1	5.00000000E+0	5.25925313E+0	-6.31000000E+2	4.60224069E-1
67	02/09/2022	15:08:59.320	0.00000000E+0	-1.75928422E+1	5.00000000E+0	4.32620932E+0	-6.31000000E+2	4.76990132E-1
68	02/09/2022	15:09:00.680	0.00000000E+0	-1.73834538E+1	5.00000000E+0	2.01641775E+0	-6.30000000E+2	4.94918535E-1
69	02/09/2022	15:09:02.199	0.00000000E+0	-1.71740654E+1	5.00000000E+0	4.45046176E+0	-6.31000000E+2	5.22285671E-1
70	02/09/2022	15:09:03.589	0.00000000E+0	-1.69646770E+1	5.00000000E+0	4.34500058E-1	-6.29000000E+2	5.50248831E-1
71	02/09/2022	15:09:04.987	0.00000000E+0	-1.67552887E+1	5.00000000E+0	5.66307357E+0	-6.31000000E+2	5.60615971E-1
72	02/09/2022	15:09:06.472	0.00000000E+0	-1.65459003E+1	5.00000000E+0	2.77842270E+0	-6.30000000E+2	5.62150964E-1
73	02/09/2022	15:09:07.867	0.00000000E+0	-1.63361284E+1	5.00000000E+0	3.12855382E+0	-6.30000000E+2	5.78313483E-1
74	02/09/2022	15:09:09.366	0.00000000E+0	-1.61267400E+1	5.00000000E+0	3.77589371E+0	-6.31000000E+2	5.77026835E-1
75	02/09/2022	15:09:10.751	0.00000000E+0	-1.59173516E+1	5.00000000E+0	1.96349541E-1	-6.29000000E+2	5.72784677E-1
76	02/09/2022	15:09:12.137	0.00000000E+0	-1.57079633E+1	5.00000000E+0	4.45276273E+0	-6.31000000E+2	5.57284113E-1
77	02/09/2022	15:09:13.584	0.00000000E+0	-1.54985749E+1	5.00000000E+0	4.94171911E+0	-6.30000000E+2	5.37279191E-1
78	02/09/2022	15:09:14.965	0.00000000E+0	-1.52891865E+1	5.00000000E+0	5.73823863E+0	-6.31000000E+2	5.15705513E-1
79	02/09/2022	15:09:16.403	0.00000000E+0	-1.50797981E+1	5.00000000E+0	4.52792779E+0	-6.30000000E+2	5.05955149E-1
80	02/09/2022	15:09:17.739	0.00000000E+0	-1.48700263E+1	5.00000000E+0	4.21384522E+0	-6.30000000E+2	4.67902041E-1
81	02/09/2022	15:09:19.101	0.00000000E+0	-1.46606379E+1	5.00000000E+0	5.05485019E+0	-6.30000000E+2	4.51035657E-1
82	02/09/2022	15:09:20.589	0.00000000E+0	-1.44512495E+1	5.00000000E+0	5.33326770E+0	-6.31000000E+2	4.11578171E-1
83	02/09/2022	15:09:21.961	0.00000000E+0	-1.42418611E+1	5.00000000E+0	6.03621440E+0	-6.31000000E+2	3.97489109E-1
84	02/09/2022	15:09:23.374	0.00000000E+0	-1.40324728E+1	5.00000000E+0	4.28747630E-1	-6.30000000E+2	3.68769763E-1
85	02/09/2022	15:09:24.876	0.00000000E+0	-1.38230844E+1	5.00000000E+0	3.47139852E+0	-6.31000000E+2	3.51398437E-1
86	02/09/2022	15:09:26.256	0.00000000E+0	-1.36136960E+1	5.00000000E+0	4.37414622E+0	-6.30000000E+2	3.39434942E-1
87	02/09/2022	15:09:27.764	0.00000000E+0	-1.34043076E+1	5.00000000E+0	4.28594232E+0	-6.30000000E+2	3.31783143E-1
88	02/09/2022	15:09:29.147	0.00000000E+0	-1.31945357E+1	5.00000000E+0	2.95137904E+0	-6.30000000E+2	3.27441061E-1
89	02/09/2022	15:09:30.512	0.00000000E+0	-1.29851474E+1	5.00000000E+0	4.28594232E+0	-6.30000000E+2	3.28656626E-1
90	02/09/2022	15:09:32.034	0.00000000E+0	-1.27757590E+1	5.00000000E+0	4.55400546E+0	-6.31000000E+2	3.37128808E-1
91	02/09/2022	15:09:33.407	0.00000000E+0	-1.25663706E+1	5.00000000E+0	4.00790830E+0	-6.31000000E+2	3.49466771E-1
92	02/09/2022	15:09:34.862	0.00000000E+0	-1.23569822E+1	5.00000000E+0	4.56167537E+0	-6.31000000E+2	3.59443848E-1
93	02/09/2022	15:09:36.354	0.00000000E+0	-1.21475939E+1	5.00000000E+0	4.21192775E+0	-6.30000000E+2	3.80781791E-1
94	02/09/2022	15:09:37.747	0.00000000E+0	-1.19382055E+1	5.00000000E+0	5.63737940E-2	-6.30000000E+2	4.04838933E-1
95	02/09/2022	15:09:39.240	0.00000000E+0	-1.17284336E+1	5.00000000E+0	5.07517544E+0	-6.31000000E+2	4.27382219E-1
96	02/09/2022	15:09:40.631	0.00000000E+0	-1.15190452E+1	5.00000000E+0	4.81900065E+0	-6.30000000E+2	4.53548412E-1
97	02/09/2022	15:09:42.038	0.00000000E+0	-1.13096569E+1	5.00000000E+0	2.84860232E+0	-6.30000000E+2	4.82499423E-1
98	02/09/2022	15:09:43.535	0.00000000E+0	-1.11002685E+1	5.00000000E+0	4.26638407E+0	-6.31000000E+2	5.04222111E-1
99	02/09/2022	15:09:44.946	0.00000000E+0	-1.08908801E+1	5.00000000E+0	3.64972379E+0	-6.31000000E+2	5.28396451E-1
100	02/09/2022	15:09:46.389	0.00000000E+0	-1.06814917E+1	5.00000000E+0	4.46119963E+0	-6.30000000E+2	5.43832316E-1
101	02/09/2022	15:09:47.851	0.00000000E+0	-1.04721033E+1	5.00000000E+0	4.90145211E+0	-6.30000000E+2	5.61147666E-1
102	02/09/2022	15:09:49.235	0.00000000E+0	-1.02627150E+1	5.00000000E+0	3.58107815E+0	-6.31000000E+2	5.67495960E-1
103	02/09/2022	15:09:50.780	0.00000000E+0	-1.00529431E+1	5.00000000E+0	5.54227259E+0	-6.31000000E+2	5.74874517E-1
104	02/09/2022	15:09:52.151	0.00000000E+0	-9.84355472E+0	5.00000000E+0	4.06811705E+0	-6.31000000E+2	5.71612384E-1
105	02/09/2022	15:09:53.627	0.00000000E+0	-9.63416634E+0	5.00000000E+0	2.41065081E+0	-6.30000000E+2	5.74735846E-1
106	02/09/2022	15:09:55.123	0.00000000E+0	-9.42477796E+0	5.00000000E+0	4.53022876E+0	-6.31000000E+2	5.50642827E-1
107	02/09/2022	15:09:56.495	0.00000000E+0	-9.21538958E+0	5.00000000E+0	5.95376293E+0	-6.31000000E+2	5.39316747E-1
108	02/09/2022	15:09:58.011	0.00000000E+0	-9.00600121E+0	5.00000000E+0	4.47922390E+0	-6.30000000E+2	5.22901240E-1
109	02/09/2022	15:09:59.386	0.00000000E+0	-8.79661283E+0	5.00000000E+0	5.42147160E+0	-6.30000000E+2	5.02796154E-1
110	02/09/2022	15:10:00.787	0.00000000E+0	-8.58684096E+0	5.00000000E+0	1.57616526E-1	-6.30000000E+2	4.67434449E-1
111	02/09/2022	15:10:02.323	0.00000000E+0	-8.37745258E+0	5.00000000E+0	6.00285032E+0	-6.31000000E+2	4.45890139E-1
112	02/09/2022	15:10:03.707	0.00000000E+0	-8.16806420E+0	5.00000000E+0	6.95276792E-1	-6.30000000E+2	4.28767952E-1
113	02/09/2022	15:10:05.175	0.00000000E+0	-7.95867582E+0	5.00000000E+0	5.29069974E+0	-6.30000000E+2	3.99710151E-1
114	02/09/2022	15:10:06.540	0.00000000E+0	-7.74928745E+0	5.00000000E+0	2.93603923E+0	-6.30000000E+2	3.71189740E-1
115	02/09/2022	15:10:07.922	0.00000000E+0	-7.53989907E+0	5.00000000E+0	3.01043730E-1	-6.29000000E+2	3.61974561E-1
116	02/09/2022	15:10:09.424	0.00000000E+0	-7.33051069E+0	5.00000000E+0	9.73310810E-1	-6.29000000E+2	3.50747981E-1
117	02/09/2022	15:10:10.829	0.00000000E+0	-7.12112231E+0	5.00000000E+0	3.34254414E+0	-6.30000000E+2	3.31759494E-1
118	02/09/2022	15:10:12.285	0.00000000E+0	-6.91135044E+0	5.00000000E+0	1.52516040E+0	-6.30000000E+2	3.27842453E-1
119	02/09/2022	15:10:13.805	0.00000000E+0	-6.70196206E+0	5.00000000E+0	5.19482594E+0	-6.30000000E+2	3.31021693E-1
120	02/09/2022	15:10:15.192	0.00000000E+0	-6.49257368E+0	5.00000000E+0	3.63936942E+0	-6.31000000E+2	3.41837808E-1
121	02/09/2022	15:10:16.663	0.00000000E+0	-6.28318531E+0	5.00000000E+0	3.04878682E-1	-6.30000000E+2	3.49571961E-1
122	02/09/2022	15:10:18.050	0.00000000E+0	-6.07379693E+0	5.00000000E+0	4.63185499E+0	-6.30000000E+2	3.65806499E-1
123	02/09/2022	15:10:19.449	0.00000000E+0	-5.86440855E+0	5.00000000E+0	3.09250527E+0	-6.30000000E+2	3.83228177E-1
124	02/09/2022	15:10:20.913	0.00000000E+0	-5.65502017E+0	5.00000000E+0	3.83341799E+0	-6.30000000E+2	4.09091382E-1
125	02/09/2022	15:10:22.304	0.00000000E+0	-5.44524830E+0	5.00000000E+0	6.25979210E+0	-6.31000000E+2	4.34693532E-1
126	02/09/2022	15:10:23.758	0.00000000E+0	-5.23585992E+0	5.00000000E+0	2.78570911E+0	-6.30000000E+2	4.56035076E-1
127	02/09/2022	15:10:25.275	0.00000000E+0	-5.02647155E+0	5.00000000E+0	5.56029686E+0	-6.31000000E+2	4.87437531E-1
128	02/09/2022	15:10:26.656	0.00000000E+0	-4.81708317E+0	5.00000000E+0	1.38441766E+0	-6.30000000E+2	5.12084249E-1
129	02/09/2022	15:10:28.159	0.00000000E+0	-4.60769479E+0	5.00000000E+0	6.23601540E+0	-6.31000000E+2	5.30270169E-1
130	02/09/2022	15:10:29.521	0.00000000E+0	-4.39830641E+0	5.00000000E+0	3.96227238E+0	-6.31000000E+2	5.40940283E-1
131	02/09/2022	15:10:30.917	0.00000000E+0	-4.18891804E+0	5.00000000E+0	4.39025301E+0	-6.30000000E+2	5.56149889E-1
132	02/09/2022	15:10:32.381	0.00000000E+0	-3.97952966E+0	5.00000000E+0	4.14519958E+0	-6.30000000E+2	5.65107608E-1
133	02/09/2022	15:10:33.780	0.00000000E+0	-3.76975779E+0	5.00000000E+0	4.48612681E+0	-6.30000000E+2	5.69819118E-1
134	02/09/2022	15:10:35.231	0.00000000E+0	-3.56036941E+0	5.00000000E+0	5.34592305E+0	-6.31000000E+2	5.69406119E-1
135	02/09/2022	15:10:36.624	0.00000000E+0	-3.35098103E+0	5.00000000E+0	3.81040828E+0	-6.30000000E+2	5.62189411E-1
136	02/09/2022	15:10:38.014	0.00000000E+0	-3.14159265E+0	5.00000000E+0	9.39563233E-2	-6.30000000E+2	5.58115751E-1
137	02/09/2022	15:10:39.472	0.00000000E+0	-2.93220428E+0	5.00000000E+0	5.46902500E+0	-6.31000000E+2	5.39112567E-1
138	02/09/2022	15:10:40.863	0.00000000E+0	-2.72281590E+0	5.00000000E+0	4.66790354E+0	-6.30000000E+2	5.17210516E-1
139	02/09/2022	15:10:42.294	0.00000000E+0	-2.51342752E+0	5.00000000E+0	5.81225321E+0	-6.31000000E+2	4.97291250E-1
140	02/09/2022	15:10:43.800	0.00000000E+0	-2.30365565E+0	5.00000000E+0	5.26462206E+0	-6.31000000E+2	4.60972838E-1
141	02/09/2022	15:10:45.173	0.00000000E+0	-2.09426727E+0	5.00000000E+0	4.14251512E+0	-6.31000000E+2	4.51857469E-1
142	02/09/2022	15:10:46.702	0.00000000E+0	-1.88487889E+0	5.00000000E+0	5.34093761E+0	-6.30000000E+2	4.30672253E-1
143	02/09/2022	15:10:48.090	0.00000000E+0	-1.67549052E+0	5.00000000E+0	4.72427733E+0	-6.31000000E+2	3.98190881E-1
144	02/09/2022	15:10:49.460	0.00000000E+0	-1.46610214E+0	5.00000000E+0	4.11375298E+0	-6.31000000E+2	3.79691990E-1
145	02/09/2022	15:10:50.942	0.00000000E+0	-1.25671376E+0	5.00000000E+0	5.92231633E+0	-6.30000000E+2	3.56393624E-1
146	02/09/2022	15:10:52.379	0.00000000E+0	-1.04732538E+0	5.00000000E+0	4.48689380E+0	-6.31000000E+2	3.38135708E-1
147	02/09/2022	15:10:53.770	0.00000000E+0	-8.37937005E-1	5.00000000E+0	1.83694199E-1	-6.29000000E+2	3.39898074E-1
148	02/09/2022	15:10:55.265	0.00000000E+0	-6.28165133E-1	5.00000000E+0	2.34814109E+0	-6.30000000E+2	3.27842123E-1
149	02/09/2022	15:10:56.660	0.00000000E+0	-4.18776755E-1	5.00000000E+0	5.16146186E+0	-6.31000000E+2	3.29443461E-1
150	02/09/2022	15:10:58.147	0.00000000E+0	-2.09388378E-1	5.00000000E+0	6.26631152E+0	-6.30000000E+2	3.37646565E-1
151	02/09/2022	15:10:59.531	0.00000000E+0	0.00000000E+0	5.00000000E+0	1.48220894E+0	-6.30000000E+2	3.45978391E-1
152	02/09/2022	15:11:00.927	0.00000000E+0	2.09388378E-1	5.00000000E+0	4.88764629E+0	-6.30000000E+2	3.69080524E-1
153	02/09/2022	15:11:02.438	0.00000000E+0	4.18776755E-1	5.00000000E+0	5.82682602E+0	-6.30000000E+2	3.80415453E-1
154	02/09/2022	15:11:03.810	0.00000000E+0	6.28165133E-1	5.00000000E+0	5.33710266E+0	-6.30000000E+2	4.08651787E-1
155	02/09/2022	15:11:05.256	0.00000000E+0	8.37937005E-1	5.00000000E+0	3.39853444E+0	-6.30000000E+2	4.38077699E-1
156	02/09/2022	15:11:06.711	0.00000000E+0	1.04732538E+0	5.00000000E+0	3.58184514E-1	-6.30000000E+2	4.64890377E-1
157	02/09/2022	15:11:08.098	0.00000000E+0	1.25671376E+0	5.00000000E+0	4.22841804E+0	-6.30000000E+2	4.84589932E-1
158	02/09/2022	15:11:09.549	0.00000000E+0	1.46610214E+0	5.00000000E+0	4.24835979E+0	-6.30000000E+2	5.12522078E-1
159	02/09/2022	15:11:11.003	0.00000000E+0	1.67549052E+0	5.00000000E+0	1.69504877E+0	-6.30000000E+2	5.34960840E-1
160	02/09/2022	15:11:12.413	0.00000000E+0	1.88487889E+0	5.00000000E+0	5.32061236E+0	-6.31000000E+2	5.53021195E-1
161	02/09/2022	15:11:13.896	0.00000000E+0	2.09426727E+0	5.00000000E+0	5.40996674E+0	-6.30000000E+2	5.61673887E-1
162	02/09/2022	15:11:15.283	0.00000000E+0	2.30365565E+0	5.00000000E+0	4.14788405E+0	-6.31000000E+2	5.74118551E-1
163	02/09/2022	15:11:16.776	0.00000000E+0	2.51342752E+0	5.00000000E+0	6.08491829E+0	-6.31000000E+2	5.72721245E-1
164	02/09/2022	15:11:18.153	0.00000000E+0	2.72281590E+0	5.00000000E+0	3.70494710E+0	-6.31000000E+2	5.69597687E-1
165	02/09/2022	15:11:19.545	0.00000000E+0	2.93220428E+0	5.00000000E+0	6.04580178E+0	-6.30000000E+2	5.72930037E-1
166	02/09/2022	15:11:21.089	0.00000000E+0	3.14159265E+0	5.00000000E+0	3.50131115E+0	-6.30000000E+2	5.49526878E-1
167	02/09/2022	15:11:22.483	0.00000000E+0	3.35098103E+0	5.00000000E+0	5.49126773E+0	-6.31000000E+2	5.33585690E-1
168	02/09/2022	15:11:23.922	0.00000000E+0	3.56036941E+0	5.00000000E+0	4.94632105E+0	-6.30000000E+2	5.19048293E-1
169	02/09/2022	15:11:25.322	0.00000000E+0	3.76975779E+0	5.00000000E+0	6.03583091E+0	-6.31000000E+2	4.85872174E-1
170	02/09/2022	15:11:26.707	0.00000000E+0	3.97952966E+0	5.00000000E+0	5.84216583E+0	-6.30000000E+2	4.65816579E-1
171	02/09/2022	15:11:28.187	0.00000000E+0	4.18891804E+0	5.00000000E+0	5.00959776E+0	-6.31000000E+2	4.46297450E-1
172	02/09/2022	15:11:29.555	0.00000000E+0	4.39830641E+0	5.00000000E+0	5.45253471E+0	-6.31000000E+2	4.25326719E-1
173	02/09/2022	15:11:30.941	0.00000000E+0	4.60769479E+0	5.00000000E+0	3.78893255E-1	-6.30000000E+2	3.95502211E-1
174	02/09/2022	15:11:32.555	0.00000000E+0	4.81708317E+0	5.00000000E+0	5.17373370E+0	-6.30000000E+2	3.71203099E-1
175	02/09/2022	15:11:33.931	0.00000000E+0	5.02647155E+0	5.00000000E+0	1.28624289E+0	-6.30000000E+2	3.65578683E-1
176	02/09/2022	15:11:35.359	0.00000000E+0	5.23585992E+0	5.00000000E+0	4.31853941E+0	-6.31000000E+2	3.40380989E-1
177	02/09/2022	15:11:36.791	0.00000000E+0	5.44524830E+0	5.00000000E+0	6.07724839E+0	-6.30000000E+2	3.32427719E-1
178	02/09/2022	15:11:38.188	0.00000000E+0	5.65502017E+0	5.00000000E+0	5.06712204E+0	-6.31000000E+2	3.28806900E-1
179	02/09/2022	15:11:39.680	0.00000000E+0	5.86440855E+0	5.00000000E+0	5.89086972E+0	-6.31000000E+2	3.30144423E-1
180	02/09/2022	15:11:41.063	0.00000000E+0	6.07379693E+0	5.00000000E+0	5.00883077E+0	-6.31000000E+2	3.39734688E-1
181	02/09/2022	15:11:42.461	0.00000000E+0	6.28318531E+0	5.00000000E+0	8.87024391E-1	-6.30000000E+2	3.54493831E-1
182	02/09/2022	15:11:43.956	0.00000000E+0	6.49257368E+0	5.00000000E+0	4.83549094E+0	-6.30000000E+2	3.65431856E-1
183	02/09/2022	15:11:45.351	0.00000000E+0	6.70196206E+0	5.00000000E+0	5.82375806E+0	-6.31000000E+2	3.79851906E-1
184	02/09/2022	15:11:46.814	0.00000000E+0	6.91135044E+0	5.00000000E+0	5.85827263E+0	-6.31000000E+2	4.13755631E-1
185	02/09/2022	15:11:48.206	0.00000000E+0	7.12112231E+0	5.00000000E+0	3.21062179E+0	-6.30000000E+2	4.31032026E-1
186	02/09/2022	15:11:49.587	0.00000000E+0	7.33051069E+0	5.00000000E+0	4.35497146E+0	-6.31000000E+2	4.66241604E-1
187	02/09/2022	15:11:51.135	0.00000000E+0	7.53989907E+0	5.00000000E+0	3.93849567E-1	-6.30000000E+2	4.77568902E-1
188	02/09/2022	15:11:52.533	0.00000000E+0	7.74928745E+0	5.00000000E+0	6.17158820E+0	-6.30000000E+2	5.06080257E-1
189	02/09/2022	15:11:53.952	0.00000000E+0	7.95867582E+0	5.00000000E+0	4.47653943E+0	-6.30000000E+2	5.21618035E-1
190	02/09/2022	15:11:55.298	0.00000000E+0	8.16806420E+0	5.00000000E+0	6.04043285E+0	-6.31000000E+2	5.33748115E-1
191	02/09/2022	15:11:56.655	0.00000000E+0	8.37745258E+0	5.00000000E+0	5.26845702E+0	-6.31000000E+2	5.58510534E-1
192	02/09/2022	15:11:58.152	0.00000000E+0	8.58684096E+0	5.00000000E+0	2.49578674E+0	-6.30000000E+2	5.74732590E-1
193	02/09/2022	15:11:59.547	0.00000000E+0	8.79661283E+0	5.00000000E+0	2.31899546E+0	-6.30000000E+2	5.67440416E-1
194	02/09/2022	15:12:00.999	0.00000000E+0	9.00600121E+0	5.00000000E+0	4.79368996E+0	-6.31000000E+2	5.67623863E-1
195	02/09/2022	15:12:02.494	0.00000000E+0	9.21538958E+0	5.00000000E+0	5.80535029E+0	-6.31000000E+2	5.70099997E-1
196	02/09/2022	15:12:03.904	0.00000000E+0	9.42477796E+0	5.00000000E+0	1.01817975E+0	-6.30000000E+2	5.58363910E-1
197	02/09/2022	15:12:05.415	0.00000000E+0	9.63416634E+0	5.00000000E+0	5.07134048E+0	-6.31000000E+2	5.32114312E-1
198	02/09/2022	15:12:06.779	0.00000000E+0	9.84355472E+0	5.00000000E+0	8.92393323E-1	-6.30000000E+2	5.12630233E-1
199	02/09/2022	15:12:08.172	0.00000000E+0	1.00529431E+1	5.00000000E+0	4.04894229E+0	-6.30000000E+2	4.91111850E-1
200	02/09/2022	15:12:09.707	0.00000000E+0	1.02627150E+1	5.00000000E+0	4.01442772E+0	-6.31000000E+2	4.66323855E-1
201	02/09/2022	15:12:11.088	0.00000000E+0	1.04721033E+1	5.00000000E+0	1.90980608E+0	-6.30000000E+2	4.40531024E-1
202	02/09/2022	15:12:12.519	0.00000000E+0	1.06814917E+1	5.00000000E+0	5.37660266E+0	-6.30000000E+2	4.19342644E-1
203	02/09/2022	15:12:14.011	0.00000000E+0	1.08908801E+1	5.00000000E+0	3.10937906E+0	-6.30000000E+2	3.90705509E-1
204	02/09/2022	15:12:15.417	0.00000000E+0	1.11002685E+1	5.00000000E+0	1.40359242E-1	-6.30000000E+2	3.78569444E-1
205	02/09/2022	15:12:16.905	0.00000000E+0	1.13096569E+1	5.00000000E+0	2.46510713E+0	-6.30000000E+2	3.51136004E-1
206	02/09/2022	15:12:18.299	0.00000000E+0	1.15190452E+1	5.00000000E+0	2.57478675E+0	-6.30000000E+2	3.48626839E-1
207	02/09/2022	15:12:19.686	0.00000000E+0	1.17284336E+1	5.00000000E+0	2.41563625E+0	-6.30000000E+2	3.36375137E-1
208	02/09/2022	15:12:21.136	0.00000000E+0	1.19382055E+1	5.00000000E+0	5.80458330E+0	-6.30000000E+2	3.31462049E-1
209	02/09/2022	15:12:22.506	0.00000000E+0	1.21475939E+1	5.00000000E+0	5.91119497E+0	-6.30000000E+2	3.30356712E-1
210	02/09/2022	15:12:23.976	0.00000000E+0	1.23569822E+1	5.00000000E+0	3.41732570E+0	-6.30000000E+2	3.46222987E-1
211	02/09/2022	15:12:25.439	0.00000000E+0	1.25663706E+1	5.00000000E+0	5.98252507E-1	-6.30000000E+2	3.48218790E-1
212	02/09/2022	15:12:26.817	0.00000000E+0	1.27757590E+1	5.00000000E+0	4.64029188E+0	-6.31000000E+2	3.65379717E-1
213	02/09/2022	15:12:28.362	0.00000000E+0	1.29851474E+1	5.00000000E+0	4.99962688E+0	-6.31000000E+2	3.94468646E-1
214	02/09/2022	15:12:29.743	0.00000000E+0	1.31945357E+1	5.00000000E+0	5.32981625E+0	-6.31000000E+2	4.11479863E-1
215	02/09/2022	15:12:31.176	0.00000000E+0	1.34043076E+1	5.00000000E+0	6.13669014E+0	-6.30000000E+2	4.37146969E-1
216	02/09/2022	15:12:32.700	0.00000000E+0	1.36136960E+1	5.00000000E+0	3.49670921E+0	-6.31000000E+2	4.51888039E-1
217	02/09/2022	15:12:34.081	0.00000000E+0	1.38230844E+1	5.00000000E+0	1.41739825E+0	-6.30000000E+2	4.84409833E-1
218	02/09/2022	15:12:35.527	0.00000000E+0	1.40324728E+1	5.00000000E+0	4.81286472E+0	-6.31000000E+2	5.08545655E-1
219	02/09/2022	15:12:36.908	0.00000000E+0	1.42418611E+1	5.00000000E+0	6.45038921E-1	-6.30000000E+2	5.30729355E-1
220	02/09/2022	15:12:38.285	0.00000000E+0	1.44512495E+1	5.00000000E+0	3.11052954E+0	-6.30000000E+2	5.51729372E-1
221	02/09/2022	15:12:39.804	0.00000000E+0	1.46606379E+1	5.00000000E+0	4.80020938E+0	-6.30000000E+2	5.56989095E-1
222	02/09/2022	15:12:41.178	0.00000000E+0	1.48700263E+1	5.00000000E+0	1.95697599E+0	-6.30000000E+2	5.69305516E-1
223	02/09/2022	15:12:42.562	0.00000000E+0	1.50797981E+1	5.00000000E+0	5.29223372E+0	-6.31000000E+2	5.75629651E-1
224	02/09/2022	15:12:43.976	0.00000000E+0	1.52891865E+1	5.00000000E+0	4.16629182E+0	-6.31000000E+2	5.76543973E-1
225	02/09/2022	15:12:45.355	0.00000000E+0	1.54985749E+1	5.00000000E+0	2.71514599E+0	-6.30000000E+2	5.71574339E-1
226	02/09/2022	15:12:46.829	0.00000000E+0	1.57079633E+1	5.00000000E+0	4.15900541E+0	-6.30000000E+2	5.50715534E-1
227	02/09/2022	15:12:48.220	0.00000000E+0	1.59173516E+1	5.00000000E+0	4.32774330E+0	-6.31000000E+2	5.28619572E-1
228	02/09/2022	15:12:49.667	0.00000000E+0	1.61267400E+1	5.00000000E+0	5.08744728E+0	-6.31000000E+2	5.13590179E-1
229	02/09/2022	15:12:51.163	0.00000000E+0	1.63361284E+1	5.00000000E+0	5.28187935E+0	-6.30000000E+2	4.90535798E-1
230	02/09/2022	15:12:52.548	0.00000000E+0	1.65459003E+1	5.00000000E+0	5.30182110E+0	-6.31000000E+2	4.72205006E-1
231	02/09/2022	15:12:54.064	0.00000000E+0	1.67552887E+1	5.00000000E+0	2.79567999E-1	-6.30000000E+2	4.45788425E-1
232	02/09/2022	15:12:55.456	0.00000000E+0	1.69646770E+1	5.00000000E+0	2.16214592E+0	-6.30000000E+2	4.08757453E-1
233	02/09/2022	15:12:56.879	0.00000000E+0	1.71740654E+1	5.00000000E+0	5.28533080E+0	-6.31000000E+2	3.93157932E-1
234	02/09/2022	15:12:58.385	0.00000000E+0	1.73834538E+1	5.00000000E+0	5.13730166E+0	-6.31000000E+2	3.75682685E-1
235	02/09/2022	15:12:59.766	0.00000000E+0	1.75928422E+1	5.00000000E+0	2.18592262E-2	-6.30000000E+2	3.55921278E-1
236	02/09/2022	15:13:01.167	0.00000000E+0	1.78022305E+1	5.00000000E+0	5.40306383E+0	-6.31000000E+2	3.49265018E-1
237	02/09/2022	15:13:02.663	0.00000000E+0	1.80116189E+1	5.00000000E+0	4.07041802E+0	-6.30000000E+2	3.33849966E-1
238	02/09/2022	15:13:04.035	0.00000000E+0	1.82213908E+1	5.00000000E+0	1.20724288E+0	-6.30000000E+2	3.25021710E-1
239	02/09/2022	15:13:05.513	0.00000000E+0	1.84307792E+1	5.00000000E+0	5.84638428E+0	-6.31000000E+2	3.32890789E-1
240	02/09/2022	15:13:06.894	0.00000000E+0	1.86401675E+1	5.00000000E+0	5.80381631E+0	-6.30000000E+2	3.41891825E-1
241	02/09/2022	15:13:08.269	0.00000000E+0	1.88495559E+1	5.00000000E+0	2.74582561E-1	-6.29000000E+2	3.48829767E-1
242	02/09/2022	15:13:09.781	0.00000000E+0	1.90589443E+1	5.00000000E+0	3.30572860E+0	-6.30000000E+2	3.62172382E-1
243	02/09/2022	15:13:11.216	0.00000000E+0	1.92683327E+1	5.00000000E+0	5.61436968E+0	-6.31000000E+2	3.85528860E-1
244	02/09/2022	15:13:12.656	0.00000000E+0	1.94777211E+1	5.00000000E+0	3.41003929E+0	-6.30000000E+2	4.13215239E-1
245	02/09/2022	15:13:14.030	0.00000000E+0	1.96874929E+1	5.00000000E+0	6.01895712E+0	-6.31000000E+2	4.22415683E-1
246	02/09/2022	15:13:15.413	0.00000000E+0	1.98968813E+1	5.00000000E+0	2.33165080E-1	-6.30000000E+2	4.58221750E-1
247	02/09/2022	15:13:16.888	0.00000000E+0	2.01062697E+1	5.00000000E+0	6.27474841E+0	-6.30000000E+2	4.89382332E-1
248	02/09/2022	15:13:18.262	0.00000000E+0	2.03156581E+1	5.00000000E+0	5.05868514E+0	-6.30000000E+2	5.06231121E-1
249	02/09/2022	15:13:19.659	0.00000000E+0	2.05250464E+1	5.00000000E+0	1.23217007E+0	-6.30000000E+2	5.25083135E-1
250	02/09/2022	15:13:21.168	0.00000000E+0	2.07344348E+1	5.00000000E+0	2.60431588E+0	-6.30000000E+2	5.41964488E-1
251	02/09/2022	15:13:22.557	0.00000000E+0	2.09438232E+1	5.00000000E+0	2.41985469E+0	-6.30000000E+2	5.55509335E-1
252	02/09/2022	15:13:24.051	0.00000000E+0	2.11532116E+1	5.00000000E+0	5.13269972E+0	-6.30000000E+2	5.65059241E-1
253	02/09/2022	15:13:25.427	0.00000000E+0	2.13629834E+1	5.00000000E+0	4.22419959E+0	-6.30000000E+2	5.69901593E-1
254	02/09/2022	15:13:26.824	0.00000000E+0	2.15723718E+1	5.00000000E+0	4.45621419E-1	-6.30000000E+2	5.67648544E-1
255	02/09/2022	15:13:28.348	0.00000000E+0	2.17817602E+1	5.00000000E+0	3.90973353E+0	-6.30000000E+2	5.57838998E-1
256	02/09/2022	15:13:29.739	0.00000000E+0	2.19911486E+1	5.00000000E+0	4.53061226E+0	-6.31000000E+2	5.53034014E-1
257	02/09/2022	15:13:31.208	0.00000000E+0	2.22005370E+1	5.00000000E+0	3.63246651E+0	-6.30000000E+2	5.31521825E-1
258	02/09/2022	15:13:32.692	0.00000000E+0	2.24099253E+1	5.00000000E+0	5.29069974E+0	-6.31000000E+2	5.11726585E-1
259	02/09/2022	15:13:34.086	0.00000000E+0	2.26193137E+1	5.00000000E+0	5.49817064E+0	-6.30000000E+2	5.05130734E-1
260	02/09/2022	15:13:35.629	0.00000000E+0	2.28290856E+1	5.00000000E+0	1.55392254E+0	-6.30000000E+2	4.71791191E-1
261	02/09/2022	15:13:37.034	0.00000000E+0	2.30384740E+1	5.00000000E+0	3.57992766E+0	-6.31000000E+2	4.41842032E-1
262	02/09/2022	15:13:38.432	0.00000000E+0	2.32478623E+1	5.00000000E+0	3.32528685E+0	-6.30000000E+2	4.10401635E-1
263	02/09/2022	15:13:39.876	0.00000000E+0	2.34572507E+1	5.00000000E+0	4.40559282E+0	-6.30000000E+2	3.93528537E-1
264	02/09/2022	15:13:41.272	0.00000000E+0	2.36666391E+1	5.00000000E+0	4.00867529E+0	-6.31000000E+2	3.75852593E-1
265	02/09/2022	15:13:42.734	0.00000000E+0	2.38760275E+1	5.00000000E+0	4.19620445E+0	-6.31000000E+2	3.55422770E-1
266	02/09/2022	15:13:44.211	0.00000000E+0	2.40854158E+1	5.00000000E+0	5.37468519E+0	-6.30000000E+2	3.37837464E-1
267	02/09/2022	15:13:45.606	0.00000000E+0	2.42948042E+1	5.00000000E+0	4.64489383E+0	-6.31000000E+2	3.32334487E-1
268	02/09/2022	15:13:47.082	0.00000000E+0	2.45045761E+1	5.00000000E+0	3.25587422E+0	-6.30000000E+2	3.32792155E-1
269	02/09/2022	15:13:48.465	0.00000000E+0	2.47139645E+1	5.00000000E+0	2.58092268E-1	-6.29000000E+2	3.32460340E-1
270	02/09/2022	15:13:49.875	0.00000000E+0	2.49233529E+1	5.00000000E+0	5.77313670E+0	-6.30000000E+2	3.34582050E-1
271	02/09/2022	15:13:51.371	0.00000000E+0	2.51327412E+1	5.00000000E+0	2.56098093E+0	-6.30000000E+2	3.49948849E-1
272	02/09/2022	15:13:52.771	0.00000000E+0	2.53421296E+1	5.00000000E+0	4.53636468E+0	-6.31000000E+2	3.71662975E-1
273	02/09/2022	15:13:54.236	0.00000000E+0	2.55515180E+1	5.00000000E+0	3.83648595E+0	-6.31000000E+2	3.88172037E-1
274	02/09/2022	15:13:55.640	0.00000000E+0	2.57609064E+1	5.00000000E+0	6.10831150E+0	-6.31000000E+2	4.10436569E-1
275	02/09/2022	15:13:57.026	0.00000000E+0	2.59706782E+1	5.00000000E+0	2.47431101E+0	-6.30000000E+2	4.41222201E-1
276	02/09/2022	15:13:58.582	0.00000000E+0	2.61800666E+1	5.00000000E+0	4.44739380E+0	-6.30000000E+2	4.65218261E-1
277	02/09/2022	15:13:59.954	0.00000000E+0	2.63894550E+1	5.00000000E+0	4.84201036E+0	-6.30000000E+2	4.82484325E-1
278	02/09/2022	15:14:01.373	0.00000000E+0	2.65988434E+1	5.00000000E+0	4.89339871E+0	-6.30000000E+2	5.11717164E-1
279	02/09/2022	15:14:02.749	0.00000000E+0	2.68082317E+1	5.00000000E+0	3.46219464E+0	-6.30000000E+2	5.33764290E-1
280	02/09/2022	15:14:04.137	0.00000000E+0	2.70176201E+1	5.00000000E+0	5.05485019E+0	-6.31000000E+2	5.59874121E-1
281	02/09/2022	15:14:05.685	0.00000000E+0	2.72270085E+1	5.00000000E+0	3.97684519E+0	-6.31000000E+2	5.69678990E-1
282	02/09/2022	15:14:07.084	0.00000000E+0	2.74363969E+1	5.00000000E+0	4.28901028E+0	-6.30000000E+2	5.70607086E-1
283	02/09/2022	15:14:08.527	0.00000000E+0	2.76461687E+1	5.00000000E+0	3.69037428E+0	-6.30000000E+2	5.73973080E-1
284	02/09/2022	15:14:10.022	0.00000000E+0	2.78555571E+1	5.00000000E+0	4.15133551E+0	-6.31000000E+2	5.69470120E-1
285	02/09/2022	15:14:11.401	0.00000000E+0	2.80649455E+1	5.00000000E+0	2.21315078E+0	-6.30000000E+2	5.60922646E-1
286	02/09/2022	15:14:12.827	0.00000000E+0	2.82743339E+1	5.00000000E+0	5.22742303E+0	-6.30000000E+2	5.55700574E-1
287	02/09/2022	15:14:14.223	0.00000000E+0	2.84837223E+1	5.00000000E+0	8.83956429E-1	-6.30000000E+2	5.36493325E-1
288	02/09/2022	15:14:15.587	0.00000000E+0	2.86931106E+1	5.00000000E+0	5.00998125E+0	-6.31000000E+2	5.17356835E-1
289	02/09/2022	15:14:17.063	0.00000000E+0	2.89024990E+1	5.00000000E+0	7.24805922E-2	-6.29000000E+2	5.05999600E-1
290	02/09/2022	15:14:18.463	0.00000000E+0	2.91122709E+1	5.00000000E+0	4.51488895E+0	-6.31000000E+2	4.73583809E-1
291	02/09/2022	15:14:19.914	0.00000000E+0	2.93216593E+1	5.00000000E+0	5.04487932E+0	-6.31000000E+2	4.32093915E-1
292	02/09/2022	15:14:21.396	0.00000000E+0	2.95310476E+1	5.00000000E+0	5.69988911E+0	-6.30000000E+2	4.21222375E-1
293	02/09/2022	15:14:22.771	0.00000000E+0	2.97404360E+1	5.00000000E+0	5.43566092E+0	-6.30000000E+2	3.96381527E-1
294	02/09/2022	15:14:24.248	0.00000000E+0	2.99498244E+1	5.00000000E+0	4.38143263E+0	-6.31000000E+2	3.76595871E-1
295	02/09/2022	15:14:25.633	0.00000000E+0	3.01592128E+1	5.00000000E+0	2.33395177E+0	-6.30000000E+2	3.62698106E-1
296	02/09/2022	15:14:27.017	0.00000000E+0	3.03686012E+1	5.00000000E+0	4.64067538E+0	-6.30000000E+2	3.47205303E-1
297	02/09/2022	15:14:28.533	0.00000000E+0	3.05779895E+1	5.00000000E+0	5.92116584E-1	-6.30000000E+2	3.29386051E-1
298	02/09/2022	15:14:29.902	0.00000000E+0	3.07877614E+1	5.00000000E+0	5.19597642E+0	-6.31000000E+2	3.33411202E-1
299	02/09/2022	15:14:31.440	0.00000000E+0	3.09971498E+1	5.00000000E+0	5.19444244E+0	-6.30000000E+2	3.24431390E-1
300	02/09/2022	15:14:32.838	0.00000000E+0	3.12065382E+1	5.00000000E+0	5.01611718E-1	-6.30000000E+2	3.40127699E-1
301	02/09/2022	15:14:34.233	0.00000000E+0	3.14159265E+1	5.00000000E+0	8.23364188E-1	-6.30000000E+2	3.49948450E-1
