#Iteration	Date	Time	RTPhase	NFringe	AccelAxis	AccelMean	AccelTemp
1	02/09/2022	16:25:18.080	4.02785005E+0	-1.23500000E+3	2.00000000E+0	-9.80597788E+0	7.16026900E+6
2	02/09/2022	16:25:19.512	3.47715095E+0	-1.23300000E+3	2.00000000E+0	-9.80597788E+0	7.16026900E+6
3	02/09/2022	16:25:21.033	3.66966554E+0	-1.23500000E+3	2.00000000E+0	-9.80597788E+0	7.16026900E+6
4	02/09/2022	16:25:22.466	3.63975291E+0	-1.23400000E+3	2.00000000E+0	-9.80597788E+0	7.16026900E+6
5	02/09/2022	16:25:23.846	3.64358787E+0	-1.23300000E+3	2.00000000E+0	-9.80597788E+0	7.16026900E+6
6	02/09/2022	16:25:25.329	1.87567501E+0	-1.23500000E+3	2.00000000E+0	-9.80597788E+0	7.16026900E+6
7	02/09/2022	16:25:26.737	7.63922432E-1	-1.23400000E+3	2.00000000E+0	-9.80597788E+0	7.16026900E+6
8	02/09/2022	16:25:28.186	2.94025768E+0	-1.23300000E+3	2.00000000E+0	-9.80597788E+0	7.16026900E+6
9	02/09/2022	16:25:29.610	5.71254445E+0	-1.23500000E+3	2.00000000E+0	-9.80597788E+0	7.16026900E+6
10	02/09/2022	16:25:30.977	1.65017983E+0	-1.23400000E+3	2.00000000E+0	-9.80597788E+0	7.16026900E+6
11	02/09/2022	16:25:32.558	5.00921426E+0	-1.23300000E+3	2.00000000E+0	-9.80597788E+0	7.16026900E+6
12	02/09/2022	16:25:33.930	4.08614132E+0	-1.23300000E+3	2.00000000E+0	-9.80597788E+0	7.16026900E+6
13	02/09/2022	16:25:35.341	5.61897163E+0	-1.23300000E+3	2.00000000E+0	-9.80597788E+0	7.16026900E+6
14	02/09/2022	16:25:36.841	5.50699103E-1	-1.23300000E+3	2.00000000E+0	-9.80597788E+0	7.16026900E+6
15	02/09/2022	16:25:38.239	1.30043221E+0	-1.23500000E+3	2.00000000E+0	-9.80597788E+0	7.16026900E+6
16	02/09/2022	16:25:39.757	6.82237955E-1	-1.23400000E+3	2.00000000E+0	-9.80597788E+0	7.16026900E+6
17	02/09/2022	16:25:41.130	3.95920441E+0	-1.23300000E+3	2.00000000E+0	-9.80597788E+0	7.16026900E+6
18	02/09/2022	16:25:42.520	5.18102011E+0	-1.23500000E+3	2.00000000E+0	-9.80597788E+0	7.16026900E+6
19	02/09/2022	16:25:43.984	3.50936455E+0	-1.23500000E+3	2.00000000E+0	-9.80597788E+0	7.16026900E+6
20	02/09/2022	16:25:45.364	4.46158312E+0	-1.23500000E+3	2.00000000E+0	-9.80597788E+0	7.16026900E+6
21	02/09/2022	16:25:46.822	2.52953432E+0	-1.23500000E+3	2.00000000E+0	-9.80597788E+0	7.16026900E+6
22	02/09/2022	16:25:48.330	4.94056862E+0	-1.23500000E+3	2.00000000E+0	-9.80597788E+0	7.16026900E+6
23	02/09/2022	16:25:49.707	8.24898169E-1	-1.23300000E+3	2.00000000E+0	-9.80597788E+0	7.16026900E+6
24	02/09/2022	16:25:51.253	1.61451478E+0	-1.23400000E+3	2.00000000E+0	-9.80597788E+0	7.16026900E+6
25	02/09/2022	16:25:52.649	2.58744209E+0	-1.23400000E+3	2.00000000E+0	-9.80597788E+0	7.16026900E+6
26	02/09/2022	16:25:54.063	2.46817509E+0	-1.23400000E+3	2.00000000E+0	-9.80597788E+0	7.16026900E+6
27	02/09/2022	16:25:55.532	7.61237966E-1	-1.23500000E+3	2.00000000E+0	-9.80597788E+0	7.16026900E+6
28	02/09/2022	16:25:56.894	5.03759291E+0	-1.23500000E+3	2.00000000E+0	-9.80597788E+0	7.16026900E+6
29	02/09/2022	16:25:58.443	5.62970949E-1	-1.23400000E+3	2.00000000E+0	-9.80597788E+0	7.16026900E+6
30	02/09/2022	16:25:59.856	3.12088391E+0	-1.23400000E+3	2.00000000E+0	-9.80597788E+0	7.16026900E+6
31	02/09/2022	16:26:01.241	5.10930651E+0	-1.23500000E+3	2.00000000E+0	-9.80597788E+0	7.16026900E+6
32	02/09/2022	16:26:02.776	1.21261181E+0	-1.23400000E+3	2.00000000E+0	-9.80597788E+0	7.16026900E+6
33	02/09/2022	16:26:04.151	3.18070916E+0	-1.23500000E+3	2.00000000E+0	-9.80597788E+0	7.16026900E+6
34	02/09/2022	16:26:05.589	4.42553457E+0	-1.23300000E+3	2.00000000E+0	-9.80597788E+0	7.16026900E+6
35	02/09/2022	16:26:07.105	1.99034007E-1	-1.23300000E+3	2.00000000E+0	-9.80597788E+0	7.16026900E+6
36	02/09/2022	16:26:08.490	1.68162644E+0	-1.23500000E+3	2.00000000E+0	-9.80597788E+0	7.16026900E+6
37	02/09/2022	16:26:09.950	2.68369939E+0	-1.23500000E+3	2.00000000E+0	-9.80597788E+0	7.16026900E+6
38	02/09/2022	16:26:11.318	2.20241292E+0	-1.23500000E+3	2.00000000E+0	-9.80597788E+0	7.16026900E+6
39	02/09/2022	16:26:12.735	5.51274346E+0	-1.23500000E+3	2.00000000E+0	-9.80597788E+0	7.16026900E+6
40	02/09/2022	16:26:14.294	2.24152943E+0	-1.23400000E+3	2.00000000E+0	-9.80597788E+0	7.16026900E+6
41	02/09/2022	16:26:15.689	2.33701973E+0	-1.23400000E+3	2.00000000E+0	-9.80597788E+0	7.16026900E+6
42	02/09/2022	16:26:17.145	5.39155897E+0	-1.23400000E+3	2.00000000E+0	-9.80597788E+0	7.16026900E+6
43	02/09/2022	16:26:18.494	4.90221910E+0	-1.23400000E+3	2.00000000E+0	-9.80597788E+0	7.16026900E+6
44	02/09/2022	16:26:19.881	4.77528219E+0	-1.23400000E+3	2.00000000E+0	-9.80597788E+0	7.16026900E+6
45	02/09/2022	16:26:21.394	4.74882102E+0	-1.23500000E+3	2.00000000E+0	-9.80597788E+0	7.16026900E+6
46	02/09/2022	16:26:22.795	5.81493767E+0	-1.23300000E+3	2.00000000E+0	-9.80597788E+0	7.16026900E+6
47	02/09/2022	16:26:24.255	4.38871903E+0	-1.23300000E+3	2.00000000E+0	-9.80597788E+0	7.16026900E+6
48	02/09/2022	16:26:25.764	2.65762172E+0	-1.23300000E+3	2.00000000E+0	-9.80597788E+0	7.16026900E+6
49	02/09/2022	16:26:27.144	1.52592739E+0	-1.23500000E+3	2.00000000E+0	-9.80597788E+0	7.16026900E+6
50	02/09/2022	16:26:28.656	3.63400049E+0	-1.23500000E+3	2.00000000E+0	-9.80597788E+0	7.16026900E+6
51	02/09/2022	16:26:30.041	4.02823355E+0	-1.23300000E+3	2.00000000E+0	-9.80597788E+0	7.16026900E+6
52	02/09/2022	16:26:31.431	1.16697588E+0	-1.23400000E+3	2.00000000E+0	-9.80597788E+0	7.16026900E+6
53	02/09/2022	16:26:32.976	2.90727709E+0	-1.23400000E+3	2.00000000E+0	-9.80597788E+0	7.16026900E+6
54	02/09/2022	16:26:34.374	1.84883034E+0	-1.23300000E+3	2.00000000E+0	-9.80597788E+0	7.16026900E+6
55	02/09/2022	16:26:35.749	2.43826246E+0	-1.23300000E+3	2.00000000E+0	-9.80597788E+0	7.16026900E+6
56	02/09/2022	16:26:37.244	5.04641330E+0	-1.23400000E+3	2.00000000E+0	-9.80597788E+0	7.16026900E+6
57	02/09/2022	16:26:38.635	5.45943762E+0	-1.23400000E+3	2.00000000E+0	-9.80597788E+0	7.16026900E+6
58	02/09/2022	16:26:40.160	6.23946685E+0	-1.23500000E+3	2.00000000E+0	-9.80597788E+0	7.16026900E+6
59	02/09/2022	16:26:41.526	2.42982557E+0	-1.23500000E+3	2.00000000E+0	-9.80597788E+0	7.16026900E+6
60	02/09/2022	16:26:42.920	4.90873852E-1	-1.23300000E+3	2.00000000E+0	-9.80597788E+0	7.16026900E+6
61	02/09/2022	16:26:44.398	3.79276750E+0	-1.23500000E+3	2.00000000E+0	-9.80597788E+0	7.16026900E+6
62	02/09/2022	16:26:45.776	3.36517035E+0	-1.23400000E+3	2.00000000E+0	-9.80597788E+0	7.16026900E+6
63	02/09/2022	16:26:47.227	2.69060230E+0	-1.23500000E+3	2.00000000E+0	-9.80597788E+0	7.16026900E+6
64	02/09/2022	16:26:48.642	3.42307813E+0	-1.23500000E+3	2.00000000E+0	-9.80597788E+0	7.16026900E+6
65	02/09/2022	16:26:50.038	3.37245676E+0	-1.23300000E+3	2.00000000E+0	-9.80597788E+0	7.16026900E+6
66	02/09/2022	16:26:51.589	4.58123362E+0	-1.23400000E+3	2.00000000E+0	-9.80597788E+0	7.16026900E+6
67	02/09/2022	16:26:52.946	5.58790852E+0	-1.23300000E+3	2.00000000E+0	-9.80597788E+0	7.16026900E+6
68	02/09/2022	16:26:54.389	2.71284502E+0	-1.23500000E+3	2.00000000E+0	-9.80597788E+0	7.16026900E+6
69	02/09/2022	16:26:55.886	3.23324801E+0	-1.23500000E+3	2.00000000E+0	-9.80597788E+0	7.16026900E+6
70	02/09/2022	16:26:57.274	3.56688883E+0	-1.23400000E+3	2.00000000E+0	-9.80597788E+0	7.16026900E+6
71	02/09/2022	16:26:58.785	3.16613635E+0	-1.23300000E+3	2.00000000E+0	-9.80597788E+0	7.16026900E+6
72	02/09/2022	16:27:00.184	3.36555385E+0	-1.23500000E+3	2.00000000E+0	-9.80597788E+0	7.16026900E+6
73	02/09/2022	16:27:01.569	3.91011703E+0	-1.23300000E+3	2.00000000E+0	-9.80597788E+0	7.16026900E+6
74	02/09/2022	16:27:03.144	5.11774340E+0	-1.23500000E+3	2.00000000E+0	-9.80597788E+0	7.16026900E+6
75	02/09/2022	16:27:04.536	3.68884030E+0	-1.23300000E+3	2.00000000E+0	-9.80597788E+0	7.16026900E+6
76	02/09/2022	16:27:05.990	5.46634054E+0	-1.23400000E+3	2.00000000E+0	-9.80597788E+0	7.16026900E+6
77	02/09/2022	16:27:07.469	6.02662702E+0	-1.23400000E+3	2.00000000E+0	-9.80597788E+0	7.16026900E+6
78	02/09/2022	16:27:08.858	5.44985024E+0	-1.23500000E+3	2.00000000E+0	-9.80597788E+0	7.16026900E+6
79	02/09/2022	16:27:10.460	5.50200559E+0	-1.23400000E+3	2.00000000E+0	-9.80597788E+0	7.16026900E+6
80	02/09/2022	16:27:11.866	3.47139852E+0	-1.23500000E+3	2.00000000E+0	-9.80597788E+0	7.16026900E+6
81	02/09/2022	16:27:13.254	4.82667055E+0	-1.23300000E+3	2.00000000E+0	-9.80597788E+0	7.16026900E+6
82	02/09/2022	16:27:14.702	4.66905402E+0	-1.23400000E+3	2.00000000E+0	-9.80597788E+0	7.16026900E+6
83	02/09/2022	16:27:16.094	1.62103420E+0	-1.23400000E+3	2.00000000E+0	-9.80597788E+0	7.16026900E+6
84	02/09/2022	16:27:17.629	2.80526737E+0	-1.23300000E+3	2.00000000E+0	-9.80597788E+0	7.16026900E+6
85	02/09/2022	16:27:19.049	3.25050529E+0	-1.23300000E+3	2.00000000E+0	-9.80597788E+0	7.16026900E+6
86	02/09/2022	16:27:20.430	1.00859237E-1	-1.23400000E+3	2.00000000E+0	-9.80597788E+0	7.16026900E+6
87	02/09/2022	16:27:21.940	4.53137925E+0	-1.23500000E+3	2.00000000E+0	-9.80597788E+0	7.16026900E+6
88	02/09/2022	16:27:23.309	1.76139344E+0	-1.23500000E+3	2.00000000E+0	-9.80597788E+0	7.16026900E+6
89	02/09/2022	16:27:24.755	3.38664608E+0	-1.23300000E+3	2.00000000E+0	-9.80597788E+0	7.16026900E+6
90	02/09/2022	16:27:26.281	3.92929179E+0	-1.23500000E+3	2.00000000E+0	-9.80597788E+0	7.16026900E+6
91	02/09/2022	16:27:27.671	5.24237934E+0	-1.23300000E+3	2.00000000E+0	-9.80597788E+0	7.16026900E+6
92	02/09/2022	16:27:29.135	4.97354921E+0	-1.23300000E+3	2.00000000E+0	-9.80597788E+0	7.16026900E+6
93	02/09/2022	16:27:30.521	1.70310217E+0	-1.23500000E+3	2.00000000E+0	-9.80597788E+0	7.16026900E+6
94	02/09/2022	16:27:31.903	5.81302020E+0	-1.23400000E+3	2.00000000E+0	-9.80597788E+0	7.16026900E+6
95	02/09/2022	16:27:33.452	1.00667489E+0	-1.23400000E+3	2.00000000E+0	-9.80597788E+0	7.16026900E+6
96	02/09/2022	16:27:34.856	2.18362165E+0	-1.23500000E+3	2.00000000E+0	-9.80597788E+0	7.16026900E+6
97	02/09/2022	16:27:36.303	3.86678207E+0	-1.23400000E+3	2.00000000E+0	-9.80597788E+0	7.16026900E+6
98	02/09/2022	16:27:37.707	3.66736457E+0	-1.23300000E+3	2.00000000E+0	-9.80597788E+0	7.16026900E+6
99	02/09/2022	16:27:39.106	1.19688851E+0	-1.23400000E+3	2.00000000E+0	-9.80597788E+0	7.16026900E+6
100	02/09/2022	16:27:40.565	8.23364188E-1	-1.23400000E+3	2.00000000E+0	-9.80597788E+0	7.16026900E+6
101	02/09/2022	16:27:41.968	4.90873852E+0	-1.23500000E+3	2.00000000E+0	-9.80597788E+0	7.16026900E+6
102	02/09/2022	16:27:43.369	1.50560214E+0	-1.23300000E+3	2.00000000E+0	-9.80597788E+0	7.16026900E+6
103	02/09/2022	16:27:44.932	5.30373857E+0	-1.23500000E+3	2.00000000E+0	-9.80597788E+0	7.16026900E+6
104	02/09/2022	16:27:46.340	2.49732072E+0	-1.23400000E+3	2.00000000E+0	-9.80597788E+0	7.16026900E+6
105	02/09/2022	16:27:47.843	1.53398079E-3	-1.23300000E+3	2.00000000E+0	-9.80597788E+0	7.16026900E+6
106	02/09/2022	16:27:49.225	4.11260249E+0	-1.23500000E+3	2.00000000E+0	-9.80597788E+0	7.16026900E+6
107	02/09/2022	16:27:50.654	3.35519948E+0	-1.23400000E+3	2.00000000E+0	-9.80597788E+0	7.16026900E+6
108	02/09/2022	16:27:52.130	2.93028680E+0	-1.23300000E+3	2.00000000E+0	-9.80597788E+0	7.16026900E+6
109	02/09/2022	16:27:53.536	4.08537433E+0	-1.23300000E+3	2.00000000E+0	-9.80597788E+0	7.16026900E+6
110	02/09/2022	16:27:54.931	7.31708836E-1	-1.23500000E+3	2.00000000E+0	-9.80597788E+0	7.16026900E+6
111	02/09/2022	16:27:56.422	5.73555417E+0	-1.23400000E+3	2.00000000E+0	-9.80597788E+0	7.16026900E+6
112	02/09/2022	16:27:57.810	5.52463181E+0	-1.23500000E+3	2.00000000E+0	-9.80597788E+0	7.16026900E+6
113	02/09/2022	16:27:59.312	1.79053907E+0	-1.23500000E+3	2.00000000E+0	-9.80597788E+0	7.16026900E+6
114	02/09/2022	16:28:00.686	4.94286959E+0	-1.23500000E+3	2.00000000E+0	-9.80597788E+0	7.16026900E+6
115	02/09/2022	16:28:02.078	4.96549581E+0	-1.23400000E+3	2.00000000E+0	-9.80597788E+0	7.16026900E+6
116	02/09/2022	16:28:03.592	2.84975281E+0	-1.23500000E+3	2.00000000E+0	-9.80597788E+0	7.16026900E+6
117	02/09/2022	16:28:04.995	2.50729160E+0	-1.23300000E+3	2.00000000E+0	-9.80597788E+0	7.16026900E+6
118	02/09/2022	16:28:06.484	1.41279631E+0	-1.23400000E+3	2.00000000E+0	-9.80597788E+0	7.16026900E+6
119	02/09/2022	16:28:07.887	2.83556349E+0	-1.23500000E+3	2.00000000E+0	-9.80597788E+0	7.16026900E+6
120	02/09/2022	16:28:09.290	5.25350070E+0	-1.23400000E+3	2.00000000E+0	-9.80597788E+0	7.16026900E+6
121	02/09/2022	16:28:10.778	1.86877209E+0	-1.23300000E+3	2.00000000E+0	-9.80597788E+0	7.16026900E+6
122	02/09/2022	16:28:12.163	5.78195708E+0	-1.23400000E+3	2.00000000E+0	-9.80597788E+0	7.16026900E+6
123	02/09/2022	16:28:13.615	5.02455407E+0	-1.23300000E+3	2.00000000E+0	-9.80597788E+0	7.16026900E+6
124	02/09/2022	16:28:15.131	3.02961206E+0	-1.23400000E+3	2.00000000E+0	-9.80597788E+0	7.16026900E+6
125	02/09/2022	16:28:16.500	1.32114095E+0	-1.23400000E+3	2.00000000E+0	-9.80597788E+0	7.16026900E+6
126	02/09/2022	16:28:18.011	2.87314602E+0	-1.23500000E+3	2.00000000E+0	-9.80597788E+0	7.16026900E+6
127	02/09/2022	16:28:19.382	3.29729170E+0	-1.23500000E+3	2.00000000E+0	-9.80597788E+0	7.16026900E+6
128	02/09/2022	16:28:20.776	5.70909300E+0	-1.23300000E+3	2.00000000E+0	-9.80597788E+0	7.16026900E+6
129	02/09/2022	16:28:22.268	2.58053918E+0	-1.23400000E+3	2.00000000E+0	-9.80597788E+0	7.16026900E+6
130	02/09/2022	16:28:23.636	1.11635452E+0	-1.23400000E+3	2.00000000E+0	-9.80597788E+0	7.16026900E+6
131	02/09/2022	16:28:25.072	2.59626248E-1	-1.23300000E+3	2.00000000E+0	-9.80597788E+0	7.16026900E+6
132	02/09/2022	16:28:26.586	2.08237892E-1	-1.23400000E+3	2.00000000E+0	-9.80597788E+0	7.16026900E+6
133	02/09/2022	16:28:27.968	3.96227238E+0	-1.23500000E+3	2.00000000E+0	-9.80597788E+0	7.16026900E+6
134	02/09/2022	16:28:29.528	6.14129208E+0	-1.23400000E+3	2.00000000E+0	-9.80597788E+0	7.16026900E+6
135	02/09/2022	16:28:30.959	1.01741276E+0	-1.23300000E+3	2.00000000E+0	-9.80597788E+0	7.16026900E+6
136	02/09/2022	16:28:32.331	2.36233041E+0	-1.23400000E+3	2.00000000E+0	-9.80597788E+0	7.16026900E+6
137	02/09/2022	16:28:33.919	4.25181125E+0	-1.23300000E+3	2.00000000E+0	-9.80597788E+0	7.16026900E+6
138	02/09/2022	16:28:35.295	5.32521431E+0	-1.23400000E+3	2.00000000E+0	-9.80597788E+0	7.16026900E+6
139	02/09/2022	16:28:36.841	3.69881117E+0	-1.23300000E+3	2.00000000E+0	-9.80597788E+0	7.16026900E+6
140	02/09/2022	16:28:38.244	4.73156374E+0	-1.23300000E+3	2.00000000E+0	-9.80597788E+0	7.16026900E+6
141	02/09/2022	16:28:39.633	4.80135987E+0	-1.23500000E+3	2.00000000E+0	-9.80597788E+0	7.16026900E+6
142	02/09/2022	16:28:41.170	4.95859290E-1	-1.23200000E+3	2.00000000E+0	-9.80597788E+0	7.16026900E+6
143	02/09/2022	16:28:42.546	3.34791307E-1	-1.23300000E+3	2.00000000E+0	-9.80597788E+0	7.16026900E+6
144	02/09/2022	16:28:43.981	5.89432118E+0	-1.23500000E+3	2.00000000E+0	-9.80597788E+0	7.16026900E+6
145	02/09/2022	16:28:45.452	2.59204404E+0	-1.23300000E+3	2.00000000E+0	-9.80597788E+0	7.16026900E+6
146	02/09/2022	16:28:46.849	3.73754419E+0	-1.23500000E+3	2.00000000E+0	-9.80597788E+0	7.16026900E+6
147	02/09/2022	16:28:48.321	3.84568984E+0	-1.23400000E+3	2.00000000E+0	-9.80597788E+0	7.16026900E+6
148	02/09/2022	16:28:49.717	1.73339829E+0	-1.23400000E+3	2.00000000E+0	-9.80597788E+0	7.16026900E+6
149	02/09/2022	16:28:51.088	4.43320448E-1	-1.23400000E+3	2.00000000E+0	-9.80597788E+0	7.16026900E+6
150	02/09/2022	16:28:52.661	2.32474788E+0	-1.23300000E+3	2.00000000E+0	-9.80597788E+0	7.16026900E+6
151	02/09/2022	16:28:54.043	6.97961258E-1	-1.23300000E+3	2.00000000E+0	-9.80597788E+0	7.16026900E+6
152	02/09/2022	16:28:55.515	2.42445664E+0	-1.23500000E+3	2.00000000E+0	-9.80597788E+0	7.16026900E+6
153	02/09/2022	16:28:56.901	6.25058822E+0	-1.23400000E+3	2.00000000E+0	-9.80597788E+0	7.16026900E+6
154	02/09/2022	16:28:58.295	5.41265121E+0	-1.23500000E+3	2.00000000E+0	-9.80597788E+0	7.16026900E+6
155	02/09/2022	16:28:59.754	5.84523379E+0	-1.23500000E+3	2.00000000E+0	-9.80597788E+0	7.16026900E+6
156	02/09/2022	16:29:01.155	5.34899101E+0	-1.23300000E+3	2.00000000E+0	-9.80597788E+0	7.16026900E+6
157	02/09/2022	16:29:02.607	1.15163608E+0	-1.23300000E+3	2.00000000E+0	-9.80597788E+0	7.16026900E+6
158	02/09/2022	16:29:04.118	4.24529183E+0	-1.23300000E+3	2.00000000E+0	-9.80597788E+0	7.16026900E+6
159	02/09/2022	16:29:05.503	4.89301522E+0	-1.23500000E+3	2.00000000E+0	-9.80597788E+0	7.16026900E+6
160	02/09/2022	16:29:07.021	5.86939399E+0	-1.23500000E+3	2.00000000E+0	-9.80597788E+0	7.16026900E+6
161	02/09/2022	16:29:08.402	3.61099077E+0	-1.23300000E+3	2.00000000E+0	-9.80597788E+0	7.16026900E+6
162	02/09/2022	16:29:09.791	4.32122388E+0	-1.23500000E+3	2.00000000E+0	-9.80597788E+0	7.16026900E+6
163	02/09/2022	16:29:11.288	1.06381568E+0	-1.23300000E+3	2.00000000E+0	-9.80597788E+0	7.16026900E+6
164	02/09/2022	16:29:12.680	3.86102964E+0	-1.23500000E+3	2.00000000E+0	-9.80597788E+0	7.16026900E+6
165	02/09/2022	16:29:14.142	5.91042798E+0	-1.23500000E+3	2.00000000E+0	-9.80597788E+0	7.16026900E+6
166	02/09/2022	16:29:15.659	3.45145677E-3	-1.23200000E+3	2.00000000E+0	-9.80597788E+0	7.16026900E+6
167	02/09/2022	16:29:17.033	3.40313638E+0	-1.23300000E+3	2.00000000E+0	-9.80597788E+0	7.16026900E+6
168	02/09/2022	16:29:18.598	5.81877262E+0	-1.23500000E+3	2.00000000E+0	-9.80597788E+0	7.16026900E+6
169	02/09/2022	16:29:19.998	4.09266074E+0	-1.23300000E+3	2.00000000E+0	-9.80597788E+0	7.16026900E+6
170	02/09/2022	16:29:21.368	3.40773832E+0	-1.23300000E+3	2.00000000E+0	-9.80597788E+0	7.16026900E+6
171	02/09/2022	16:29:22.853	1.43503903E+0	-1.23500000E+3	2.00000000E+0	-9.80597788E+0	7.16026900E+6
172	02/09/2022	16:29:24.238	4.23110251E+0	-1.23300000E+3	2.00000000E+0	-9.80597788E+0	7.16026900E+6
173	02/09/2022	16:29:25.758	2.51112655E+0	-1.23400000E+3	2.00000000E+0	-9.80597788E+0	7.16026900E+6
174	02/09/2022	16:29:27.197	2.27374302E+0	-1.23300000E+3	2.00000000E+0	-9.80597788E+0	7.16026900E+6
175	02/09/2022	16:29:28.573	4.52140837E+0	-1.23300000E+3	2.00000000E+0	-9.80597788E+0	7.16026900E+6
176	02/09/2022	16:29:30.044	4.19236949E+0	-1.23400000E+3	2.00000000E+0	-9.80597788E+0	7.16026900E+6
177	02/09/2022	16:29:31.445	4.75227248E+0	-1.23300000E+3	2.00000000E+0	-9.80597788E+0	7.16026900E+6
178	02/09/2022	16:29:32.820	3.48827231E+0	-1.23300000E+3	2.00000000E+0	-9.80597788E+0	7.16026900E+6
179	02/09/2022	16:29:34.331	4.08153938E+0	-1.23400000E+3	2.00000000E+0	-9.80597788E+0	7.16026900E+6
180	02/09/2022	16:29:35.728	5.68723377E+0	-1.23400000E+3	2.00000000E+0	-9.80597788E+0	7.16026900E+6
181	02/09/2022	16:29:37.250	5.88665127E+0	-1.23400000E+3	2.00000000E+0	-9.80597788E+0	7.16026900E+6
182	02/09/2022	16:29:38.640	2.53490325E-1	-1.23400000E+3	2.00000000E+0	-9.80597788E+0	7.16026900E+6
183	02/09/2022	16:29:40.028	3.65125777E+0	-1.23300000E+3	2.00000000E+0	-9.80597788E+0	7.16026900E+6
184	02/09/2022	16:29:41.577	4.83625793E+0	-1.23300000E+3	2.00000000E+0	-9.80597788E+0	7.16026900E+6
185	02/09/2022	16:29:42.978	3.21407325E+0	-1.23400000E+3	2.00000000E+0	-9.80597788E+0	7.16026900E+6
186	02/09/2022	16:29:44.440	3.47600047E+0	-1.23400000E+3	2.00000000E+0	-9.80597788E+0	7.16026900E+6
187	02/09/2022	16:29:45.919	1.36255843E+0	-1.23300000E+3	2.00000000E+0	-9.80597788E+0	7.16026900E+6
188	02/09/2022	16:29:47.303	3.59296650E+0	-1.23500000E+3	2.00000000E+0	-9.80597788E+0	7.16026900E+6
189	02/09/2022	16:29:48.825	9.94786541E-1	-1.23300000E+3	2.00000000E+0	-9.80597788E+0	7.16026900E+6
190	02/09/2022	16:29:50.225	2.19129156E+0	-1.23500000E+3	2.00000000E+0	-9.80597788E+0	7.16026900E+6
191	02/09/2022	16:29:51.671	2.44746635E+0	-1.23400000E+3	2.00000000E+0	-9.80597788E+0	7.16026900E+6
192	02/09/2022	16:29:53.186	2.55676248E+0	-1.23500000E+3	2.00000000E+0	-9.80597788E+0	7.16026900E+6
193	02/09/2022	16:29:54.575	2.26415564E+0	-1.23300000E+3	2.00000000E+0	-9.80597788E+0	7.16026900E+6
194	02/09/2022	16:29:56.124	2.52838383E+0	-1.23300000E+3	2.00000000E+0	-9.80597788E+0	7.16026900E+6
195	02/09/2022	16:29:57.567	6.23946685E-1	-1.23500000E+3	2.00000000E+0	-9.80597788E+0	7.16026900E+6
196	02/09/2022	16:29:58.932	3.87828693E+0	-1.23500000E+3	2.00000000E+0	-9.80597788E+0	7.16026900E+6
197	02/09/2022	16:30:00.489	2.46165567E+0	-1.23500000E+3	2.00000000E+0	-9.80597788E+0	7.16026900E+6
198	02/09/2022	16:30:01.876	5.18830652E+0	-1.23300000E+3	2.00000000E+0	-9.80597788E+0	7.16026900E+6
199	02/09/2022	16:30:03.336	1.33072833E-1	-1.23200000E+3	2.00000000E+0	-9.80597788E+0	7.16026900E+6
200	02/09/2022	16:30:04.839	5.36509781E+0	-1.23300000E+3	2.00000000E+0	-9.80597788E+0	7.16026900E+6
201	02/09/2022	16:30:06.246	1.70655363E+0	-1.23400000E+3	2.00000000E+0	-9.80597788E+0	7.16026900E+6
202	02/09/2022	16:30:07.700	5.02378708E-2	-1.23400000E+3	2.00000000E+0	-9.80597788E+0	7.16026900E+6
203	02/09/2022	16:30:09.097	5.92615128E+0	-1.23400000E+3	2.00000000E+0	-9.80597788E+0	7.16026900E+6
204	02/09/2022	16:30:10.488	1.42813611E+0	-1.23400000E+3	2.00000000E+0	-9.80597788E+0	7.16026900E+6
205	02/09/2022	16:30:12.050	2.90420913E+0	-1.23300000E+3	2.00000000E+0	-9.80597788E+0	7.16026900E+6
206	02/09/2022	16:30:13.417	2.86892757E+0	-1.23300000E+3	2.00000000E+0	-9.80597788E+0	7.16026900E+6
207	02/09/2022	16:30:14.866	4.96702979E+0	-1.23500000E+3	2.00000000E+0	-9.80597788E+0	7.16026900E+6
208	02/09/2022	16:30:16.212	1.22948560E+0	-1.23300000E+3	2.00000000E+0	-9.80597788E+0	7.16026900E+6
209	02/09/2022	16:30:17.593	2.77688872E+0	-1.23500000E+3	2.00000000E+0	-9.80597788E+0	7.16026900E+6
210	02/09/2022	16:30:19.148	2.26684011E+0	-1.23500000E+3	2.00000000E+0	-9.80597788E+0	7.16026900E+6
211	02/09/2022	16:30:20.547	5.28379682E+0	-1.23400000E+3	2.00000000E+0	-9.80597788E+0	7.16026900E+6
212	02/09/2022	16:30:21.925	1.87720899E+0	-1.23500000E+3	2.00000000E+0	-9.80597788E+0	7.16026900E+6
213	02/09/2022	16:30:23.495	5.33518518E+0	-1.23400000E+3	2.00000000E+0	-9.80597788E+0	7.16026900E+6
214	02/09/2022	16:30:24.884	2.18285466E+0	-1.23400000E+3	2.00000000E+0	-9.80597788E+0	7.16026900E+6
215	02/09/2022	16:30:26.406	3.51780144E+0	-1.23500000E+3	2.00000000E+0	-9.80597788E+0	7.16026900E+6
216	02/09/2022	16:30:27.782	1.78171869E+0	-1.23400000E+3	2.00000000E+0	-9.80597788E+0	7.16026900E+6
217	02/09/2022	16:30:29.156	3.40428686E+0	-1.23300000E+3	2.00000000E+0	-9.80597788E+0	7.16026900E+6
218	02/09/2022	16:30:30.658	8.88174876E-1	-1.23300000E+3	2.00000000E+0	-9.80597788E+0	7.16026900E+6
219	02/09/2022	16:30:32.064	5.00346183E+0	-1.23500000E+3	2.00000000E+0	-9.80597788E+0	7.16026900E+6
220	02/09/2022	16:30:33.506	3.24398587E+0	-1.23400000E+3	2.00000000E+0	-9.80597788E+0	7.16026900E+6
221	02/09/2022	16:30:34.978	3.33755870E+0	-1.23500000E+3	2.00000000E+0	-9.80597788E+0	7.16026900E+6
222	02/09/2022	16:30:36.414	4.98620455E+0	-1.23300000E+3	2.00000000E+0	-9.80597788E+0	7.16026900E+6
223	02/09/2022	16:30:37.906	3.23669946E-1	-1.23400000E+3	2.00000000E+0	-9.80597788E+0	7.16026900E+6
224	02/09/2022	16:30:39.291	6.27129696E+0	-1.23300000E+3	2.00000000E+0	-9.80597788E+0	7.16026900E+6
225	02/09/2022	16:30:40.693	3.32950530E+0	-1.23400000E+3	2.00000000E+0	-9.80597788E+0	7.16026900E+6
226	02/09/2022	16:30:42.199	5.12656379E+0	-1.23400000E+3	2.00000000E+0	-9.80597788E+0	7.16026900E+6
227	02/09/2022	16:30:43.582	3.61099077E+0	-1.23300000E+3	2.00000000E+0	-9.80597788E+0	7.16026900E+6
228	02/09/2022	16:30:45.094	5.72750077E+0	-1.23400000E+3	2.00000000E+0	-9.80597788E+0	7.16026900E+6
229	02/09/2022	16:30:46.498	4.92407833E+0	-1.23300000E+3	2.00000000E+0	-9.80597788E+0	7.16026900E+6
230	02/09/2022	16:30:47.877	4.31892291E+0	-1.23400000E+3	2.00000000E+0	-9.80597788E+0	7.16026900E+6
231	02/09/2022	16:30:49.380	1.02278169E+0	-1.23300000E+3	2.00000000E+0	-9.80597788E+0	7.16026900E+6
232	02/09/2022	16:30:50.767	3.99371898E+0	-1.23500000E+3	2.00000000E+0	-9.80597788E+0	7.16026900E+6
233	02/09/2022	16:30:52.156	3.43765095E+0	-1.23300000E+3	2.00000000E+0	-9.80597788E+0	7.16026900E+6
234	02/09/2022	16:30:53.662	3.24436937E+0	-1.23300000E+3	2.00000000E+0	-9.80597788E+0	7.16026900E+6
235	02/09/2022	16:30:55.051	2.24996632E+0	-1.23500000E+3	2.00000000E+0	-9.80597788E+0	7.16026900E+6
236	02/09/2022	16:30:56.502	1.53167982E+0	-1.23400000E+3	2.00000000E+0	-9.80597788E+0	7.16026900E+6
237	02/09/2022	16:30:57.904	6.07494742E+0	-1.23300000E+3	2.00000000E+0	-9.80597788E+0	7.16026900E+6
238	02/09/2022	16:30:59.289	1.27320405E-1	-1.23400000E+3	2.00000000E+0	-9.80597788E+0	7.16026900E+6
239	02/09/2022	16:31:00.806	4.18508308E+0	-1.23500000E+3	2.00000000E+0	-9.80597788E+0	7.16026900E+6
240	02/09/2022	16:31:02.218	9.42247699E-1	-1.23500000E+3	2.00000000E+0	-9.80597788E+0	7.16026900E+6
241	02/09/2022	16:31:03.607	4.50300060E+0	-1.23300000E+3	2.00000000E+0	-9.80597788E+0	7.16026900E+6
242	02/09/2022	16:31:05.089	8.43305938E-1	-1.23500000E+3	2.00000000E+0	-9.80597788E+0	7.16026900E+6
243	02/09/2022	16:31:06.487	5.07709291E+0	-1.23300000E+3	2.00000000E+0	-9.80597788E+0	7.16026900E+6
244	02/09/2022	16:31:07.959	2.54410714E+0	-1.23500000E+3	2.00000000E+0	-9.80597788E+0	7.16026900E+6
245	02/09/2022	16:31:09.344	3.06719459E+0	-1.23400000E+3	2.00000000E+0	-9.80597788E+0	7.16026900E+6
246	02/09/2022	16:31:10.728	2.69712172E+0	-1.23300000E+3	2.00000000E+0	-9.80597788E+0	7.16026900E+6
247	02/09/2022	16:31:12.283	1.51058758E+0	-1.23300000E+3	2.00000000E+0	-9.80597788E+0	7.16026900E+6
248	02/09/2022	16:31:13.669	2.79031105E+0	-1.23500000E+3	2.00000000E+0	-9.80597788E+0	7.16026900E+6
249	02/09/2022	16:31:15.193	4.19812192E+0	-1.23300000E+3	2.00000000E+0	-9.80597788E+0	7.16026900E+6
250	02/09/2022	16:31:16.591	3.15654897E+0	-1.23500000E+3	2.00000000E+0	-9.80597788E+0	7.16026900E+6
251	02/09/2022	16:31:17.984	1.71268955E+0	-1.23300000E+3	2.00000000E+0	-9.80597788E+0	7.16026900E+6
252	02/09/2022	16:31:19.531	6.11022897E+0	-1.23300000E+3	2.00000000E+0	-9.80597788E+0	7.16026900E+6
253	02/09/2022	16:31:20.907	3.06297614E+0	-1.23300000E+3	2.00000000E+0	-9.80597788E+0	7.16026900E+6
254	02/09/2022	16:31:22.369	6.27206395E+0	-1.23400000E+3	2.00000000E+0	-9.80597788E+0	7.16026900E+6
255	02/09/2022	16:31:23.874	3.93849567E-1	-1.23300000E+3	2.00000000E+0	-9.80597788E+0	7.16026900E+6
256	02/09/2022	16:31:25.241	5.82912699E-1	-1.23300000E+3	2.00000000E+0	-9.80597788E+0	7.16026900E+6
257	02/09/2022	16:31:26.733	3.16153440E+0	-1.23300000E+3	2.00000000E+0	-9.80597788E+0	7.16026900E+6
258	02/09/2022	16:31:28.140	1.52784486E+0	-1.23400000E+3	2.00000000E+0	-9.80597788E+0	7.16026900E+6
259	02/09/2022	16:31:29.538	4.61958314E+0	-1.23500000E+3	2.00000000E+0	-9.80597788E+0	7.16026900E+6
260	02/09/2022	16:31:31.102	5.28187935E+0	-1.23500000E+3	2.00000000E+0	-9.80597788E+0	7.16026900E+6
261	02/09/2022	16:31:32.488	4.89109774E+0	-1.23300000E+3	2.00000000E+0	-9.80597788E+0	7.16026900E+6
262	02/09/2022	16:31:33.892	8.24131178E-1	-1.23300000E+3	2.00000000E+0	-9.80597788E+0	7.16026900E+6
263	02/09/2022	16:31:35.348	1.13898074E+0	-1.23400000E+3	2.00000000E+0	-9.80597788E+0	7.16026900E+6
264	02/09/2022	16:31:36.754	3.74674807E+0	-1.23500000E+3	2.00000000E+0	-9.80597788E+0	7.16026900E+6
265	02/09/2022	16:31:38.293	2.83863145E+0	-1.23400000E+3	2.00000000E+0	-9.80597788E+0	7.16026900E+6
266	02/09/2022	16:31:39.690	3.55116552E-1	-1.23300000E+3	2.00000000E+0	-9.80597788E+0	7.16026900E+6
267	02/09/2022	16:31:41.104	1.09066034E+0	-1.23300000E+3	2.00000000E+0	-9.80597788E+0	7.16026900E+6
268	02/09/2022	16:31:42.594	2.64956832E+0	-1.23500000E+3	2.00000000E+0	-9.80597788E+0	7.16026900E+6
269	02/09/2022	16:31:44.003	3.46756357E+0	-1.23500000E+3	2.00000000E+0	-9.80597788E+0	7.16026900E+6
270	02/09/2022	16:31:45.519	4.33426272E+0	-1.23500000E+3	2.00000000E+0	-9.80597788E+0	7.16026900E+6
271	02/09/2022	16:31:46.905	4.52447633E+0	-1.23300000E+3	2.00000000E+0	-9.80597788E+0	7.16026900E+6
272	02/09/2022	16:31:48.283	4.14903454E+0	-1.23400000E+3	2.00000000E+0	-9.80597788E+0	7.16026900E+6
273	02/09/2022	16:31:49.838	5.74552504E+0	-1.23500000E+3	2.00000000E+0	-9.80597788E+0	7.16026900E+6
274	02/09/2022	16:31:51.241	3.52240338E+0	-1.23300000E+3	2.00000000E+0	-9.80597788E+0	7.16026900E+6
275	02/09/2022	16:31:52.632	2.90689359E+0	-1.23500000E+3	2.00000000E+0	-9.80597788E+0	7.16026900E+6
276	02/09/2022	16:31:54.141	5.28571430E+0	-1.23500000E+3	2.00000000E+0	-9.80597788E+0	7.16026900E+6
277	02/09/2022	16:31:55.517	5.01228222E+0	-1.23400000E+3	2.00000000E+0	-9.80597788E+0	7.16026900E+6
278	02/09/2022	16:31:57.054	1.80012645E+0	-1.23500000E+3	2.00000000E+0	-9.80597788E+0	7.16026900E+6
279	02/09/2022	16:31:58.425	2.74084017E+0	-1.23500000E+3	2.00000000E+0	-9.80597788E+0	7.16026900E+6
280	02/09/2022	16:31:59.819	4.45583069E+0	-1.23300000E+3	2.00000000E+0	-9.80597788E+0	7.16026900E+6
281	02/09/2022	16:32:01.286	4.93558319E+0	-1.23400000E+3	2.00000000E+0	-9.80597788E+0	7.16026900E+6
282	02/09/2022	16:32:02.675	2.63844696E-1	-1.23400000E+3	2.00000000E+0	-9.80597788E+0	7.16026900E+6
283	02/09/2022	16:32:04.129	1.36025746E+0	-1.23500000E+3	2.00000000E+0	-9.80597788E+0	7.16026900E+6
284	02/09/2022	16:32:05.591	2.81792271E+0	-1.23500000E+3	2.00000000E+0	-9.80597788E+0	7.16026900E+6
285	02/09/2022	16:32:06.979	5.82836000E+0	-1.23300000E+3	2.00000000E+0	-9.80597788E+0	7.16026900E+6
286	02/09/2022	16:32:08.467	3.58874805E+0	-1.23500000E+3	2.00000000E+0	-9.80597788E+0	7.16026900E+6
287	02/09/2022	16:32:09.861	2.18362165E+0	-1.23300000E+3	2.00000000E+0	-9.80597788E+0	7.16026900E+6
288	02/09/2022	16:32:11.277	6.24943773E+0	-1.23400000E+3	2.00000000E+0	-9.80597788E+0	7.16026900E+6
289	02/09/2022	16:32:12.822	5.29875314E+0	-1.23300000E+3	2.00000000E+0	-9.80597788E+0	7.16026900E+6
290	02/09/2022	16:32:14.212	2.61697122E+0	-1.23500000E+3	2.00000000E+0	-9.80597788E+0	7.16026900E+6
291	02/09/2022	16:32:15.656	5.95107847E+0	-1.23400000E+3	2.00000000E+0	-9.80597788E+0	7.16026900E+6
292	02/09/2022	16:32:17.039	2.49386927E+0	-1.23500000E+3	2.00000000E+0	-9.80597788E+0	7.16026900E+6
293	02/09/2022	16:32:18.438	1.68737887E-1	-1.23300000E+3	2.00000000E+0	-9.80597788E+0	7.16026900E+6
294	02/09/2022	16:32:19.971	3.02385963E+0	-1.23400000E+3	2.00000000E+0	-9.80597788E+0	7.16026900E+6
295	02/09/2022	16:32:21.371	3.49364124E+0	-1.23500000E+3	2.00000000E+0	-9.80597788E+0	7.16026900E+6
296	02/09/2022	16:32:22.819	6.15509791E+0	-1.23400000E+3	2.00000000E+0	-9.80597788E+0	7.16026900E+6
297	02/09/2022	16:32:24.313	4.12103939E+0	-1.23300000E+3	2.00000000E+0	-9.80597788E+0	7.16026900E+6
298	02/09/2022	16:32:25.708	3.62134515E+0	-1.23500000E+3	2.00000000E+0	-9.80597788E+0	7.16026900E+6
299	02/09/2022	16:32:27.189	3.72910730E+0	-1.23300000E+3	2.00000000E+0	-9.80597788E+0	7.16026900E+6
300	02/09/2022	16:32:28.566	2.92913631E+0	-1.23300000E+3	2.00000000E+0	-9.80597788E+0	7.16026900E+6
301	02/09/2022	16:32:30.001	4.11758793E+0	-1.23500000E+3	2.00000000E+0	-9.80597788E+0	7.16026900E+6
