#Iteration	Date	Time	Chirp	Phase	RamanAxis	RatioMean	RatioStdDev
1	02/09/2022	16:25:18.080	0.00000000E+0	-3.14159265E+1	5.00000000E+0	4.51962288E-1	0.00000000E+0
2	02/09/2022	16:25:19.512	0.00000000E+0	-3.12065382E+1	5.00000000E+0	4.47561436E-1	0.00000000E+0
3	02/09/2022	16:25:21.033	0.00000000E+0	-3.09971498E+1	5.00000000E+0	4.47499986E-1	0.00000000E+0
4	02/09/2022	16:25:22.466	0.00000000E+0	-3.07877614E+1	5.00000000E+0	4.49439391E-1	0.00000000E+0
5	02/09/2022	16:25:23.846	0.00000000E+0	-3.05779895E+1	5.00000000E+0	4.50144190E-1	0.00000000E+0
6	02/09/2022	16:25:25.329	0.00000000E+0	-3.03686012E+1	5.00000000E+0	4.43679042E-1	0.00000000E+0
7	02/09/2022	16:25:26.737	0.00000000E+0	-3.01592128E+1	5.00000000E+0	4.47496665E-1	0.00000000E+0
8	02/09/2022	16:25:28.186	0.00000000E+0	-2.99498244E+1	5.00000000E+0	4.45936639E-1	0.00000000E+0
9	02/09/2022	16:25:29.610	0.00000000E+0	-2.97404360E+1	5.00000000E+0	4.49803128E-1	0.00000000E+0
10	02/09/2022	16:25:30.977	0.00000000E+0	-2.95310476E+1	5.00000000E+0	4.45035977E-1	0.00000000E+0
11	02/09/2022	16:25:32.558	0.00000000E+0	-2.93216593E+1	5.00000000E+0	4.45428882E-1	0.00000000E+0
12	02/09/2022	16:25:33.930	0.00000000E+0	-2.91122709E+1	5.00000000E+0	4.48500407E-1	0.00000000E+0
13	02/09/2022	16:25:35.341	0.00000000E+0	-2.89024990E+1	5.00000000E+0	4.48462096E-1	0.00000000E+0
14	02/09/2022	16:25:36.841	0.00000000E+0	-2.86931106E+1	5.00000000E+0	4.45265046E-1	0.00000000E+0
15	02/09/2022	16:25:38.239	0.00000000E+0	-2.84837223E+1	5.00000000E+0	4.46061914E-1	0.00000000E+0
16	02/09/2022	16:25:39.757	0.00000000E+0	-2.82743339E+1	5.00000000E+0	4.44395915E-1	0.00000000E+0
17	02/09/2022	16:25:41.130	0.00000000E+0	-2.80649455E+1	5.00000000E+0	4.43989510E-1	0.00000000E+0
18	02/09/2022	16:25:42.520	0.00000000E+0	-2.78555571E+1	5.00000000E+0	4.45749830E-1	0.00000000E+0
19	02/09/2022	16:25:43.984	0.00000000E+0	-2.76461687E+1	5.00000000E+0	4.41712365E-1	0.00000000E+0
20	02/09/2022	16:25:45.364	0.00000000E+0	-2.74363969E+1	5.00000000E+0	4.55988161E-1	0.00000000E+0
21	02/09/2022	16:25:46.822	0.00000000E+0	-2.72270085E+1	5.00000000E+0	4.50766258E-1	0.00000000E+0
22	02/09/2022	16:25:48.330	0.00000000E+0	-2.70176201E+1	5.00000000E+0	4.39950489E-1	0.00000000E+0
23	02/09/2022	16:25:49.707	0.00000000E+0	-2.68082317E+1	5.00000000E+0	4.54260818E-1	0.00000000E+0
24	02/09/2022	16:25:51.253	0.00000000E+0	-2.65988434E+1	5.00000000E+0	4.50380918E-1	0.00000000E+0
25	02/09/2022	16:25:52.649	0.00000000E+0	-2.63894550E+1	5.00000000E+0	4.45947186E-1	0.00000000E+0
26	02/09/2022	16:25:54.063	0.00000000E+0	-2.61800666E+1	5.00000000E+0	4.46186662E-1	0.00000000E+0
27	02/09/2022	16:25:55.532	0.00000000E+0	-2.59706782E+1	5.00000000E+0	4.49735342E-1	0.00000000E+0
28	02/09/2022	16:25:56.894	0.00000000E+0	-2.57609064E+1	5.00000000E+0	4.45736279E-1	0.00000000E+0
29	02/09/2022	16:25:58.443	0.00000000E+0	-2.55515180E+1	5.00000000E+0	4.49675314E-1	0.00000000E+0
30	02/09/2022	16:25:59.856	0.00000000E+0	-2.53421296E+1	5.00000000E+0	4.46055183E-1	0.00000000E+0
31	02/09/2022	16:26:01.241	0.00000000E+0	-2.51327412E+1	5.00000000E+0	4.45747482E-1	0.00000000E+0
32	02/09/2022	16:26:02.776	0.00000000E+0	-2.49233529E+1	5.00000000E+0	4.47155835E-1	0.00000000E+0
33	02/09/2022	16:26:04.151	0.00000000E+0	-2.47139645E+1	5.00000000E+0	4.48909551E-1	0.00000000E+0
34	02/09/2022	16:26:05.589	0.00000000E+0	-2.45045761E+1	5.00000000E+0	4.41180892E-1	0.00000000E+0
35	02/09/2022	16:26:07.105	0.00000000E+0	-2.42948042E+1	5.00000000E+0	4.48326886E-1	0.00000000E+0
36	02/09/2022	16:26:08.490	0.00000000E+0	-2.40854158E+1	5.00000000E+0	4.41585684E-1	0.00000000E+0
37	02/09/2022	16:26:09.950	0.00000000E+0	-2.38760275E+1	5.00000000E+0	4.43639965E-1	0.00000000E+0
38	02/09/2022	16:26:11.318	0.00000000E+0	-2.36666391E+1	5.00000000E+0	4.44778570E-1	0.00000000E+0
39	02/09/2022	16:26:12.735	0.00000000E+0	-2.34572507E+1	5.00000000E+0	4.44002217E-1	0.00000000E+0
40	02/09/2022	16:26:14.294	0.00000000E+0	-2.32478623E+1	5.00000000E+0	4.52776021E-1	0.00000000E+0
41	02/09/2022	16:26:15.689	0.00000000E+0	-2.30384740E+1	5.00000000E+0	4.48592872E-1	0.00000000E+0
42	02/09/2022	16:26:17.145	0.00000000E+0	-2.28290856E+1	5.00000000E+0	4.46903264E-1	0.00000000E+0
43	02/09/2022	16:26:18.494	0.00000000E+0	-2.26193137E+1	5.00000000E+0	4.43314079E-1	0.00000000E+0
44	02/09/2022	16:26:19.881	0.00000000E+0	-2.24099253E+1	5.00000000E+0	4.50322010E-1	0.00000000E+0
45	02/09/2022	16:26:21.394	0.00000000E+0	-2.22005370E+1	5.00000000E+0	4.40889315E-1	0.00000000E+0
46	02/09/2022	16:26:22.795	0.00000000E+0	-2.19911486E+1	5.00000000E+0	4.45139669E-1	0.00000000E+0
47	02/09/2022	16:26:24.255	0.00000000E+0	-2.17817602E+1	5.00000000E+0	4.46984287E-1	0.00000000E+0
48	02/09/2022	16:26:25.764	0.00000000E+0	-2.15723718E+1	5.00000000E+0	4.51969813E-1	0.00000000E+0
49	02/09/2022	16:26:27.144	0.00000000E+0	-2.13629834E+1	5.00000000E+0	4.45266558E-1	0.00000000E+0
50	02/09/2022	16:26:28.656	0.00000000E+0	-2.11532116E+1	5.00000000E+0	4.47154159E-1	0.00000000E+0
51	02/09/2022	16:26:30.041	0.00000000E+0	-2.09438232E+1	5.00000000E+0	4.43761490E-1	0.00000000E+0
52	02/09/2022	16:26:31.431	0.00000000E+0	-2.07344348E+1	5.00000000E+0	4.47283083E-1	0.00000000E+0
53	02/09/2022	16:26:32.976	0.00000000E+0	-2.05250464E+1	5.00000000E+0	4.51190579E-1	0.00000000E+0
54	02/09/2022	16:26:34.374	0.00000000E+0	-2.03156581E+1	5.00000000E+0	4.52664730E-1	0.00000000E+0
55	02/09/2022	16:26:35.749	0.00000000E+0	-2.01062697E+1	5.00000000E+0	4.50526769E-1	0.00000000E+0
56	02/09/2022	16:26:37.244	0.00000000E+0	-1.98968813E+1	5.00000000E+0	4.43839757E-1	0.00000000E+0
57	02/09/2022	16:26:38.635	0.00000000E+0	-1.96874929E+1	5.00000000E+0	4.50290002E-1	0.00000000E+0
58	02/09/2022	16:26:40.160	0.00000000E+0	-1.94777211E+1	5.00000000E+0	4.48044219E-1	0.00000000E+0
59	02/09/2022	16:26:41.526	0.00000000E+0	-1.92683327E+1	5.00000000E+0	4.50220983E-1	0.00000000E+0
60	02/09/2022	16:26:42.920	0.00000000E+0	-1.90589443E+1	5.00000000E+0	4.53859938E-1	0.00000000E+0
61	02/09/2022	16:26:44.398	0.00000000E+0	-1.88495559E+1	5.00000000E+0	4.50525259E-1	0.00000000E+0
62	02/09/2022	16:26:45.776	0.00000000E+0	-1.86401675E+1	5.00000000E+0	4.49403339E-1	0.00000000E+0
63	02/09/2022	16:26:47.227	0.00000000E+0	-1.84307792E+1	5.00000000E+0	4.53968005E-1	0.00000000E+0
64	02/09/2022	16:26:48.642	0.00000000E+0	-1.82213908E+1	5.00000000E+0	4.49400401E-1	0.00000000E+0
65	02/09/2022	16:26:50.038	0.00000000E+0	-1.80116189E+1	5.00000000E+0	4.51904335E-1	0.00000000E+0
66	02/09/2022	16:26:51.589	0.00000000E+0	-1.78022305E+1	5.00000000E+0	4.50346430E-1	0.00000000E+0
67	02/09/2022	16:26:52.946	0.00000000E+0	-1.75928422E+1	5.00000000E+0	4.51116879E-1	0.00000000E+0
68	02/09/2022	16:26:54.389	0.00000000E+0	-1.73834538E+1	5.00000000E+0	4.46297832E-1	0.00000000E+0
69	02/09/2022	16:26:55.886	0.00000000E+0	-1.71740654E+1	5.00000000E+0	4.39386456E-1	0.00000000E+0
70	02/09/2022	16:26:57.274	0.00000000E+0	-1.69646770E+1	5.00000000E+0	4.46337122E-1	0.00000000E+0
71	02/09/2022	16:26:58.785	0.00000000E+0	-1.67552887E+1	5.00000000E+0	4.47855847E-1	0.00000000E+0
72	02/09/2022	16:27:00.184	0.00000000E+0	-1.65459003E+1	5.00000000E+0	4.48413301E-1	0.00000000E+0
73	02/09/2022	16:27:01.569	0.00000000E+0	-1.63361284E+1	5.00000000E+0	4.51947784E-1	0.00000000E+0
74	02/09/2022	16:27:03.144	0.00000000E+0	-1.61267400E+1	5.00000000E+0	4.44697893E-1	0.00000000E+0
75	02/09/2022	16:27:04.536	0.00000000E+0	-1.59173516E+1	5.00000000E+0	4.50180601E-1	0.00000000E+0
76	02/09/2022	16:27:05.990	0.00000000E+0	-1.57079633E+1	5.00000000E+0	4.54786771E-1	0.00000000E+0
77	02/09/2022	16:27:07.469	0.00000000E+0	-1.54985749E+1	5.00000000E+0	4.52269014E-1	0.00000000E+0
78	02/09/2022	16:27:08.858	0.00000000E+0	-1.52891865E+1	5.00000000E+0	4.45497351E-1	0.00000000E+0
79	02/09/2022	16:27:10.460	0.00000000E+0	-1.50797981E+1	5.00000000E+0	4.51000070E-1	0.00000000E+0
80	02/09/2022	16:27:11.866	0.00000000E+0	-1.48700263E+1	5.00000000E+0	4.47411173E-1	0.00000000E+0
81	02/09/2022	16:27:13.254	0.00000000E+0	-1.46606379E+1	5.00000000E+0	4.53821374E-1	0.00000000E+0
82	02/09/2022	16:27:14.702	0.00000000E+0	-1.44512495E+1	5.00000000E+0	4.45122608E-1	0.00000000E+0
83	02/09/2022	16:27:16.094	0.00000000E+0	-1.42418611E+1	5.00000000E+0	4.45811279E-1	0.00000000E+0
84	02/09/2022	16:27:17.629	0.00000000E+0	-1.40324728E+1	5.00000000E+0	4.52534672E-1	0.00000000E+0
85	02/09/2022	16:27:19.049	0.00000000E+0	-1.38230844E+1	5.00000000E+0	4.45478501E-1	0.00000000E+0
86	02/09/2022	16:27:20.430	0.00000000E+0	-1.36136960E+1	5.00000000E+0	4.50477531E-1	0.00000000E+0
87	02/09/2022	16:27:21.940	0.00000000E+0	-1.34043076E+1	5.00000000E+0	4.49598002E-1	0.00000000E+0
88	02/09/2022	16:27:23.309	0.00000000E+0	-1.31945357E+1	5.00000000E+0	4.46695850E-1	0.00000000E+0
89	02/09/2022	16:27:24.755	0.00000000E+0	-1.29851474E+1	5.00000000E+0	4.47623289E-1	0.00000000E+0
90	02/09/2022	16:27:26.281	0.00000000E+0	-1.27757590E+1	5.00000000E+0	4.52580264E-1	0.00000000E+0
91	02/09/2022	16:27:27.671	0.00000000E+0	-1.25663706E+1	5.00000000E+0	4.50862812E-1	0.00000000E+0
92	02/09/2022	16:27:29.135	0.00000000E+0	-1.23569822E+1	5.00000000E+0	4.53598917E-1	0.00000000E+0
93	02/09/2022	16:27:30.521	0.00000000E+0	-1.21475939E+1	5.00000000E+0	4.46787034E-1	0.00000000E+0
94	02/09/2022	16:27:31.903	0.00000000E+0	-1.19382055E+1	5.00000000E+0	4.48855806E-1	0.00000000E+0
95	02/09/2022	16:27:33.452	0.00000000E+0	-1.17284336E+1	5.00000000E+0	4.47832072E-1	0.00000000E+0
96	02/09/2022	16:27:34.856	0.00000000E+0	-1.15190452E+1	5.00000000E+0	4.48044397E-1	0.00000000E+0
97	02/09/2022	16:27:36.303	0.00000000E+0	-1.13096569E+1	5.00000000E+0	4.45051999E-1	0.00000000E+0
98	02/09/2022	16:27:37.707	0.00000000E+0	-1.11002685E+1	5.00000000E+0	4.43102536E-1	0.00000000E+0
99	02/09/2022	16:27:39.106	0.00000000E+0	-1.08908801E+1	5.00000000E+0	4.42469373E-1	0.00000000E+0
100	02/09/2022	16:27:40.565	0.00000000E+0	-1.06814917E+1	5.00000000E+0	4.52730122E-1	0.00000000E+0
101	02/09/2022	16:27:41.968	0.00000000E+0	-1.04721033E+1	5.00000000E+0	4.45401641E-1	0.00000000E+0
102	02/09/2022	16:27:43.369	0.00000000E+0	-1.02627150E+1	5.00000000E+0	4.51241712E-1	0.00000000E+0
103	02/09/2022	16:27:44.932	0.00000000E+0	-1.00529431E+1	5.00000000E+0	4.44460640E-1	0.00000000E+0
104	02/09/2022	16:27:46.340	0.00000000E+0	-9.84355472E+0	5.00000000E+0	4.44542738E-1	0.00000000E+0
105	02/09/2022	16:27:47.843	0.00000000E+0	-9.63416634E+0	5.00000000E+0	4.43921247E-1	0.00000000E+0
106	02/09/2022	16:27:49.225	0.00000000E+0	-9.42477796E+0	5.00000000E+0	4.45275429E-1	0.00000000E+0
107	02/09/2022	16:27:50.654	0.00000000E+0	-9.21538958E+0	5.00000000E+0	4.43770582E-1	0.00000000E+0
108	02/09/2022	16:27:52.130	0.00000000E+0	-9.00600121E+0	5.00000000E+0	4.49309032E-1	0.00000000E+0
109	02/09/2022	16:27:53.536	0.00000000E+0	-8.79661283E+0	5.00000000E+0	4.51385609E-1	0.00000000E+0
110	02/09/2022	16:27:54.931	0.00000000E+0	-8.58684096E+0	5.00000000E+0	4.50238008E-1	0.00000000E+0
111	02/09/2022	16:27:56.422	0.00000000E+0	-8.37745258E+0	5.00000000E+0	4.46134976E-1	0.00000000E+0
112	02/09/2022	16:27:57.810	0.00000000E+0	-8.16806420E+0	5.00000000E+0	4.43655980E-1	0.00000000E+0
113	02/09/2022	16:27:59.312	0.00000000E+0	-7.95867582E+0	5.00000000E+0	4.52014568E-1	0.00000000E+0
114	02/09/2022	16:28:00.686	0.00000000E+0	-7.74928745E+0	5.00000000E+0	4.42408178E-1	0.00000000E+0
115	02/09/2022	16:28:02.078	0.00000000E+0	-7.53989907E+0	5.00000000E+0	4.47292117E-1	0.00000000E+0
116	02/09/2022	16:28:03.592	0.00000000E+0	-7.33051069E+0	5.00000000E+0	4.50982985E-1	0.00000000E+0
117	02/09/2022	16:28:04.995	0.00000000E+0	-7.12112231E+0	5.00000000E+0	4.48187285E-1	0.00000000E+0
118	02/09/2022	16:28:06.484	0.00000000E+0	-6.91135044E+0	5.00000000E+0	4.47475471E-1	0.00000000E+0
119	02/09/2022	16:28:07.887	0.00000000E+0	-6.70196206E+0	5.00000000E+0	4.51049278E-1	0.00000000E+0
120	02/09/2022	16:28:09.290	0.00000000E+0	-6.49257368E+0	5.00000000E+0	4.52211874E-1	0.00000000E+0
121	02/09/2022	16:28:10.778	0.00000000E+0	-6.28318531E+0	5.00000000E+0	4.48532672E-1	0.00000000E+0
122	02/09/2022	16:28:12.163	0.00000000E+0	-6.07379693E+0	5.00000000E+0	4.46822934E-1	0.00000000E+0
123	02/09/2022	16:28:13.615	0.00000000E+0	-5.86440855E+0	5.00000000E+0	4.47687535E-1	0.00000000E+0
124	02/09/2022	16:28:15.131	0.00000000E+0	-5.65502017E+0	5.00000000E+0	4.49828866E-1	0.00000000E+0
125	02/09/2022	16:28:16.500	0.00000000E+0	-5.44524830E+0	5.00000000E+0	4.48245019E-1	0.00000000E+0
126	02/09/2022	16:28:18.011	0.00000000E+0	-5.23585992E+0	5.00000000E+0	4.46670050E-1	0.00000000E+0
127	02/09/2022	16:28:19.382	0.00000000E+0	-5.02647155E+0	5.00000000E+0	4.50245563E-1	0.00000000E+0
128	02/09/2022	16:28:20.776	0.00000000E+0	-4.81708317E+0	5.00000000E+0	4.48063231E-1	0.00000000E+0
129	02/09/2022	16:28:22.268	0.00000000E+0	-4.60769479E+0	5.00000000E+0	4.48950186E-1	0.00000000E+0
130	02/09/2022	16:28:23.636	0.00000000E+0	-4.39830641E+0	5.00000000E+0	4.46320324E-1	0.00000000E+0
131	02/09/2022	16:28:25.072	0.00000000E+0	-4.18891804E+0	5.00000000E+0	4.52035000E-1	0.00000000E+0
132	02/09/2022	16:28:26.586	0.00000000E+0	-3.97952966E+0	5.00000000E+0	4.46808562E-1	0.00000000E+0
133	02/09/2022	16:28:27.968	0.00000000E+0	-3.76975779E+0	5.00000000E+0	4.44649625E-1	0.00000000E+0
134	02/09/2022	16:28:29.528	0.00000000E+0	-3.56036941E+0	5.00000000E+0	4.45797931E-1	0.00000000E+0
135	02/09/2022	16:28:30.959	0.00000000E+0	-3.35098103E+0	5.00000000E+0	4.46463348E-1	0.00000000E+0
136	02/09/2022	16:28:32.331	0.00000000E+0	-3.14159265E+0	5.00000000E+0	4.50801756E-1	0.00000000E+0
137	02/09/2022	16:28:33.919	0.00000000E+0	-2.93220428E+0	5.00000000E+0	4.46110464E-1	0.00000000E+0
138	02/09/2022	16:28:35.295	0.00000000E+0	-2.72281590E+0	5.00000000E+0	4.49279019E-1	0.00000000E+0
139	02/09/2022	16:28:36.841	0.00000000E+0	-2.51342752E+0	5.00000000E+0	4.52271711E-1	0.00000000E+0
140	02/09/2022	16:28:38.244	0.00000000E+0	-2.30365565E+0	5.00000000E+0	4.52529619E-1	0.00000000E+0
141	02/09/2022	16:28:39.633	0.00000000E+0	-2.09426727E+0	5.00000000E+0	4.48245367E-1	0.00000000E+0
142	02/09/2022	16:28:41.170	0.00000000E+0	-1.88487889E+0	5.00000000E+0	4.48639121E-1	0.00000000E+0
143	02/09/2022	16:28:42.546	0.00000000E+0	-1.67549052E+0	5.00000000E+0	4.43974501E-1	0.00000000E+0
144	02/09/2022	16:28:43.981	0.00000000E+0	-1.46610214E+0	5.00000000E+0	4.50984351E-1	0.00000000E+0
145	02/09/2022	16:28:45.452	0.00000000E+0	-1.25671376E+0	5.00000000E+0	4.47709020E-1	0.00000000E+0
146	02/09/2022	16:28:46.849	0.00000000E+0	-1.04732538E+0	5.00000000E+0	4.54815735E-1	0.00000000E+0
147	02/09/2022	16:28:48.321	0.00000000E+0	-8.37937005E-1	5.00000000E+0	4.44932712E-1	0.00000000E+0
148	02/09/2022	16:28:49.717	0.00000000E+0	-6.28165133E-1	5.00000000E+0	4.49510532E-1	0.00000000E+0
149	02/09/2022	16:28:51.088	0.00000000E+0	-4.18776755E-1	5.00000000E+0	4.43447357E-1	0.00000000E+0
150	02/09/2022	16:28:52.661	0.00000000E+0	-2.09388378E-1	5.00000000E+0	4.45262801E-1	0.00000000E+0
151	02/09/2022	16:28:54.043	0.00000000E+0	0.00000000E+0	5.00000000E+0	4.45166217E-1	0.00000000E+0
152	02/09/2022	16:28:55.515	0.00000000E+0	2.09388378E-1	5.00000000E+0	4.47099885E-1	0.00000000E+0
153	02/09/2022	16:28:56.901	0.00000000E+0	4.18776755E-1	5.00000000E+0	4.44076036E-1	0.00000000E+0
154	02/09/2022	16:28:58.295	0.00000000E+0	6.28165133E-1	5.00000000E+0	4.47588373E-1	0.00000000E+0
155	02/09/2022	16:28:59.754	0.00000000E+0	8.37937005E-1	5.00000000E+0	4.50518316E-1	0.00000000E+0
156	02/09/2022	16:29:01.155	0.00000000E+0	1.04732538E+0	5.00000000E+0	4.46624481E-1	0.00000000E+0
157	02/09/2022	16:29:02.607	0.00000000E+0	1.25671376E+0	5.00000000E+0	4.50060652E-1	0.00000000E+0
158	02/09/2022	16:29:04.118	0.00000000E+0	1.46610214E+0	5.00000000E+0	4.51287625E-1	0.00000000E+0
159	02/09/2022	16:29:05.503	0.00000000E+0	1.67549052E+0	5.00000000E+0	4.49746201E-1	0.00000000E+0
160	02/09/2022	16:29:07.021	0.00000000E+0	1.88487889E+0	5.00000000E+0	4.49780851E-1	0.00000000E+0
161	02/09/2022	16:29:08.402	0.00000000E+0	2.09426727E+0	5.00000000E+0	4.43594710E-1	0.00000000E+0
162	02/09/2022	16:29:09.791	0.00000000E+0	2.30365565E+0	5.00000000E+0	4.43065615E-1	0.00000000E+0
163	02/09/2022	16:29:11.288	0.00000000E+0	2.51342752E+0	5.00000000E+0	4.49781039E-1	0.00000000E+0
164	02/09/2022	16:29:12.680	0.00000000E+0	2.72281590E+0	5.00000000E+0	4.47174863E-1	0.00000000E+0
165	02/09/2022	16:29:14.142	0.00000000E+0	2.93220428E+0	5.00000000E+0	4.44828543E-1	0.00000000E+0
166	02/09/2022	16:29:15.659	0.00000000E+0	3.14159265E+0	5.00000000E+0	4.51092013E-1	0.00000000E+0
167	02/09/2022	16:29:17.033	0.00000000E+0	3.35098103E+0	5.00000000E+0	4.50338491E-1	0.00000000E+0
168	02/09/2022	16:29:18.598	0.00000000E+0	3.56036941E+0	5.00000000E+0	4.50798237E-1	0.00000000E+0
169	02/09/2022	16:29:19.998	0.00000000E+0	3.76975779E+0	5.00000000E+0	4.45346933E-1	0.00000000E+0
170	02/09/2022	16:29:21.368	0.00000000E+0	3.97952966E+0	5.00000000E+0	4.47502338E-1	0.00000000E+0
171	02/09/2022	16:29:22.853	0.00000000E+0	4.18891804E+0	5.00000000E+0	4.54366895E-1	0.00000000E+0
172	02/09/2022	16:29:24.238	0.00000000E+0	4.39830641E+0	5.00000000E+0	4.49006427E-1	0.00000000E+0
173	02/09/2022	16:29:25.758	0.00000000E+0	4.60769479E+0	5.00000000E+0	4.52694746E-1	0.00000000E+0
174	02/09/2022	16:29:27.197	0.00000000E+0	4.81708317E+0	5.00000000E+0	4.45626453E-1	0.00000000E+0
175	02/09/2022	16:29:28.573	0.00000000E+0	5.02647155E+0	5.00000000E+0	4.48641211E-1	0.00000000E+0
176	02/09/2022	16:29:30.044	0.00000000E+0	5.23585992E+0	5.00000000E+0	4.48530255E-1	0.00000000E+0
177	02/09/2022	16:29:31.445	0.00000000E+0	5.44524830E+0	5.00000000E+0	4.43943474E-1	0.00000000E+0
178	02/09/2022	16:29:32.820	0.00000000E+0	5.65502017E+0	5.00000000E+0	4.52815802E-1	0.00000000E+0
179	02/09/2022	16:29:34.331	0.00000000E+0	5.86440855E+0	5.00000000E+0	4.50579573E-1	0.00000000E+0
180	02/09/2022	16:29:35.728	0.00000000E+0	6.07379693E+0	5.00000000E+0	4.52331370E-1	0.00000000E+0
181	02/09/2022	16:29:37.250	0.00000000E+0	6.28318531E+0	5.00000000E+0	4.46103945E-1	0.00000000E+0
182	02/09/2022	16:29:38.640	0.00000000E+0	6.49257368E+0	5.00000000E+0	4.53249567E-1	0.00000000E+0
183	02/09/2022	16:29:40.028	0.00000000E+0	6.70196206E+0	5.00000000E+0	4.44685016E-1	0.00000000E+0
184	02/09/2022	16:29:41.577	0.00000000E+0	6.91135044E+0	5.00000000E+0	4.45998573E-1	0.00000000E+0
185	02/09/2022	16:29:42.978	0.00000000E+0	7.12112231E+0	5.00000000E+0	4.48023754E-1	0.00000000E+0
186	02/09/2022	16:29:44.440	0.00000000E+0	7.33051069E+0	5.00000000E+0	4.46109855E-1	0.00000000E+0
187	02/09/2022	16:29:45.919	0.00000000E+0	7.53989907E+0	5.00000000E+0	4.50671313E-1	0.00000000E+0
188	02/09/2022	16:29:47.303	0.00000000E+0	7.74928745E+0	5.00000000E+0	4.50789168E-1	0.00000000E+0
189	02/09/2022	16:29:48.825	0.00000000E+0	7.95867582E+0	5.00000000E+0	4.50412845E-1	0.00000000E+0
190	02/09/2022	16:29:50.225	0.00000000E+0	8.16806420E+0	5.00000000E+0	4.49140782E-1	0.00000000E+0
191	02/09/2022	16:29:51.671	0.00000000E+0	8.37745258E+0	5.00000000E+0	4.50340536E-1	0.00000000E+0
192	02/09/2022	16:29:53.186	0.00000000E+0	8.58684096E+0	5.00000000E+0	4.45473521E-1	0.00000000E+0
193	02/09/2022	16:29:54.575	0.00000000E+0	8.79661283E+0	5.00000000E+0	4.53084883E-1	0.00000000E+0
194	02/09/2022	16:29:56.124	0.00000000E+0	9.00600121E+0	5.00000000E+0	4.49627822E-1	0.00000000E+0
195	02/09/2022	16:29:57.567	0.00000000E+0	9.21538958E+0	5.00000000E+0	4.45025217E-1	0.00000000E+0
196	02/09/2022	16:29:58.932	0.00000000E+0	9.42477796E+0	5.00000000E+0	4.47710272E-1	0.00000000E+0
197	02/09/2022	16:30:00.489	0.00000000E+0	9.63416634E+0	5.00000000E+0	4.52859629E-1	0.00000000E+0
198	02/09/2022	16:30:01.876	0.00000000E+0	9.84355472E+0	5.00000000E+0	4.40910272E-1	0.00000000E+0
199	02/09/2022	16:30:03.336	0.00000000E+0	1.00529431E+1	5.00000000E+0	4.48209166E-1	0.00000000E+0
200	02/09/2022	16:30:04.839	0.00000000E+0	1.02627150E+1	5.00000000E+0	4.45746250E-1	0.00000000E+0
201	02/09/2022	16:30:06.246	0.00000000E+0	1.04721033E+1	5.00000000E+0	4.52317944E-1	0.00000000E+0
202	02/09/2022	16:30:07.700	0.00000000E+0	1.06814917E+1	5.00000000E+0	4.46124700E-1	0.00000000E+0
203	02/09/2022	16:30:09.097	0.00000000E+0	1.08908801E+1	5.00000000E+0	4.53378259E-1	0.00000000E+0
204	02/09/2022	16:30:10.488	0.00000000E+0	1.11002685E+1	5.00000000E+0	4.46548302E-1	0.00000000E+0
205	02/09/2022	16:30:12.050	0.00000000E+0	1.13096569E+1	5.00000000E+0	4.52174932E-1	0.00000000E+0
206	02/09/2022	16:30:13.417	0.00000000E+0	1.15190452E+1	5.00000000E+0	4.46908449E-1	0.00000000E+0
207	02/09/2022	16:30:14.866	0.00000000E+0	1.17284336E+1	5.00000000E+0	4.45434657E-1	0.00000000E+0
208	02/09/2022	16:30:16.212	0.00000000E+0	1.19382055E+1	5.00000000E+0	4.44369808E-1	0.00000000E+0
209	02/09/2022	16:30:17.593	0.00000000E+0	1.21475939E+1	5.00000000E+0	4.48461271E-1	0.00000000E+0
210	02/09/2022	16:30:19.148	0.00000000E+0	1.23569822E+1	5.00000000E+0	4.49100002E-1	0.00000000E+0
211	02/09/2022	16:30:20.547	0.00000000E+0	1.25663706E+1	5.00000000E+0	4.42270233E-1	0.00000000E+0
212	02/09/2022	16:30:21.925	0.00000000E+0	1.27757590E+1	5.00000000E+0	4.52353955E-1	0.00000000E+0
213	02/09/2022	16:30:23.495	0.00000000E+0	1.29851474E+1	5.00000000E+0	4.52897770E-1	0.00000000E+0
214	02/09/2022	16:30:24.884	0.00000000E+0	1.31945357E+1	5.00000000E+0	4.45593133E-1	0.00000000E+0
215	02/09/2022	16:30:26.406	0.00000000E+0	1.34043076E+1	5.00000000E+0	4.53310244E-1	0.00000000E+0
216	02/09/2022	16:30:27.782	0.00000000E+0	1.36136960E+1	5.00000000E+0	4.47155976E-1	0.00000000E+0
217	02/09/2022	16:30:29.156	0.00000000E+0	1.38230844E+1	5.00000000E+0	4.53628475E-1	0.00000000E+0
218	02/09/2022	16:30:30.658	0.00000000E+0	1.40324728E+1	5.00000000E+0	4.48138387E-1	0.00000000E+0
219	02/09/2022	16:30:32.064	0.00000000E+0	1.42418611E+1	5.00000000E+0	4.53079667E-1	0.00000000E+0
220	02/09/2022	16:30:33.506	0.00000000E+0	1.44512495E+1	5.00000000E+0	4.52554065E-1	0.00000000E+0
221	02/09/2022	16:30:34.978	0.00000000E+0	1.46606379E+1	5.00000000E+0	4.49188775E-1	0.00000000E+0
222	02/09/2022	16:30:36.414	0.00000000E+0	1.48700263E+1	5.00000000E+0	4.43848786E-1	0.00000000E+0
223	02/09/2022	16:30:37.906	0.00000000E+0	1.50797981E+1	5.00000000E+0	4.47002389E-1	0.00000000E+0
224	02/09/2022	16:30:39.291	0.00000000E+0	1.52891865E+1	5.00000000E+0	4.48670713E-1	0.00000000E+0
225	02/09/2022	16:30:40.693	0.00000000E+0	1.54985749E+1	5.00000000E+0	4.50554035E-1	0.00000000E+0
226	02/09/2022	16:30:42.199	0.00000000E+0	1.57079633E+1	5.00000000E+0	4.50097275E-1	0.00000000E+0
227	02/09/2022	16:30:43.582	0.00000000E+0	1.59173516E+1	5.00000000E+0	4.49167050E-1	0.00000000E+0
228	02/09/2022	16:30:45.094	0.00000000E+0	1.61267400E+1	5.00000000E+0	4.44303002E-1	0.00000000E+0
229	02/09/2022	16:30:46.498	0.00000000E+0	1.63361284E+1	5.00000000E+0	4.46561539E-1	0.00000000E+0
230	02/09/2022	16:30:47.877	0.00000000E+0	1.65459003E+1	5.00000000E+0	4.49412551E-1	0.00000000E+0
231	02/09/2022	16:30:49.380	0.00000000E+0	1.67552887E+1	5.00000000E+0	4.50002709E-1	0.00000000E+0
232	02/09/2022	16:30:50.767	0.00000000E+0	1.69646770E+1	5.00000000E+0	4.51982000E-1	0.00000000E+0
233	02/09/2022	16:30:52.156	0.00000000E+0	1.71740654E+1	5.00000000E+0	4.46365122E-1	0.00000000E+0
234	02/09/2022	16:30:53.662	0.00000000E+0	1.73834538E+1	5.00000000E+0	4.52222707E-1	0.00000000E+0
235	02/09/2022	16:30:55.051	0.00000000E+0	1.75928422E+1	5.00000000E+0	4.42024401E-1	0.00000000E+0
236	02/09/2022	16:30:56.502	0.00000000E+0	1.78022305E+1	5.00000000E+0	4.54804951E-1	0.00000000E+0
237	02/09/2022	16:30:57.904	0.00000000E+0	1.80116189E+1	5.00000000E+0	4.47118485E-1	0.00000000E+0
238	02/09/2022	16:30:59.289	0.00000000E+0	1.82213908E+1	5.00000000E+0	4.46916835E-1	0.00000000E+0
239	02/09/2022	16:31:00.806	0.00000000E+0	1.84307792E+1	5.00000000E+0	4.51598859E-1	0.00000000E+0
240	02/09/2022	16:31:02.218	0.00000000E+0	1.86401675E+1	5.00000000E+0	4.48013504E-1	0.00000000E+0
241	02/09/2022	16:31:03.607	0.00000000E+0	1.88495559E+1	5.00000000E+0	4.45673711E-1	0.00000000E+0
242	02/09/2022	16:31:05.089	0.00000000E+0	1.90589443E+1	5.00000000E+0	4.51985756E-1	0.00000000E+0
243	02/09/2022	16:31:06.487	0.00000000E+0	1.92683327E+1	5.00000000E+0	4.50325213E-1	0.00000000E+0
244	02/09/2022	16:31:07.959	0.00000000E+0	1.94777211E+1	5.00000000E+0	4.52502866E-1	0.00000000E+0
245	02/09/2022	16:31:09.344	0.00000000E+0	1.96874929E+1	5.00000000E+0	4.53256435E-1	0.00000000E+0
246	02/09/2022	16:31:10.728	0.00000000E+0	1.98968813E+1	5.00000000E+0	4.42649586E-1	0.00000000E+0
247	02/09/2022	16:31:12.283	0.00000000E+0	2.01062697E+1	5.00000000E+0	4.49474705E-1	0.00000000E+0
248	02/09/2022	16:31:13.669	0.00000000E+0	2.03156581E+1	5.00000000E+0	4.54919383E-1	0.00000000E+0
249	02/09/2022	16:31:15.193	0.00000000E+0	2.05250464E+1	5.00000000E+0	4.51101142E-1	0.00000000E+0
250	02/09/2022	16:31:16.591	0.00000000E+0	2.07344348E+1	5.00000000E+0	4.51289623E-1	0.00000000E+0
251	02/09/2022	16:31:17.984	0.00000000E+0	2.09438232E+1	5.00000000E+0	4.45555867E-1	0.00000000E+0
252	02/09/2022	16:31:19.531	0.00000000E+0	2.11532116E+1	5.00000000E+0	4.53190739E-1	0.00000000E+0
253	02/09/2022	16:31:20.907	0.00000000E+0	2.13629834E+1	5.00000000E+0	4.50424869E-1	0.00000000E+0
254	02/09/2022	16:31:22.369	0.00000000E+0	2.15723718E+1	5.00000000E+0	4.49251709E-1	0.00000000E+0
255	02/09/2022	16:31:23.874	0.00000000E+0	2.17817602E+1	5.00000000E+0	4.37005458E-1	0.00000000E+0
256	02/09/2022	16:31:25.241	0.00000000E+0	2.19911486E+1	5.00000000E+0	4.50839557E-1	0.00000000E+0
257	02/09/2022	16:31:26.733	0.00000000E+0	2.22005370E+1	5.00000000E+0	4.45586208E-1	0.00000000E+0
258	02/09/2022	16:31:28.140	0.00000000E+0	2.24099253E+1	5.00000000E+0	4.47588092E-1	0.00000000E+0
259	02/09/2022	16:31:29.538	0.00000000E+0	2.26193137E+1	5.00000000E+0	4.46356248E-1	0.00000000E+0
260	02/09/2022	16:31:31.102	0.00000000E+0	2.28290856E+1	5.00000000E+0	4.48206705E-1	0.00000000E+0
261	02/09/2022	16:31:32.488	0.00000000E+0	2.30384740E+1	5.00000000E+0	4.45978512E-1	0.00000000E+0
262	02/09/2022	16:31:33.892	0.00000000E+0	2.32478623E+1	5.00000000E+0	4.46482068E-1	0.00000000E+0
263	02/09/2022	16:31:35.348	0.00000000E+0	2.34572507E+1	5.00000000E+0	4.43395446E-1	0.00000000E+0
264	02/09/2022	16:31:36.754	0.00000000E+0	2.36666391E+1	5.00000000E+0	4.44096338E-1	0.00000000E+0
265	02/09/2022	16:31:38.293	0.00000000E+0	2.38760275E+1	5.00000000E+0	4.49903099E-1	0.00000000E+0
266	02/09/2022	16:31:39.690	0.00000000E+0	2.40854158E+1	5.00000000E+0	4.45408106E-1	0.00000000E+0
267	02/09/2022	16:31:41.104	0.00000000E+0	2.42948042E+1	5.00000000E+0	4.48773562E-1	0.00000000E+0
268	02/09/2022	16:31:42.594	0.00000000E+0	2.45045761E+1	5.00000000E+0	4.45542414E-1	0.00000000E+0
269	02/09/2022	16:31:44.003	0.00000000E+0	2.47139645E+1	5.00000000E+0	4.51418908E-1	0.00000000E+0
270	02/09/2022	16:31:45.519	0.00000000E+0	2.49233529E+1	5.00000000E+0	4.52456518E-1	0.00000000E+0
271	02/09/2022	16:31:46.905	0.00000000E+0	2.51327412E+1	5.00000000E+0	4.44769298E-1	0.00000000E+0
272	02/09/2022	16:31:48.283	0.00000000E+0	2.53421296E+1	5.00000000E+0	4.49606175E-1	0.00000000E+0
273	02/09/2022	16:31:49.838	0.00000000E+0	2.55515180E+1	5.00000000E+0	4.47586444E-1	0.00000000E+0
274	02/09/2022	16:31:51.241	0.00000000E+0	2.57609064E+1	5.00000000E+0	4.44285764E-1	0.00000000E+0
275	02/09/2022	16:31:52.632	0.00000000E+0	2.59706782E+1	5.00000000E+0	4.54282117E-1	0.00000000E+0
276	02/09/2022	16:31:54.141	0.00000000E+0	2.61800666E+1	5.00000000E+0	4.38823756E-1	0.00000000E+0
277	02/09/2022	16:31:55.517	0.00000000E+0	2.63894550E+1	5.00000000E+0	4.43060219E-1	0.00000000E+0
278	02/09/2022	16:31:57.054	0.00000000E+0	2.65988434E+1	5.00000000E+0	4.43001313E-1	0.00000000E+0
279	02/09/2022	16:31:58.425	0.00000000E+0	2.68082317E+1	5.00000000E+0	4.50821238E-1	0.00000000E+0
280	02/09/2022	16:31:59.819	0.00000000E+0	2.70176201E+1	5.00000000E+0	4.44539832E-1	0.00000000E+0
281	02/09/2022	16:32:01.286	0.00000000E+0	2.72270085E+1	5.00000000E+0	4.50941119E-1	0.00000000E+0
282	02/09/2022	16:32:02.675	0.00000000E+0	2.74363969E+1	5.00000000E+0	4.49005584E-1	0.00000000E+0
283	02/09/2022	16:32:04.129	0.00000000E+0	2.76461687E+1	5.00000000E+0	4.51453437E-1	0.00000000E+0
284	02/09/2022	16:32:05.591	0.00000000E+0	2.78555571E+1	5.00000000E+0	4.53160569E-1	0.00000000E+0
285	02/09/2022	16:32:06.979	0.00000000E+0	2.80649455E+1	5.00000000E+0	4.49831350E-1	0.00000000E+0
286	02/09/2022	16:32:08.467	0.00000000E+0	2.82743339E+1	5.00000000E+0	4.44494333E-1	0.00000000E+0
287	02/09/2022	16:32:09.861	0.00000000E+0	2.84837223E+1	5.00000000E+0	4.50400234E-1	0.00000000E+0
288	02/09/2022	16:32:11.277	0.00000000E+0	2.86931106E+1	5.00000000E+0	4.41814337E-1	0.00000000E+0
289	02/09/2022	16:32:12.822	0.00000000E+0	2.89024990E+1	5.00000000E+0	4.52305500E-1	0.00000000E+0
290	02/09/2022	16:32:14.212	0.00000000E+0	2.91122709E+1	5.00000000E+0	4.50794274E-1	0.00000000E+0
291	02/09/2022	16:32:15.656	0.00000000E+0	2.93216593E+1	5.00000000E+0	4.45573569E-1	0.00000000E+0
292	02/09/2022	16:32:17.039	0.00000000E+0	2.95310476E+1	5.00000000E+0	4.42491898E-1	0.00000000E+0
293	02/09/2022	16:32:18.438	0.00000000E+0	2.97404360E+1	5.00000000E+0	4.50145477E-1	0.00000000E+0
294	02/09/2022	16:32:19.971	0.00000000E+0	2.99498244E+1	5.00000000E+0	4.43705179E-1	0.00000000E+0
295	02/09/2022	16:32:21.371	0.00000000E+0	3.01592128E+1	5.00000000E+0	4.51949077E-1	0.00000000E+0
296	02/09/2022	16:32:22.819	0.00000000E+0	3.03686012E+1	5.00000000E+0	4.50358467E-1	0.00000000E+0
297	02/09/2022	16:32:24.313	0.00000000E+0	3.05779895E+1	5.00000000E+0	4.47005955E-1	0.00000000E+0
298	02/09/2022	16:32:25.708	0.00000000E+0	3.07877614E+1	5.00000000E+0	4.48488861E-1	0.00000000E+0
299	02/09/2022	16:32:27.189	0.00000000E+0	3.09971498E+1	5.00000000E+0	4.47935665E-1	0.00000000E+0
300	02/09/2022	16:32:28.566	0.00000000E+0	3.12065382E+1	5.00000000E+0	4.46245423E-1	0.00000000E+0
301	02/09/2022	16:32:30.001	0.00000000E+0	3.14159265E+1	5.00000000E+0	4.47927000E-1	0.00000000E+0
