#Iteration	Date	Time	Chirp	Phase	RamanAxis	RatioMean	RatioStdDev
1	17/03/2023	14:33:28.222	0.00000000E+0	-6.28318531E+0	4.00000000E+0	4.09015272E-1	0.00000000E+0
3	17/03/2023	14:33:31.238	0.00000000E+0	-6.17849112E+0	4.00000000E+0	4.00853863E-1	0.00000000E+0
5	17/03/2023	14:33:34.427	0.00000000E+0	-6.07379693E+0	4.00000000E+0	4.51882750E-1	0.00000000E+0
7	17/03/2023	14:33:37.497	0.00000000E+0	-5.96910274E+0	4.00000000E+0	4.04547896E-1	0.00000000E+0
9	17/03/2023	14:33:40.583	0.00000000E+0	-5.86440855E+0	4.00000000E+0	3.05692862E-1	0.00000000E+0
11	17/03/2023	14:33:43.754	0.00000000E+0	-5.75971436E+0	4.00000000E+0	3.89773043E-1	0.00000000E+0
13	17/03/2023	14:33:46.874	0.00000000E+0	-5.65502017E+0	4.00000000E+0	4.29405264E-1	0.00000000E+0
15	17/03/2023	14:33:49.947	0.00000000E+0	-5.55032599E+0	4.00000000E+0	4.07603414E-1	0.00000000E+0
17	17/03/2023	14:33:53.113	0.00000000E+0	-5.44524830E+0	4.00000000E+0	5.96099201E-1	0.00000000E+0
19	17/03/2023	14:33:56.208	0.00000000E+0	-5.34055411E+0	4.00000000E+0	4.88180383E-1	0.00000000E+0
21	17/03/2023	14:33:59.375	0.00000000E+0	-5.23585992E+0	4.00000000E+0	5.36671065E-1	0.00000000E+0
23	17/03/2023	14:34:02.495	0.00000000E+0	-5.13116574E+0	4.00000000E+0	4.46541325E-1	0.00000000E+0
25	17/03/2023	14:34:05.642	0.00000000E+0	-5.02647155E+0	4.00000000E+0	2.87343066E-1	0.00000000E+0
27	17/03/2023	14:34:08.764	0.00000000E+0	-4.92177736E+0	4.00000000E+0	6.15440963E-1	0.00000000E+0
29	17/03/2023	14:34:11.997	0.00000000E+0	-4.81708317E+0	4.00000000E+0	3.30123290E-1	0.00000000E+0
31	17/03/2023	14:34:15.136	0.00000000E+0	-4.71238898E+0	4.00000000E+0	5.15026502E-1	0.00000000E+0
33	17/03/2023	14:34:18.204	0.00000000E+0	-4.60769479E+0	4.00000000E+0	4.69168916E-1	0.00000000E+0
35	17/03/2023	14:34:21.317	0.00000000E+0	-4.50300060E+0	4.00000000E+0	4.06812630E-1	0.00000000E+0
37	17/03/2023	14:34:24.450	0.00000000E+0	-4.39830641E+0	4.00000000E+0	6.14691846E-1	0.00000000E+0
39	17/03/2023	14:34:27.533	0.00000000E+0	-4.29361223E+0	4.00000000E+0	6.21984475E-1	0.00000000E+0
41	17/03/2023	14:34:30.629	0.00000000E+0	-4.18891804E+0	4.00000000E+0	5.83062703E-1	0.00000000E+0
43	17/03/2023	14:34:33.724	0.00000000E+0	-4.08422385E+0	4.00000000E+0	5.76936649E-1	0.00000000E+0
45	17/03/2023	14:34:36.894	0.00000000E+0	-3.97952966E+0	4.00000000E+0	6.03952900E-1	0.00000000E+0
47	17/03/2023	14:34:39.986	0.00000000E+0	-3.87445198E+0	4.00000000E+0	6.63683850E-1	0.00000000E+0
49	17/03/2023	14:34:43.091	0.00000000E+0	-3.76975779E+0	4.00000000E+0	3.61623217E-1	0.00000000E+0
51	17/03/2023	14:34:46.174	0.00000000E+0	-3.66506360E+0	4.00000000E+0	3.64079273E-1	0.00000000E+0
53	17/03/2023	14:34:49.393	0.00000000E+0	-3.56036941E+0	4.00000000E+0	5.29736296E-1	0.00000000E+0
55	17/03/2023	14:34:52.518	0.00000000E+0	-3.45567522E+0	4.00000000E+0	3.25970644E-1	0.00000000E+0
57	17/03/2023	14:34:55.775	0.00000000E+0	-3.35098103E+0	4.00000000E+0	4.21233138E-1	0.00000000E+0
59	17/03/2023	14:34:58.880	0.00000000E+0	-3.24628684E+0	4.00000000E+0	6.26286953E-1	0.00000000E+0
61	17/03/2023	14:35:02.039	0.00000000E+0	-3.14159265E+0	4.00000000E+0	4.88001014E-1	0.00000000E+0
63	17/03/2023	14:35:05.214	0.00000000E+0	-3.03689846E+0	4.00000000E+0	6.12856919E-1	0.00000000E+0
65	17/03/2023	14:35:08.378	0.00000000E+0	-2.93220428E+0	4.00000000E+0	5.96996266E-1	0.00000000E+0
67	17/03/2023	14:35:11.470	0.00000000E+0	-2.82751009E+0	4.00000000E+0	6.24509380E-1	0.00000000E+0
69	17/03/2023	14:35:14.571	0.00000000E+0	-2.72281590E+0	4.00000000E+0	6.03052397E-1	0.00000000E+0
71	17/03/2023	14:35:17.607	0.00000000E+0	-2.61812171E+0	4.00000000E+0	6.09646008E-1	0.00000000E+0
73	17/03/2023	14:35:20.754	0.00000000E+0	-2.51342752E+0	4.00000000E+0	3.47232595E-1	0.00000000E+0
75	17/03/2023	14:35:23.904	0.00000000E+0	-2.40873333E+0	4.00000000E+0	3.16915914E-1	0.00000000E+0
77	17/03/2023	14:35:27.133	0.00000000E+0	-2.30365565E+0	4.00000000E+0	4.51633214E-1	0.00000000E+0
79	17/03/2023	14:35:30.213	0.00000000E+0	-2.19896146E+0	4.00000000E+0	3.40565859E-1	0.00000000E+0
81	17/03/2023	14:35:33.288	0.00000000E+0	-2.09426727E+0	4.00000000E+0	5.69114836E-1	0.00000000E+0
83	17/03/2023	14:35:36.463	0.00000000E+0	-1.98957308E+0	4.00000000E+0	3.84284600E-1	0.00000000E+0
85	17/03/2023	14:35:39.560	0.00000000E+0	-1.88487889E+0	4.00000000E+0	5.73484783E-1	0.00000000E+0
87	17/03/2023	14:35:43.037	0.00000000E+0	-1.78018470E+0	4.00000000E+0	6.31871021E-1	0.00000000E+0
89	17/03/2023	14:35:46.230	0.00000000E+0	-1.67549052E+0	4.00000000E+0	6.23729865E-1	0.00000000E+0
91	17/03/2023	14:35:49.395	0.00000000E+0	-1.57079633E+0	4.00000000E+0	3.36994426E-1	0.00000000E+0
93	17/03/2023	14:35:52.521	0.00000000E+0	-1.46610214E+0	4.00000000E+0	4.23712107E-1	0.00000000E+0
95	17/03/2023	14:35:55.666	0.00000000E+0	-1.36140795E+0	4.00000000E+0	5.64793321E-1	0.00000000E+0
97	17/03/2023	14:35:58.679	0.00000000E+0	-1.25671376E+0	4.00000000E+0	5.95356256E-1	0.00000000E+0
99	17/03/2023	14:36:01.804	0.00000000E+0	-1.15201957E+0	4.00000000E+0	3.23836532E-1	0.00000000E+0
101	17/03/2023	14:36:04.934	0.00000000E+0	-1.04732538E+0	4.00000000E+0	5.05756510E-1	0.00000000E+0
103	17/03/2023	14:36:07.964	0.00000000E+0	-9.42631194E-1	4.00000000E+0	3.96106949E-1	0.00000000E+0
105	17/03/2023	14:36:11.109	0.00000000E+0	-8.37937005E-1	4.00000000E+0	4.30649756E-1	0.00000000E+0
107	17/03/2023	14:36:14.246	0.00000000E+0	-7.32859321E-1	4.00000000E+0	3.48544905E-1	0.00000000E+0
109	17/03/2023	14:36:17.328	0.00000000E+0	-6.28165133E-1	4.00000000E+0	3.44173878E-1	0.00000000E+0
111	17/03/2023	14:36:20.419	0.00000000E+0	-5.23470944E-1	4.00000000E+0	5.92936731E-1	0.00000000E+0
113	17/03/2023	14:36:23.558	0.00000000E+0	-4.18776755E-1	4.00000000E+0	3.02733045E-1	0.00000000E+0
115	17/03/2023	14:36:26.669	0.00000000E+0	-3.14082566E-1	4.00000000E+0	4.33516317E-1	0.00000000E+0
117	17/03/2023	14:36:29.771	0.00000000E+0	-2.09388378E-1	4.00000000E+0	6.63476613E-1	0.00000000E+0
119	17/03/2023	14:36:32.886	0.00000000E+0	-1.04694189E-1	4.00000000E+0	4.86198590E-1	0.00000000E+0
121	17/03/2023	14:36:35.945	0.00000000E+0	0.00000000E+0	4.00000000E+0	4.25692549E-1	0.00000000E+0
123	17/03/2023	14:36:39.090	0.00000000E+0	1.04694189E-1	4.00000000E+0	4.27989470E-1	0.00000000E+0
125	17/03/2023	14:36:42.193	0.00000000E+0	2.09388378E-1	4.00000000E+0	6.44565149E-1	0.00000000E+0
127	17/03/2023	14:36:45.296	0.00000000E+0	3.14082566E-1	4.00000000E+0	5.85165637E-1	0.00000000E+0
129	17/03/2023	14:36:48.454	0.00000000E+0	4.18776755E-1	4.00000000E+0	4.50698923E-1	0.00000000E+0
131	17/03/2023	14:36:51.538	0.00000000E+0	5.23470944E-1	4.00000000E+0	5.13190790E-1	0.00000000E+0
133	17/03/2023	14:36:54.654	0.00000000E+0	6.28165133E-1	4.00000000E+0	3.25642889E-1	0.00000000E+0
135	17/03/2023	14:36:57.744	0.00000000E+0	7.32859321E-1	4.00000000E+0	5.95040000E-1	0.00000000E+0
137	17/03/2023	14:37:00.843	0.00000000E+0	8.37937005E-1	4.00000000E+0	3.80681090E-1	0.00000000E+0
139	17/03/2023	14:37:03.955	0.00000000E+0	9.42631194E-1	4.00000000E+0	5.04093342E-1	0.00000000E+0
141	17/03/2023	14:37:07.051	0.00000000E+0	1.04732538E+0	4.00000000E+0	3.37356461E-1	0.00000000E+0
143	17/03/2023	14:37:10.254	0.00000000E+0	1.15201957E+0	4.00000000E+0	6.26177876E-1	0.00000000E+0
145	17/03/2023	14:37:13.428	0.00000000E+0	1.25671376E+0	4.00000000E+0	3.40102171E-1	0.00000000E+0
147	17/03/2023	14:37:16.551	0.00000000E+0	1.36140795E+0	4.00000000E+0	6.71404918E-1	0.00000000E+0
149	17/03/2023	14:37:19.613	0.00000000E+0	1.46610214E+0	4.00000000E+0	4.51528295E-1	0.00000000E+0
151	17/03/2023	14:37:22.784	0.00000000E+0	1.57079633E+0	4.00000000E+0	6.52275394E-1	0.00000000E+0
153	17/03/2023	14:37:25.838	0.00000000E+0	1.67549052E+0	4.00000000E+0	4.25592776E-1	0.00000000E+0
155	17/03/2023	14:37:28.967	0.00000000E+0	1.78018470E+0	4.00000000E+0	6.01747404E-1	0.00000000E+0
157	17/03/2023	14:37:32.000	0.00000000E+0	1.88487889E+0	4.00000000E+0	4.90285754E-1	0.00000000E+0
159	17/03/2023	14:37:35.154	0.00000000E+0	1.98957308E+0	4.00000000E+0	3.59654059E-1	0.00000000E+0
161	17/03/2023	14:37:38.296	0.00000000E+0	2.09426727E+0	4.00000000E+0	3.51347549E-1	0.00000000E+0
163	17/03/2023	14:37:41.497	0.00000000E+0	2.19896146E+0	4.00000000E+0	3.29728774E-1	0.00000000E+0
165	17/03/2023	14:37:44.652	0.00000000E+0	2.30365565E+0	4.00000000E+0	4.55347786E-1	0.00000000E+0
167	17/03/2023	14:37:47.763	0.00000000E+0	2.40873333E+0	4.00000000E+0	3.41290171E-1	0.00000000E+0
169	17/03/2023	14:37:50.937	0.00000000E+0	2.51342752E+0	4.00000000E+0	5.68363543E-1	0.00000000E+0
171	17/03/2023	14:37:54.116	0.00000000E+0	2.61812171E+0	4.00000000E+0	3.40524419E-1	0.00000000E+0
173	17/03/2023	14:37:57.228	0.00000000E+0	2.72281590E+0	4.00000000E+0	3.41128384E-1	0.00000000E+0
175	17/03/2023	14:38:00.298	0.00000000E+0	2.82751009E+0	4.00000000E+0	3.60095031E-1	0.00000000E+0
177	17/03/2023	14:38:03.405	0.00000000E+0	2.93220428E+0	4.00000000E+0	4.79140816E-1	0.00000000E+0
179	17/03/2023	14:38:06.478	0.00000000E+0	3.03689846E+0	4.00000000E+0	3.41894179E-1	0.00000000E+0
181	17/03/2023	14:38:09.650	0.00000000E+0	3.14159265E+0	4.00000000E+0	3.83243717E-1	0.00000000E+0
183	17/03/2023	14:38:12.830	0.00000000E+0	3.24628684E+0	4.00000000E+0	3.50537009E-1	0.00000000E+0
185	17/03/2023	14:38:15.956	0.00000000E+0	3.35098103E+0	4.00000000E+0	4.61562589E-1	0.00000000E+0
187	17/03/2023	14:38:19.176	0.00000000E+0	3.45567522E+0	4.00000000E+0	5.64271188E-1	0.00000000E+0
189	17/03/2023	14:38:22.351	0.00000000E+0	3.56036941E+0	4.00000000E+0	4.18179088E-1	0.00000000E+0
191	17/03/2023	14:38:25.525	0.00000000E+0	3.66506360E+0	4.00000000E+0	6.37053299E-1	0.00000000E+0
193	17/03/2023	14:38:28.543	0.00000000E+0	3.76975779E+0	4.00000000E+0	4.19027302E-1	0.00000000E+0
195	17/03/2023	14:38:31.625	0.00000000E+0	3.87445198E+0	4.00000000E+0	6.32107127E-1	0.00000000E+0
197	17/03/2023	14:38:34.605	0.00000000E+0	3.97952966E+0	4.00000000E+0	5.08448213E-1	0.00000000E+0
199	17/03/2023	14:38:37.712	0.00000000E+0	4.08422385E+0	4.00000000E+0	6.18273993E-1	0.00000000E+0
201	17/03/2023	14:38:40.893	0.00000000E+0	4.18891804E+0	4.00000000E+0	3.67834980E-1	0.00000000E+0
203	17/03/2023	14:38:43.991	0.00000000E+0	4.29361223E+0	4.00000000E+0	6.14229295E-1	0.00000000E+0
205	17/03/2023	14:38:47.082	0.00000000E+0	4.39830641E+0	4.00000000E+0	3.72332647E-1	0.00000000E+0
207	17/03/2023	14:38:50.174	0.00000000E+0	4.50300060E+0	4.00000000E+0	6.13160385E-1	0.00000000E+0
209	17/03/2023	14:38:53.276	0.00000000E+0	4.60769479E+0	4.00000000E+0	5.13641496E-1	0.00000000E+0
211	17/03/2023	14:38:56.439	0.00000000E+0	4.71238898E+0	4.00000000E+0	6.04539380E-1	0.00000000E+0
213	17/03/2023	14:38:59.615	0.00000000E+0	4.81708317E+0	4.00000000E+0	4.01828429E-1	0.00000000E+0
215	17/03/2023	14:39:02.785	0.00000000E+0	4.92177736E+0	4.00000000E+0	6.43823737E-1	0.00000000E+0
217	17/03/2023	14:39:05.960	0.00000000E+0	5.02647155E+0	4.00000000E+0	3.46396264E-1	0.00000000E+0
219	17/03/2023	14:39:09.100	0.00000000E+0	5.13116574E+0	4.00000000E+0	4.51808778E-1	0.00000000E+0
221	17/03/2023	14:39:12.113	0.00000000E+0	5.23585992E+0	4.00000000E+0	5.06817238E-1	0.00000000E+0
223	17/03/2023	14:39:16.150	0.00000000E+0	5.34055411E+0	4.00000000E+0	4.88464486E-1	0.00000000E+0
225	17/03/2023	14:39:20.037	0.00000000E+0	5.44524830E+0	4.00000000E+0	4.21563633E-1	0.00000000E+0
227	17/03/2023	14:39:24.791	0.00000000E+0	5.55032599E+0	4.00000000E+0	6.15107950E-1	0.00000000E+0
229	17/03/2023	14:39:27.943	0.00000000E+0	5.65502017E+0	4.00000000E+0	6.35304900E-1	0.00000000E+0
231	17/03/2023	14:39:31.120	0.00000000E+0	5.75971436E+0	4.00000000E+0	6.11100771E-1	0.00000000E+0
233	17/03/2023	14:39:34.551	0.00000000E+0	5.86440855E+0	4.00000000E+0	3.54994746E-1	0.00000000E+0
235	17/03/2023	14:39:38.881	0.00000000E+0	5.96910274E+0	4.00000000E+0	6.58538200E-1	0.00000000E+0
237	17/03/2023	14:39:42.556	0.00000000E+0	6.07379693E+0	4.00000000E+0	5.99050003E-1	0.00000000E+0
239	17/03/2023	14:39:46.258	0.00000000E+0	6.17849112E+0	4.00000000E+0	5.45696458E-1	0.00000000E+0
241	17/03/2023	14:39:49.546	0.00000000E+0	6.28318531E+0	4.00000000E+0	3.90397708E-1	0.00000000E+0
