#Iteration	Date	Time	STSX	STSY	RotationRateX	RotationRateY	FrCntX	FrCntY	TiptiltCmd1	TiptiltCmd2	TiptiltMonitor1	TiptiltMonitor2
1	17/03/2023	14:33:28.222	0.00000E+0	0.00000E+0	-1.27396E+2	5.45443E-1	0.00000E+0	0.00000E+0	1.94766E+1	1.54720E+1	1.94791E+1	1.54719E+1
2	17/03/2023	14:33:29.730	0.00000E+0	0.00000E+0	4.31122E+1	-3.63604E+0	0.00000E+0	0.00000E+0	2.16774E+1	1.33048E+1	2.16753E+1	1.33031E+1
3	17/03/2023	14:33:31.238	0.00000E+0	0.00000E+0	1.91703E+2	5.25513E-1	0.00000E+0	0.00000E+0	2.39642E+1	1.10254E+1	2.39665E+1	1.10251E+1
4	17/03/2023	14:33:32.758	0.00000E+0	0.00000E+0	-1.85373E+2	-1.95724E+0	0.00000E+0	0.00000E+0	1.86346E+1	1.62890E+1	1.86348E+1	1.62906E+1
5	17/03/2023	14:33:34.427	0.00000E+0	0.00000E+0	9.80563E+1	-3.30406E-1	0.00000E+0	0.00000E+0	2.26149E+1	1.24014E+1	2.26152E+1	1.24021E+1
6	17/03/2023	14:33:35.956	0.00000E+0	0.00000E+0	1.20438E+2	5.26246E-1	0.00000E+0	0.00000E+0	2.32441E+1	1.18173E+1	2.32444E+1	1.18174E+1
7	17/03/2023	14:33:37.497	0.00000E+0	0.00000E+0	-1.75933E+2	2.09329E+0	0.00000E+0	0.00000E+0	1.86797E+1	1.63031E+1	1.86789E+1	1.63017E+1
8	17/03/2023	14:33:39.013	0.00000E+0	0.00000E+0	1.76659E+2	4.08557E+0	0.00000E+0	0.00000E+0	2.38461E+1	1.11559E+1	2.38478E+1	1.11564E+1
9	17/03/2023	14:33:40.583	0.00000E+0	0.00000E+0	-1.62149E+2	-1.82245E+0	0.00000E+0	0.00000E+0	1.89595E+1	1.60037E+1	1.89585E+1	1.60063E+1
10	17/03/2023	14:33:42.142	0.00000E+0	0.00000E+0	5.09586E+1	4.05332E-1	0.00000E+0	0.00000E+0	2.18156E+1	1.31796E+1	2.18129E+1	1.31800E+1
11	17/03/2023	14:33:43.754	0.00000E+0	0.00000E+0	1.70244E+2	8.24830E-1	0.00000E+0	0.00000E+0	2.36587E+1	1.13181E+1	2.36583E+1	1.13185E+1
12	17/03/2023	14:33:45.279	0.00000E+0	0.00000E+0	-2.15219E+2	-1.69832E+0	0.00000E+0	0.00000E+0	1.82182E+1	1.67186E+1	1.82166E+1	1.67177E+1
13	17/03/2023	14:33:46.874	0.00000E+0	0.00000E+0	1.30010E+2	3.65063E+0	0.00000E+0	0.00000E+0	2.27257E+1	1.22324E+1	2.27267E+1	1.22332E+1
14	17/03/2023	14:33:48.438	0.00000E+0	0.00000E+0	1.39605E+2	2.01840E-1	0.00000E+0	0.00000E+0	2.34770E+1	1.15104E+1	2.34769E+1	1.15092E+1
15	17/03/2023	14:33:49.947	0.00000E+0	0.00000E+0	-2.00760E+2	-3.19905E+0	0.00000E+0	0.00000E+0	1.83699E+1	1.65791E+1	1.83690E+1	1.65781E+1
16	17/03/2023	14:33:51.525	0.00000E+0	0.00000E+0	1.91760E+2	9.81439E-1	0.00000E+0	0.00000E+0	2.39238E+1	1.10674E+1	2.39263E+1	1.10681E+1
17	17/03/2023	14:33:53.113	0.00000E+0	0.00000E+0	-1.68717E+2	-8.92590E-1	0.00000E+0	0.00000E+0	1.88823E+1	1.61330E+1	1.88823E+1	1.61328E+1
18	17/03/2023	14:33:54.646	0.00000E+0	0.00000E+0	-1.11001E+2	-2.22199E+0	0.00000E+0	0.00000E+0	1.95450E+1	1.54018E+1	1.95440E+1	1.54026E+1
19	17/03/2023	14:33:56.208	0.00000E+0	0.00000E+0	1.94278E+2	-2.41370E-1	0.00000E+0	0.00000E+0	2.40629E+1	1.09252E+1	2.40615E+1	1.09250E+1
20	17/03/2023	14:33:57.791	0.00000E+0	0.00000E+0	-1.66445E+2	1.55428E+0	0.00000E+0	0.00000E+0	1.89103E+1	1.60023E+1	1.89101E+1	1.60035E+1
21	17/03/2023	14:33:59.375	0.00000E+0	0.00000E+0	-8.46394E+1	2.55721E-1	0.00000E+0	0.00000E+0	1.97623E+1	1.51264E+1	1.97612E+1	1.51261E+1
22	17/03/2023	14:34:00.912	0.00000E+0	0.00000E+0	2.21447E+2	-1.52249E+0	0.00000E+0	0.00000E+0	2.44370E+1	1.05400E+1	2.44360E+1	1.05413E+1
23	17/03/2023	14:34:02.495	0.00000E+0	0.00000E+0	-1.59467E+2	1.98779E+0	0.00000E+0	0.00000E+0	1.90171E+1	1.59009E+1	1.90167E+1	1.59026E+1
24	17/03/2023	14:34:04.048	0.00000E+0	0.00000E+0	-7.76643E+1	-1.75835E+0	0.00000E+0	0.00000E+0	2.00445E+1	1.48779E+1	2.00441E+1	1.48774E+1
25	17/03/2023	14:34:05.642	0.00000E+0	0.00000E+0	2.02159E+2	2.85681E+0	0.00000E+0	0.00000E+0	2.42037E+1	1.08472E+1	2.42048E+1	1.08439E+1
26	17/03/2023	14:34:07.182	0.00000E+0	0.00000E+0	-2.01533E+2	-2.01621E+0	0.00000E+0	0.00000E+0	1.86260E+1	1.62882E+1	1.86282E+1	1.62894E+1
27	17/03/2023	14:34:08.764	0.00000E+0	0.00000E+0	-4.96996E+1	1.32735E+0	0.00000E+0	0.00000E+0	2.02561E+1	1.47113E+1	2.02570E+1	1.47111E+1
28	17/03/2023	14:34:10.406	0.00000E+0	0.00000E+0	1.39937E+2	8.72198E-1	0.00000E+0	0.00000E+0	2.33913E+1	1.16166E+1	2.33912E+1	1.16154E+1
29	17/03/2023	14:34:11.997	0.00000E+0	0.00000E+0	-1.54144E+2	8.69841E-1	0.00000E+0	0.00000E+0	1.90041E+1	1.59226E+1	1.90032E+1	1.59226E+1
30	17/03/2023	14:34:13.584	0.00000E+0	0.00000E+0	1.85577E+2	2.28420E+0	0.00000E+0	0.00000E+0	2.36832E+1	1.12717E+1	2.36823E+1	1.12688E+1
31	17/03/2023	14:34:15.136	0.00000E+0	0.00000E+0	8.07938E+1	1.73205E+0	0.00000E+0	0.00000E+0	2.24781E+1	1.24624E+1	2.24766E+1	1.24613E+1
32	17/03/2023	14:34:16.673	0.00000E+0	0.00000E+0	-1.30863E+2	-1.21899E-1	0.00000E+0	0.00000E+0	1.92892E+1	1.56412E+1	1.92869E+1	1.56424E+1
33	17/03/2023	14:34:18.204	0.00000E+0	0.00000E+0	7.96906E+1	1.69513E+0	0.00000E+0	0.00000E+0	2.21129E+1	1.28387E+1	2.21127E+1	1.28404E+1
34	17/03/2023	14:34:19.773	0.00000E+0	0.00000E+0	1.12615E+2	1.19923E+0	0.00000E+0	0.00000E+0	2.29026E+1	1.20768E+1	2.29045E+1	1.20776E+1
35	17/03/2023	14:34:21.317	0.00000E+0	0.00000E+0	-1.82699E+2	-7.09915E-1	0.00000E+0	0.00000E+0	1.90158E+1	1.59561E+1	1.90157E+1	1.59575E+1
36	17/03/2023	14:34:22.854	0.00000E+0	0.00000E+0	-9.96235E+1	-1.70717E+0	0.00000E+0	0.00000E+0	1.97643E+1	1.51659E+1	1.97623E+1	1.51657E+1
37	17/03/2023	14:34:24.450	0.00000E+0	0.00000E+0	2.34179E+2	-4.02291E+0	0.00000E+0	0.00000E+0	2.46531E+1	1.03305E+1	2.46568E+1	1.03314E+1
38	17/03/2023	14:34:26.003	0.00000E+0	0.00000E+0	-1.68589E+2	-1.64509E+0	0.00000E+0	0.00000E+0	1.91108E+1	1.58631E+1	1.91100E+1	1.58656E+1
39	17/03/2023	14:34:27.533	0.00000E+0	0.00000E+0	-1.12576E+2	8.13744E-1	0.00000E+0	0.00000E+0	1.95883E+1	1.54038E+1	1.95868E+1	1.54044E+1
40	17/03/2023	14:34:29.045	0.00000E+0	0.00000E+0	1.88423E+2	2.04066E+0	0.00000E+0	0.00000E+0	2.40592E+1	1.09736E+1	2.40599E+1	1.09730E+1
41	17/03/2023	14:34:30.629	0.00000E+0	0.00000E+0	-3.54615E+1	7.52140E-2	0.00000E+0	0.00000E+0	2.09704E+1	1.39599E+1	2.09715E+1	1.39602E+1
42	17/03/2023	14:34:32.204	0.00000E+0	0.00000E+0	-6.20255E+1	-1.01447E+0	0.00000E+0	0.00000E+0	2.02966E+1	1.46393E+1	2.02977E+1	1.46399E+1
43	17/03/2023	14:34:33.724	0.00000E+0	0.00000E+0	1.33226E+2	9.53796E-1	0.00000E+0	0.00000E+0	2.32354E+1	1.17956E+1	2.32364E+1	1.17959E+1
44	17/03/2023	14:34:35.288	0.00000E+0	0.00000E+0	4.93162E+1	-1.81980E+0	0.00000E+0	0.00000E+0	2.23714E+1	1.25853E+1	2.23713E+1	1.25852E+1
45	17/03/2023	14:34:36.894	0.00000E+0	0.00000E+0	-1.62596E+2	2.11062E+0	0.00000E+0	0.00000E+0	1.89821E+1	1.59325E+1	1.89825E+1	1.59327E+1
46	17/03/2023	14:34:38.402	0.00000E+0	0.00000E+0	2.00271E+2	1.78454E+0	0.00000E+0	0.00000E+0	2.39156E+1	1.10875E+1	2.39174E+1	1.10881E+1
47	17/03/2023	14:34:39.986	0.00000E+0	0.00000E+0	5.82614E+1	1.32464E+0	0.00000E+0	0.00000E+0	2.24299E+1	1.25187E+1	2.24316E+1	1.25197E+1
48	17/03/2023	14:34:41.559	0.00000E+0	0.00000E+0	-2.55001E+2	-1.42778E+0	0.00000E+0	0.00000E+0	1.76042E+1	1.72694E+1	1.76025E+1	1.72690E+1
49	17/03/2023	14:34:43.091	0.00000E+0	0.00000E+0	1.52960E+2	7.87528E-1	0.00000E+0	0.00000E+0	2.33625E+1	1.16225E+1	2.33623E+1	1.16227E+1
50	17/03/2023	14:34:44.662	0.00000E+0	0.00000E+0	9.05436E+1	-1.54248E+0	0.00000E+0	0.00000E+0	2.28465E+1	1.20742E+1	2.28464E+1	1.20740E+1
51	17/03/2023	14:34:46.174	0.00000E+0	0.00000E+0	-1.93880E+2	-5.95577E-1	0.00000E+0	0.00000E+0	1.84352E+1	1.64900E+1	1.84362E+1	1.64914E+1
52	17/03/2023	14:34:47.791	0.00000E+0	0.00000E+0	2.21022E+2	-6.37206E-2	0.00000E+0	0.00000E+0	2.43544E+1	1.06004E+1	2.43514E+1	1.06007E+1
53	17/03/2023	14:34:49.393	0.00000E+0	0.00000E+0	-2.05134E+2	-1.13171E+0	0.00000E+0	0.00000E+0	1.83846E+1	1.65080E+1	1.83823E+1	1.65090E+1
54	17/03/2023	14:34:50.966	0.00000E+0	0.00000E+0	2.56409E+0	1.56699E+0	0.00000E+0	0.00000E+0	2.10269E+1	1.38972E+1	2.10245E+1	1.38987E+1
55	17/03/2023	14:34:52.518	0.00000E+0	0.00000E+0	1.88504E+2	9.69434E-1	0.00000E+0	0.00000E+0	2.39590E+1	1.10438E+1	2.39570E+1	1.10443E+1
56	17/03/2023	14:34:54.105	0.00000E+0	0.00000E+0	-1.86842E+2	-3.88582E+0	0.00000E+0	0.00000E+0	1.86213E+1	1.61930E+1	1.86219E+1	1.61933E+1
57	17/03/2023	14:34:55.775	0.00000E+0	0.00000E+0	7.76188E+1	1.37194E+0	0.00000E+0	0.00000E+0	2.22731E+1	1.27170E+1	2.22755E+1	1.27167E+1
58	17/03/2023	14:34:57.364	0.00000E+0	0.00000E+0	1.17676E+2	4.77176E-1	0.00000E+0	0.00000E+0	2.31038E+1	1.18621E+1	2.31021E+1	1.18622E+1
59	17/03/2023	14:34:58.880	0.00000E+0	0.00000E+0	-2.19188E+2	-6.54942E-1	0.00000E+0	0.00000E+0	1.81163E+1	1.67796E+1	1.81143E+1	1.67789E+1
60	17/03/2023	14:35:00.432	0.00000E+0	0.00000E+0	2.06193E+2	-6.64389E-1	0.00000E+0	0.00000E+0	2.40940E+1	1.08961E+1	2.40957E+1	1.08965E+1
61	17/03/2023	14:35:02.039	0.00000E+0	0.00000E+0	-1.15932E+2	-5.80956E-1	0.00000E+0	0.00000E+0	1.98385E+1	1.50905E+1	1.98399E+1	1.50893E+1
62	17/03/2023	14:35:03.626	0.00000E+0	0.00000E+0	-1.46799E+2	2.89834E-1	0.00000E+0	0.00000E+0	1.87985E+1	1.61368E+1	1.87993E+1	1.61357E+1
63	17/03/2023	14:35:05.214	0.00000E+0	0.00000E+0	2.16499E+2	2.43126E-1	0.00000E+0	0.00000E+0	2.43636E+1	1.05967E+1	2.43659E+1	1.05966E+1
64	17/03/2023	14:35:06.802	0.00000E+0	0.00000E+0	-6.62271E+1	-2.06702E+0	0.00000E+0	0.00000E+0	2.04994E+1	1.44340E+1	2.04972E+1	1.44333E+1
65	17/03/2023	14:35:08.378	0.00000E+0	0.00000E+0	-2.10130E+2	-1.82903E+0	0.00000E+0	0.00000E+0	1.81170E+1	1.68065E+1	1.81171E+1	1.68079E+1
66	17/03/2023	14:35:09.898	0.00000E+0	0.00000E+0	1.61031E+2	1.43812E+0	0.00000E+0	0.00000E+0	2.35599E+1	1.14226E+1	2.35599E+1	1.14235E+1
67	17/03/2023	14:35:11.470	0.00000E+0	0.00000E+0	-1.02128E+2	-6.79075E-1	0.00000E+0	0.00000E+0	1.96569E+1	1.52246E+1	1.96562E+1	1.52226E+1
68	17/03/2023	14:35:12.985	0.00000E+0	0.00000E+0	1.36034E+2	-2.95318E-1	0.00000E+0	0.00000E+0	2.32609E+1	1.17023E+1	2.32634E+1	1.17017E+1
69	17/03/2023	14:35:14.571	0.00000E+0	0.00000E+0	1.47548E+2	5.34760E-1	0.00000E+0	0.00000E+0	2.32283E+1	1.17349E+1	2.32265E+1	1.17363E+1
70	17/03/2023	14:35:16.091	0.00000E+0	0.00000E+0	-1.65688E+2	-2.66419E+0	0.00000E+0	0.00000E+0	1.88789E+1	1.60059E+1	1.88797E+1	1.60071E+1
71	17/03/2023	14:35:17.607	0.00000E+0	0.00000E+0	-2.05919E+2	-1.36332E+0	0.00000E+0	0.00000E+0	1.81588E+1	1.67374E+1	1.81581E+1	1.67358E+1
72	17/03/2023	14:35:19.198	0.00000E+0	0.00000E+0	2.41985E+2	-1.11086E+0	0.00000E+0	0.00000E+0	2.48304E+1	1.01416E+1	2.48305E+1	1.01424E+1
73	17/03/2023	14:35:20.754	0.00000E+0	0.00000E+0	-2.17118E+2	-3.05668E+0	0.00000E+0	0.00000E+0	1.81126E+1	1.68193E+1	1.81122E+1	1.68207E+1
74	17/03/2023	14:35:22.265	0.00000E+0	0.00000E+0	1.98212E+2	1.34100E+0	0.00000E+0	0.00000E+0	2.40201E+1	1.09226E+1	2.40215E+1	1.09242E+1
75	17/03/2023	14:35:23.904	0.00000E+0	0.00000E+0	-2.34727E+2	2.21973E+0	0.00000E+0	0.00000E+0	1.79365E+1	1.69972E+1	1.79380E+1	1.69950E+1
76	17/03/2023	14:35:25.514	0.00000E+0	0.00000E+0	1.40723E+2	1.26207E+0	0.00000E+0	0.00000E+0	2.29202E+1	1.20662E+1	2.29224E+1	1.20661E+1
77	17/03/2023	14:35:27.133	0.00000E+0	0.00000E+0	2.44091E+1	1.27335E+0	0.00000E+0	0.00000E+0	2.20520E+1	1.29473E+1	2.20535E+1	1.29472E+1
78	17/03/2023	14:35:28.691	0.00000E+0	0.00000E+0	-1.82865E+2	-3.62475E+0	0.00000E+0	0.00000E+0	1.86123E+1	1.63117E+1	1.86119E+1	1.63121E+1
79	17/03/2023	14:35:30.213	0.00000E+0	0.00000E+0	2.25269E+2	-4.07397E-1	0.00000E+0	0.00000E+0	2.44615E+1	1.05222E+1	2.44625E+1	1.05232E+1
80	17/03/2023	14:35:31.780	0.00000E+0	0.00000E+0	-1.83501E+2	-1.41991E+0	0.00000E+0	0.00000E+0	1.87733E+1	1.61121E+1	1.87749E+1	1.61104E+1
81	17/03/2023	14:35:33.288	0.00000E+0	0.00000E+0	-7.63891E+1	-1.87189E-1	0.00000E+0	0.00000E+0	1.99079E+1	1.50335E+1	1.99084E+1	1.50329E+1
82	17/03/2023	14:35:34.867	0.00000E+0	0.00000E+0	2.04679E+2	1.95493E+0	0.00000E+0	0.00000E+0	2.43110E+1	1.06931E+1	2.43116E+1	1.06963E+1
83	17/03/2023	14:35:36.463	0.00000E+0	0.00000E+0	-2.28832E+2	-5.10830E-1	0.00000E+0	0.00000E+0	1.80014E+1	1.68497E+1	1.80004E+1	1.68501E+1
84	17/03/2023	14:35:38.020	0.00000E+0	0.00000E+0	1.78413E+2	8.94652E-1	0.00000E+0	0.00000E+0	2.37553E+1	1.12082E+1	2.37560E+1	1.12079E+1
85	17/03/2023	14:35:39.560	0.00000E+0	0.00000E+0	-1.33531E+2	-1.23815E+0	0.00000E+0	0.00000E+0	1.95272E+1	1.53581E+1	1.95273E+1	1.53607E+1
86	17/03/2023	14:35:41.143	0.00000E+0	0.00000E+0	1.33859E+1	2.62420E+0	0.00000E+0	0.00000E+0	2.09468E+1	1.39862E+1	2.09481E+1	1.39861E+1
87	17/03/2023	14:35:43.037	0.00000E+0	0.00000E+0	-8.06444E+0	-2.28870E+0	0.00000E+0	0.00000E+0	2.15404E+1	1.34101E+1	2.15381E+1	1.34096E+1
88	17/03/2023	14:35:44.644	0.00000E+0	0.00000E+0	3.15233E+1	-3.18879E-1	0.00000E+0	0.00000E+0	2.14084E+1	1.35935E+1	2.14090E+1	1.35935E+1
89	17/03/2023	14:35:46.230	0.00000E+0	0.00000E+0	1.83877E+2	5.54330E-1	0.00000E+0	0.00000E+0	2.39972E+1	1.09517E+1	2.39955E+1	1.09547E+1
90	17/03/2023	14:35:47.804	0.00000E+0	0.00000E+0	-2.43491E+2	-1.10976E+0	0.00000E+0	0.00000E+0	1.77818E+1	1.71614E+1	1.77812E+1	1.71635E+1
91	17/03/2023	14:35:49.395	0.00000E+0	0.00000E+0	2.41279E+2	-1.27670E+0	0.00000E+0	0.00000E+0	2.46988E+1	1.03171E+1	2.46987E+1	1.03161E+1
92	17/03/2023	14:35:50.967	0.00000E+0	0.00000E+0	-2.59812E+2	-3.82029E-1	0.00000E+0	0.00000E+0	1.76780E+1	1.72835E+1	1.76786E+1	1.72805E+1
93	17/03/2023	14:35:52.521	0.00000E+0	0.00000E+0	1.52164E+2	8.12662E-1	0.00000E+0	0.00000E+0	2.32336E+1	1.17356E+1	2.32343E+1	1.17338E+1
94	17/03/2023	14:35:54.108	0.00000E+0	0.00000E+0	-1.08119E+2	2.99214E-1	0.00000E+0	0.00000E+0	2.00018E+1	1.48989E+1	2.00029E+1	1.48983E+1
95	17/03/2023	14:35:55.666	0.00000E+0	0.00000E+0	7.41361E+1	9.62690E-1	0.00000E+0	0.00000E+0	2.19926E+1	1.29380E+1	2.19942E+1	1.29386E+1
96	17/03/2023	14:35:57.179	0.00000E+0	0.00000E+0	1.84510E+2	4.53590E+0	0.00000E+0	0.00000E+0	2.41464E+1	1.08233E+1	2.41478E+1	1.08219E+1
97	17/03/2023	14:35:58.679	0.00000E+0	0.00000E+0	-2.32854E+2	9.40968E-1	0.00000E+0	0.00000E+0	1.78434E+1	1.70288E+1	1.78399E+1	1.70270E+1
98	17/03/2023	14:36:00.267	0.00000E+0	0.00000E+0	2.64576E+2	3.69228E+0	0.00000E+0	0.00000E+0	2.50228E+1	9.99677E+0	2.50234E+1	9.99805E+0
99	17/03/2023	14:36:01.804	0.00000E+0	0.00000E+0	-2.48800E+2	-3.62990E+0	0.00000E+0	0.00000E+0	1.77348E+1	1.71440E+1	1.77330E+1	1.71444E+1
100	17/03/2023	14:36:03.377	0.00000E+0	0.00000E+0	2.36375E+2	1.27931E+0	0.00000E+0	0.00000E+0	2.45591E+1	1.04341E+1	2.45573E+1	1.04306E+1
101	17/03/2023	14:36:04.934	0.00000E+0	0.00000E+0	-1.86587E+2	-9.91687E-1	0.00000E+0	0.00000E+0	1.87854E+1	1.61242E+1	1.87856E+1	1.61266E+1
102	17/03/2023	14:36:06.452	0.00000E+0	0.00000E+0	4.10782E+1	1.12120E+0	0.00000E+0	0.00000E+0	2.14514E+1	1.35000E+1	2.14484E+1	1.34995E+1
103	17/03/2023	14:36:07.964	0.00000E+0	0.00000E+0	1.23567E+2	-8.89850E-2	0.00000E+0	0.00000E+0	2.32658E+1	1.17246E+1	2.32656E+1	1.17208E+1
104	17/03/2023	14:36:09.561	0.00000E+0	0.00000E+0	-1.93629E+2	-2.19278E+0	0.00000E+0	0.00000E+0	1.82282E+1	1.66040E+1	1.82281E+1	1.66021E+1
105	17/03/2023	14:36:11.109	0.00000E+0	0.00000E+0	2.65495E+2	2.64591E+0	0.00000E+0	0.00000E+0	2.51124E+1	9.94334E+0	2.51109E+1	9.94767E+0
106	17/03/2023	14:36:12.686	0.00000E+0	0.00000E+0	-2.61531E+2	8.02955E-1	0.00000E+0	0.00000E+0	1.75790E+1	1.73563E+1	1.75749E+1	1.73553E+1
107	17/03/2023	14:36:14.246	0.00000E+0	0.00000E+0	2.38582E+2	1.11678E+0	0.00000E+0	0.00000E+0	2.45438E+1	1.04498E+1	2.45461E+1	1.04520E+1
108	17/03/2023	14:36:15.808	0.00000E+0	0.00000E+0	-1.85197E+2	-5.44647E-1	0.00000E+0	0.00000E+0	1.87768E+1	1.61052E+1	1.87744E+1	1.61060E+1
109	17/03/2023	14:36:17.328	0.00000E+0	0.00000E+0	2.78769E+1	-4.60392E-2	0.00000E+0	0.00000E+0	2.12631E+1	1.37071E+1	2.12623E+1	1.37075E+1
110	17/03/2023	14:36:18.884	0.00000E+0	0.00000E+0	1.38215E+2	3.25673E+0	0.00000E+0	0.00000E+0	2.34432E+1	1.15577E+1	2.34398E+1	1.15604E+1
111	17/03/2023	14:36:20.419	0.00000E+0	0.00000E+0	-2.35780E+2	-3.03277E+0	0.00000E+0	0.00000E+0	1.78384E+1	1.70047E+1	1.78363E+1	1.70037E+1
112	17/03/2023	14:36:22.009	0.00000E+0	0.00000E+0	2.89235E+2	1.92577E+0	0.00000E+0	0.00000E+0	2.53516E+1	9.61690E+0	2.53531E+1	9.61546E+0
113	17/03/2023	14:36:23.558	0.00000E+0	0.00000E+0	-2.41436E+2	-2.02111E+0	0.00000E+0	0.00000E+0	1.78376E+1	1.70521E+1	1.78399E+1	1.70537E+1
114	17/03/2023	14:36:25.109	0.00000E+0	0.00000E+0	2.33841E+2	2.40250E+0	0.00000E+0	0.00000E+0	2.44432E+1	1.05167E+1	2.44422E+1	1.05153E+1
115	17/03/2023	14:36:26.669	0.00000E+0	0.00000E+0	-1.84892E+2	-4.59632E+0	0.00000E+0	0.00000E+0	1.87913E+1	1.61048E+1	1.87911E+1	1.61052E+1
116	17/03/2023	14:36:28.255	0.00000E+0	0.00000E+0	3.55382E+1	-8.98736E-1	0.00000E+0	0.00000E+0	2.15104E+1	1.34789E+1	2.15105E+1	1.34794E+1
117	17/03/2023	14:36:29.771	0.00000E+0	0.00000E+0	2.20764E+2	1.66400E+0	0.00000E+0	0.00000E+0	2.43581E+1	1.05941E+1	2.43602E+1	1.05943E+1
118	17/03/2023	14:36:31.345	0.00000E+0	0.00000E+0	-1.99766E+2	-1.80248E-1	0.00000E+0	0.00000E+0	1.84557E+1	1.64534E+1	1.84556E+1	1.64535E+1
119	17/03/2023	14:36:32.886	0.00000E+0	0.00000E+0	1.45185E+2	5.61769E-1	0.00000E+0	0.00000E+0	2.31013E+1	1.18576E+1	2.31001E+1	1.18577E+1
120	17/03/2023	14:36:34.413	0.00000E+0	0.00000E+0	2.98964E+1	3.65281E-1	0.00000E+0	0.00000E+0	2.19968E+1	1.29662E+1	2.19975E+1	1.29660E+1
121	17/03/2023	14:36:35.945	0.00000E+0	0.00000E+0	-1.59635E+2	-1.06505E+0	0.00000E+0	0.00000E+0	1.88932E+1	1.60056E+1	1.88910E+1	1.60050E+1
122	17/03/2023	14:36:37.528	0.00000E+0	0.00000E+0	2.00621E+2	-4.44010E-1	0.00000E+0	0.00000E+0	2.40997E+1	1.08451E+1	2.41009E+1	1.08451E+1
123	17/03/2023	14:36:39.090	0.00000E+0	0.00000E+0	-2.27130E+2	-1.65103E+0	0.00000E+0	0.00000E+0	1.81457E+1	1.67747E+1	1.81448E+1	1.67743E+1
124	17/03/2023	14:36:40.601	0.00000E+0	0.00000E+0	-1.15861E+1	2.22533E-1	0.00000E+0	0.00000E+0	2.08414E+1	1.40790E+1	2.08401E+1	1.40783E+1
125	17/03/2023	14:36:42.193	0.00000E+0	0.00000E+0	2.32151E+2	5.33573E-1	0.00000E+0	0.00000E+0	2.45132E+1	1.04227E+1	2.45139E+1	1.04202E+1
126	17/03/2023	14:36:43.769	0.00000E+0	0.00000E+0	-2.53412E+2	3.22354E-1	0.00000E+0	0.00000E+0	1.77409E+1	1.71683E+1	1.77413E+1	1.71708E+1
127	17/03/2023	14:36:45.296	0.00000E+0	0.00000E+0	1.99991E+2	1.71119E+0	0.00000E+0	0.00000E+0	2.40380E+1	1.10126E+1	2.40392E+1	1.10111E+1
128	17/03/2023	14:36:46.865	0.00000E+0	0.00000E+0	-6.15725E+1	-1.18884E+0	0.00000E+0	0.00000E+0	2.06937E+1	1.41993E+1	2.06908E+1	1.41984E+1
129	17/03/2023	14:36:48.454	0.00000E+0	0.00000E+0	-1.61558E+2	-2.31899E+0	0.00000E+0	0.00000E+0	1.87528E+1	1.60709E+1	1.87530E+1	1.60713E+1
130	17/03/2023	14:36:49.952	0.00000E+0	0.00000E+0	2.11747E+2	-2.84363E-1	0.00000E+0	0.00000E+0	2.42273E+1	1.06751E+1	2.42279E+1	1.06745E+1
131	17/03/2023	14:36:51.538	0.00000E+0	0.00000E+0	-2.01615E+2	-4.90639E+0	0.00000E+0	0.00000E+0	1.84547E+1	1.65399E+1	1.84540E+1	1.65389E+1
132	17/03/2023	14:36:53.098	0.00000E+0	0.00000E+0	1.21378E+2	1.65025E+0	0.00000E+0	0.00000E+0	2.26958E+1	1.22305E+1	2.26977E+1	1.22313E+1
133	17/03/2023	14:36:54.654	0.00000E+0	0.00000E+0	5.53949E+1	-1.27530E+0	0.00000E+0	0.00000E+0	2.24675E+1	1.24759E+1	2.24670E+1	1.24747E+1
134	17/03/2023	14:36:56.220	0.00000E+0	0.00000E+0	-1.74661E+2	-2.11538E+0	0.00000E+0	0.00000E+0	1.87387E+1	1.61788E+1	1.87393E+1	1.61802E+1
135	17/03/2023	14:36:57.744	0.00000E+0	0.00000E+0	2.01470E+2	-3.89436E-1	0.00000E+0	0.00000E+0	2.41127E+1	1.08757E+1	2.41146E+1	1.08738E+1
136	17/03/2023	14:36:59.258	0.00000E+0	0.00000E+0	-1.51293E+2	4.35431E-2	0.00000E+0	0.00000E+0	1.91867E+1	1.57889E+1	1.91862E+1	1.57878E+1
137	17/03/2023	14:37:00.843	0.00000E+0	0.00000E+0	-8.10644E+1	1.49945E+0	0.00000E+0	0.00000E+0	1.98159E+1	1.51293E+1	1.98166E+1	1.51294E+1
138	17/03/2023	14:37:02.403	0.00000E+0	0.00000E+0	2.07598E+2	2.43743E-1	0.00000E+0	0.00000E+0	2.42551E+1	1.06838E+1	2.42555E+1	1.06836E+1
139	17/03/2023	14:37:03.955	0.00000E+0	0.00000E+0	-2.03851E+2	-4.16041E+0	0.00000E+0	0.00000E+0	1.83013E+1	1.65978E+1	1.83024E+1	1.65972E+1
140	17/03/2023	14:37:05.509	0.00000E+0	0.00000E+0	8.52790E+1	7.89040E-1	0.00000E+0	0.00000E+0	2.22161E+1	1.27667E+1	2.22194E+1	1.27660E+1
141	17/03/2023	14:37:07.051	0.00000E+0	0.00000E+0	1.76277E+2	1.45510E+0	0.00000E+0	0.00000E+0	2.38722E+1	1.11797E+1	2.38721E+1	1.11796E+1
142	17/03/2023	14:37:08.667	0.00000E+0	0.00000E+0	-1.80384E+2	-2.64721E+0	0.00000E+0	0.00000E+0	1.86813E+1	1.62380E+1	1.86803E+1	1.62347E+1
143	17/03/2023	14:37:10.254	0.00000E+0	0.00000E+0	1.98531E+2	-1.29819E+0	0.00000E+0	0.00000E+0	2.40235E+1	1.09244E+1	2.40250E+1	1.09251E+1
144	17/03/2023	14:37:11.842	0.00000E+0	0.00000E+0	-5.67594E+1	-8.54130E-1	0.00000E+0	0.00000E+0	2.08077E+1	1.41030E+1	2.08068E+1	1.41040E+1
145	17/03/2023	14:37:13.428	0.00000E+0	0.00000E+0	-1.75865E+2	-3.26217E+0	0.00000E+0	0.00000E+0	1.86939E+1	1.62581E+1	1.86933E+1	1.62583E+1
146	17/03/2023	14:37:15.014	0.00000E+0	0.00000E+0	2.48692E+2	2.32343E+0	0.00000E+0	0.00000E+0	2.48555E+1	1.01216E+1	2.48540E+1	1.01220E+1
147	17/03/2023	14:37:16.551	0.00000E+0	0.00000E+0	-2.31705E+2	-2.87044E+0	0.00000E+0	0.00000E+0	1.79944E+1	1.69155E+1	1.79923E+1	1.69121E+1
148	17/03/2023	14:37:18.114	0.00000E+0	0.00000E+0	2.06156E+2	1.39634E+0	0.00000E+0	0.00000E+0	2.40321E+1	1.09910E+1	2.40346E+1	1.09917E+1
149	17/03/2023	14:37:19.613	0.00000E+0	0.00000E+0	-1.11515E+1	-1.99286E+0	0.00000E+0	0.00000E+0	2.15090E+1	1.34544E+1	2.15069E+1	1.34542E+1
150	17/03/2023	14:37:21.183	0.00000E+0	0.00000E+0	-1.90133E+2	3.78827E-1	0.00000E+0	0.00000E+0	1.83891E+1	1.65230E+1	1.83897E+1	1.65237E+1
151	17/03/2023	14:37:22.784	0.00000E+0	0.00000E+0	2.44845E+2	1.07662E+0	0.00000E+0	0.00000E+0	2.47142E+1	1.02558E+1	2.47148E+1	1.02562E+1
152	17/03/2023	14:37:24.291	0.00000E+0	0.00000E+0	-2.05683E+2	-1.49086E+0	0.00000E+0	0.00000E+0	1.83527E+1	1.65951E+1	1.83535E+1	1.65947E+1
153	17/03/2023	14:37:25.838	0.00000E+0	0.00000E+0	1.15237E+2	1.08814E+0	0.00000E+0	0.00000E+0	2.25930E+1	1.23583E+1	2.25936E+1	1.23562E+1
154	17/03/2023	14:37:27.389	0.00000E+0	0.00000E+0	1.61051E+2	-2.37309E+0	0.00000E+0	0.00000E+0	2.36575E+1	1.13221E+1	2.36562E+1	1.13197E+1
155	17/03/2023	14:37:28.967	0.00000E+0	0.00000E+0	-2.94942E+2	-3.60432E+0	0.00000E+0	0.00000E+0	1.70233E+1	1.78796E+1	1.70228E+1	1.78792E+1
156	17/03/2023	14:37:30.486	0.00000E+0	0.00000E+0	2.70597E+2	8.29595E-1	0.00000E+0	0.00000E+0	2.50954E+1	9.84316E+0	2.50939E+1	9.84386E+0
157	17/03/2023	14:37:32.000	0.00000E+0	0.00000E+0	-1.83068E+2	4.58451E+0	0.00000E+0	0.00000E+0	1.87250E+1	1.61613E+1	1.87249E+1	1.61589E+1
158	17/03/2023	14:37:33.645	0.00000E+0	0.00000E+0	9.43592E+1	2.13558E+0	0.00000E+0	0.00000E+0	2.24490E+1	1.25293E+1	2.24508E+1	1.25287E+1
159	17/03/2023	14:37:35.154	0.00000E+0	0.00000E+0	1.66159E+2	1.51526E+0	0.00000E+0	0.00000E+0	2.37083E+1	1.12583E+1	2.37080E+1	1.12567E+1
160	17/03/2023	14:37:36.732	0.00000E+0	0.00000E+0	-2.03894E+2	-2.33897E+0	0.00000E+0	0.00000E+0	1.83305E+1	1.65741E+1	1.83297E+1	1.65740E+1
161	17/03/2023	14:37:38.296	0.00000E+0	0.00000E+0	1.88245E+2	2.28978E+0	0.00000E+0	0.00000E+0	2.38550E+1	1.10630E+1	2.38558E+1	1.10638E+1
162	17/03/2023	14:37:39.894	0.00000E+0	0.00000E+0	-2.09113E+2	-5.26995E+0	0.00000E+0	0.00000E+0	1.83152E+1	1.65642E+1	1.83143E+1	1.65632E+1
163	17/03/2023	14:37:41.497	0.00000E+0	0.00000E+0	1.34094E+2	-3.76716E-1	0.00000E+0	0.00000E+0	2.30382E+1	1.19523E+1	2.30376E+1	1.19520E+1
164	17/03/2023	14:37:43.086	0.00000E+0	0.00000E+0	3.14677E+1	-6.18950E-1	0.00000E+0	0.00000E+0	2.20509E+1	1.28988E+1	2.20504E+1	1.29016E+1
165	17/03/2023	14:37:44.652	0.00000E+0	0.00000E+0	-1.72639E+2	-1.71767E+0	0.00000E+0	0.00000E+0	1.87910E+1	1.61912E+1	1.87896E+1	1.61925E+1
166	17/03/2023	14:37:46.179	0.00000E+0	0.00000E+0	7.34534E+1	8.34098E-1	0.00000E+0	0.00000E+0	2.20430E+1	1.28313E+1	2.20430E+1	1.28310E+1
167	17/03/2023	14:37:47.763	0.00000E+0	0.00000E+0	1.89693E+2	5.40123E-1	0.00000E+0	0.00000E+0	2.39974E+1	1.09646E+1	2.39980E+1	1.09628E+1
168	17/03/2023	14:37:49.296	0.00000E+0	0.00000E+0	-2.02356E+2	7.93063E-1	0.00000E+0	0.00000E+0	1.84414E+1	1.64923E+1	1.84410E+1	1.64924E+1
169	17/03/2023	14:37:50.937	0.00000E+0	0.00000E+0	4.92917E+1	-2.10809E-1	0.00000E+0	0.00000E+0	2.17463E+1	1.32367E+1	2.17459E+1	1.32348E+1
170	17/03/2023	14:37:52.499	0.00000E+0	0.00000E+0	2.08269E+2	1.51115E+0	0.00000E+0	0.00000E+0	2.42977E+1	1.07280E+1	2.42974E+1	1.07275E+1
171	17/03/2023	14:37:54.116	0.00000E+0	0.00000E+0	-2.10908E+2	-2.93033E+0	0.00000E+0	0.00000E+0	1.82069E+1	1.67273E+1	1.82050E+1	1.67264E+1
172	17/03/2023	14:37:55.640	0.00000E+0	0.00000E+0	1.22146E+2	-6.93887E-1	0.00000E+0	0.00000E+0	2.27640E+1	1.21407E+1	2.27639E+1	1.21409E+1
173	17/03/2023	14:37:57.228	0.00000E+0	0.00000E+0	2.22879E+2	1.00019E+0	0.00000E+0	0.00000E+0	2.45682E+1	1.04295E+1	2.45672E+1	1.04304E+1
174	17/03/2023	14:37:58.790	0.00000E+0	0.00000E+0	-2.00688E+2	-3.65888E+0	0.00000E+0	0.00000E+0	1.83214E+1	1.66550E+1	1.83206E+1	1.66559E+1
175	17/03/2023	14:38:00.298	0.00000E+0	0.00000E+0	2.16120E+2	1.99490E+0	0.00000E+0	0.00000E+0	2.42714E+1	1.07338E+1	2.42725E+1	1.07335E+1
176	17/03/2023	14:38:01.882	0.00000E+0	0.00000E+0	-1.64463E+2	9.72790E-1	0.00000E+0	0.00000E+0	1.89763E+1	1.59731E+1	1.89804E+1	1.59730E+1
177	17/03/2023	14:38:03.405	0.00000E+0	0.00000E+0	-9.15577E+1	-3.39079E+0	0.00000E+0	0.00000E+0	1.97867E+1	1.51591E+1	1.97878E+1	1.51605E+1
178	17/03/2023	14:38:04.972	0.00000E+0	0.00000E+0	1.93703E+2	1.63388E+0	0.00000E+0	0.00000E+0	2.40904E+1	1.09003E+1	2.40904E+1	1.08977E+1
179	17/03/2023	14:38:06.478	0.00000E+0	0.00000E+0	-2.15923E+2	-2.93618E+0	0.00000E+0	0.00000E+0	1.82135E+1	1.67422E+1	1.82140E+1	1.67410E+1
180	17/03/2023	14:38:08.079	0.00000E+0	0.00000E+0	2.09966E+2	-1.59453E-1	0.00000E+0	0.00000E+0	2.42028E+1	1.08094E+1	2.42042E+1	1.08103E+1
181	17/03/2023	14:38:09.650	0.00000E+0	0.00000E+0	-1.32555E+2	-7.20140E-2	0.00000E+0	0.00000E+0	1.96899E+1	1.51891E+1	1.96896E+1	1.51884E+1
182	17/03/2023	14:38:11.245	0.00000E+0	0.00000E+0	-1.48709E+2	8.40770E-2	0.00000E+0	0.00000E+0	1.88088E+1	1.61459E+1	1.88070E+1	1.61423E+1
183	17/03/2023	14:38:12.830	0.00000E+0	0.00000E+0	2.24193E+2	7.84654E-1	0.00000E+0	0.00000E+0	2.44872E+1	1.05310E+1	2.44863E+1	1.05323E+1
184	17/03/2023	14:38:14.360	0.00000E+0	0.00000E+0	-2.33552E+2	7.13995E-1	0.00000E+0	0.00000E+0	1.78734E+1	1.70185E+1	1.78742E+1	1.70168E+1
185	17/03/2023	14:38:15.956	0.00000E+0	0.00000E+0	2.28929E+2	2.02018E+0	0.00000E+0	0.00000E+0	2.43956E+1	1.05382E+1	2.43943E+1	1.05372E+1
186	17/03/2023	14:38:17.536	0.00000E+0	0.00000E+0	-1.67487E+2	-2.71147E+0	0.00000E+0	0.00000E+0	1.91129E+1	1.58253E+1	1.91158E+1	1.58257E+1
187	17/03/2023	14:38:19.176	0.00000E+0	0.00000E+0	2.98097E+1	-3.85166E+0	0.00000E+0	0.00000E+0	2.12794E+1	1.36532E+1	2.12828E+1	1.36534E+1
188	17/03/2023	14:38:20.766	0.00000E+0	0.00000E+0	2.19190E+2	3.77409E+0	0.00000E+0	0.00000E+0	2.44902E+1	1.04839E+1	2.44918E+1	1.04849E+1
189	17/03/2023	14:38:22.351	0.00000E+0	0.00000E+0	-2.65193E+2	3.69808E+0	0.00000E+0	0.00000E+0	1.75092E+1	1.74605E+1	1.75070E+1	1.74630E+1
190	17/03/2023	14:38:23.912	0.00000E+0	0.00000E+0	9.43496E+1	1.71727E-1	0.00000E+0	0.00000E+0	2.25316E+1	1.24960E+1	2.25342E+1	1.24964E+1
191	17/03/2023	14:38:25.525	0.00000E+0	0.00000E+0	1.47671E+2	2.05711E+0	0.00000E+0	0.00000E+0	2.34501E+1	1.14990E+1	2.34507E+1	1.14993E+1
192	17/03/2023	14:38:27.015	0.00000E+0	0.00000E+0	-1.72816E+2	-6.69110E-1	0.00000E+0	0.00000E+0	1.88103E+1	1.61649E+1	1.88116E+1	1.61643E+1
193	17/03/2023	14:38:28.543	0.00000E+0	0.00000E+0	1.44010E+2	-6.78953E-1	0.00000E+0	0.00000E+0	2.32136E+1	1.17548E+1	2.32111E+1	1.17538E+1
194	17/03/2023	14:38:30.124	0.00000E+0	0.00000E+0	3.39014E+1	-1.07841E+0	0.00000E+0	0.00000E+0	2.20584E+1	1.29499E+1	2.20561E+1	1.29497E+1
195	17/03/2023	14:38:31.625	0.00000E+0	0.00000E+0	-1.55820E+2	-5.64447E-1	0.00000E+0	0.00000E+0	1.89333E+1	1.59553E+1	1.89318E+1	1.59537E+1
196	17/03/2023	14:38:33.110	0.00000E+0	0.00000E+0	2.19472E+2	6.22247E-1	0.00000E+0	0.00000E+0	2.43938E+1	1.06531E+1	2.43928E+1	1.06525E+1
197	17/03/2023	14:38:34.605	0.00000E+0	0.00000E+0	-2.26990E+2	-4.24575E+0	0.00000E+0	0.00000E+0	1.80126E+1	1.68169E+1	1.80117E+1	1.68184E+1
198	17/03/2023	14:38:36.121	0.00000E+0	0.00000E+0	1.14023E+2	1.45269E-1	0.00000E+0	0.00000E+0	2.25302E+1	1.24263E+1	2.25284E+1	1.24240E+1
199	17/03/2023	14:38:37.712	0.00000E+0	0.00000E+0	1.01754E+2	7.37432E-1	0.00000E+0	0.00000E+0	2.30071E+1	1.19978E+1	2.30064E+1	1.19962E+1
200	17/03/2023	14:38:39.255	0.00000E+0	0.00000E+0	-1.77198E+2	1.85488E-1	0.00000E+0	0.00000E+0	1.86657E+1	1.62239E+1	1.86651E+1	1.62225E+1
201	17/03/2023	14:38:40.893	0.00000E+0	0.00000E+0	2.40936E+2	1.08418E+0	0.00000E+0	0.00000E+0	2.47206E+1	1.02721E+1	2.47202E+1	1.02698E+1
202	17/03/2023	14:38:42.406	0.00000E+0	0.00000E+0	-1.99920E+2	-2.12678E+0	0.00000E+0	0.00000E+0	1.84627E+1	1.64080E+1	1.84625E+1	1.64081E+1
203	17/03/2023	14:38:43.991	0.00000E+0	0.00000E+0	6.04623E+1	-2.69358E+0	0.00000E+0	0.00000E+0	2.16020E+1	1.32843E+1	2.16021E+1	1.32861E+1
204	17/03/2023	14:38:45.558	0.00000E+0	0.00000E+0	1.39266E+2	2.88531E+0	0.00000E+0	0.00000E+0	2.35377E+1	1.14339E+1	2.35377E+1	1.14349E+1
205	17/03/2023	14:38:47.082	0.00000E+0	0.00000E+0	-2.28282E+2	-3.09846E+0	0.00000E+0	0.00000E+0	1.78581E+1	1.70322E+1	1.78585E+1	1.70318E+1
206	17/03/2023	14:38:48.606	0.00000E+0	0.00000E+0	1.99770E+2	2.52551E+0	0.00000E+0	0.00000E+0	2.40947E+1	1.08869E+1	2.40950E+1	1.08866E+1
207	17/03/2023	14:38:50.174	0.00000E+0	0.00000E+0	-3.85718E+1	-2.10645E+0	0.00000E+0	0.00000E+0	2.09799E+1	1.39547E+1	2.09833E+1	1.39536E+1
208	17/03/2023	14:38:51.758	0.00000E+0	0.00000E+0	-1.65184E+2	3.64726E-1	0.00000E+0	0.00000E+0	1.87472E+1	1.61788E+1	1.87459E+1	1.61790E+1
209	17/03/2023	14:38:53.276	0.00000E+0	0.00000E+0	1.90919E+2	1.07509E+0	0.00000E+0	0.00000E+0	2.39148E+1	1.10101E+1	2.39138E+1	1.10100E+1
210	17/03/2023	14:38:54.851	0.00000E+0	0.00000E+0	-1.74409E+2	-1.53210E-1	0.00000E+0	0.00000E+0	1.89492E+1	1.59494E+1	1.89498E+1	1.59493E+1
211	17/03/2023	14:38:56.439	0.00000E+0	0.00000E+0	-7.99628E+0	6.72187E-2	0.00000E+0	0.00000E+0	2.08640E+1	1.40786E+1	2.08642E+1	1.40778E+1
212	17/03/2023	14:38:58.015	0.00000E+0	0.00000E+0	2.35397E+2	1.93869E+0	0.00000E+0	0.00000E+0	2.46292E+1	1.03437E+1	2.46288E+1	1.03417E+1
213	17/03/2023	14:38:59.615	0.00000E+0	0.00000E+0	-2.25402E+2	3.05898E-2	0.00000E+0	0.00000E+0	1.81201E+1	1.68169E+1	1.81202E+1	1.68168E+1
214	17/03/2023	14:39:01.195	0.00000E+0	0.00000E+0	1.23380E+2	1.97970E-1	0.00000E+0	0.00000E+0	2.28227E+1	1.21058E+1	2.28247E+1	1.21041E+1
215	17/03/2023	14:39:02.785	0.00000E+0	0.00000E+0	1.72941E+2	-3.14284E-2	0.00000E+0	0.00000E+0	2.37130E+1	1.12258E+1	2.37117E+1	1.12238E+1
216	17/03/2023	14:39:04.370	0.00000E+0	0.00000E+0	-2.67482E+2	-7.78620E-1	0.00000E+0	0.00000E+0	1.74782E+1	1.74643E+1	1.74785E+1	1.74614E+1
217	17/03/2023	14:39:05.960	0.00000E+0	0.00000E+0	1.89475E+2	2.54812E+0	0.00000E+0	0.00000E+0	2.37997E+1	1.11521E+1	2.37997E+1	1.11544E+1
218	17/03/2023	14:39:07.547	0.00000E+0	0.00000E+0	-2.77911E+1	1.85654E+0	0.00000E+0	0.00000E+0	2.11224E+1	1.38506E+1	2.11222E+1	1.38496E+1
219	17/03/2023	14:39:09.100	0.00000E+0	0.00000E+0	-1.83280E+2	-2.90690E+0	0.00000E+0	0.00000E+0	1.86395E+1	1.62624E+1	1.86384E+1	1.62603E+1
220	17/03/2023	14:39:10.599	0.00000E+0	0.00000E+0	1.82349E+2	1.24274E+0	0.00000E+0	0.00000E+0	2.38559E+1	1.11211E+1	2.38547E+1	1.11212E+1
221	17/03/2023	14:39:12.113	0.00000E+0	0.00000E+0	-8.34394E+1	-4.36684E-1	0.00000E+0	0.00000E+0	2.02946E+1	1.46621E+1	2.02947E+1	1.46616E+1
222	17/03/2023	14:39:13.693	0.00000E+0	0.00000E+0	-1.29441E+2	2.23518E+0	0.00000E+0	0.00000E+0	1.91637E+1	1.57867E+1	1.91640E+1	1.57857E+1
223	17/03/2023	14:39:16.150	0.00000E+0	0.00000E+0	-1.64202E+2	-1.66804E+0	0.00000E+0	0.00000E+0	2.12500E+1	1.37000E+1	2.12515E+1	1.36996E+1
224	17/03/2023	14:39:18.174	0.00000E+0	0.00000E+0	1.11803E+2	8.04619E-1	0.00000E+0	0.00000E+0	2.27616E+1	1.22881E+1	2.27608E+1	1.22863E+1
225	17/03/2023	14:39:20.037	0.00000E+0	0.00000E+0	-5.68548E+1	5.86549E-1	0.00000E+0	0.00000E+0	2.08473E+1	1.40682E+1	2.08452E+1	1.40685E+1
226	17/03/2023	14:39:22.645	0.00000E+0	0.00000E+0	2.10329E+2	2.22244E+0	0.00000E+0	0.00000E+0	2.40312E+1	1.09606E+1	2.40330E+1	1.09615E+1
227	17/03/2023	14:39:24.791	0.00000E+0	0.00000E+0	-2.53100E+2	-2.23052E+0	0.00000E+0	0.00000E+0	1.77273E+1	1.37000E+1	2.12484E+1	1.37006E+1
228	17/03/2023	14:39:26.408	0.00000E+0	0.00000E+0	1.80270E+2	3.81031E-1	0.00000E+0	0.00000E+0	2.37194E+1	1.12801E+1	2.37205E+1	1.12802E+1
229	17/03/2023	14:39:27.943	0.00000E+0	0.00000E+0	-1.38492E+2	-1.58609E+0	0.00000E+0	0.00000E+0	1.94703E+1	1.54849E+1	1.94700E+1	1.54846E+1
230	17/03/2023	14:39:29.538	0.00000E+0	0.00000E+0	1.93521E+1	4.03361E-1	0.00000E+0	0.00000E+0	2.12500E+1	1.36945E+1	2.12509E+1	1.36943E+1
231	17/03/2023	14:39:31.120	0.00000E+0	0.00000E+0	2.06854E+2	1.99440E+0	0.00000E+0	0.00000E+0	2.42005E+1	1.08006E+1	2.41995E+1	1.08021E+1
232	17/03/2023	14:39:32.686	0.00000E+0	0.00000E+0	-2.46099E+2	-2.28717E+0	0.00000E+0	0.00000E+0	1.77487E+1	1.71721E+1	1.77507E+1	1.71723E+1
233	17/03/2023	14:39:34.551	0.00000E+0	0.00000E+0	2.21185E+2	2.60864E+0	0.00000E+0	0.00000E+0	2.43905E+1	1.06425E+1	2.43919E+1	1.06407E+1
234	17/03/2023	14:39:36.364	0.00000E+0	0.00000E+0	-1.56455E+2	-1.12638E+0	0.00000E+0	0.00000E+0	1.90557E+1	1.59001E+1	1.90553E+1	1.59006E+1
235	17/03/2023	14:39:38.881	0.00000E+0	0.00000E+0	1.76100E+2	7.09991E-1	0.00000E+0	0.00000E+0	2.37614E+1	1.12055E+1	2.37629E+1	1.12063E+1
236	17/03/2023	14:39:40.833	0.00000E+0	0.00000E+0	-2.14808E+2	5.81963E-2	0.00000E+0	0.00000E+0	1.80107E+1	1.69098E+1	1.80106E+1	1.69084E+1
237	17/03/2023	14:39:42.556	0.00000E+0	0.00000E+0	1.92570E+2	2.33503E+0	0.00000E+0	0.00000E+0	2.39247E+1	1.37000E+1	2.12518E+1	1.37028E+1
238	17/03/2023	14:39:44.395	0.00000E+0	0.00000E+0	-2.37563E+2	-1.06762E+0	0.00000E+0	0.00000E+0	1.78955E+1	1.69902E+1	1.78959E+1	1.69918E+1
239	17/03/2023	14:39:46.258	0.00000E+0	0.00000E+0	1.93925E+2	1.31012E+0	0.00000E+0	0.00000E+0	2.38535E+1	1.11446E+1	2.38537E+1	1.11443E+1
240	17/03/2023	14:39:47.929	0.00000E+0	0.00000E+0	-5.92261E+1	1.03690E-2	0.00000E+0	0.00000E+0	2.06738E+1	1.42225E+1	2.06752E+1	1.42216E+1
241	17/03/2023	14:39:49.546	0.00000E+0	0.00000E+0	-1.24531E+2	-3.13776E-1	0.00000E+0	0.00000E+0	1.92765E+1	1.56247E+1	1.92767E+1	1.56254E+1
242	17/03/2023	14:39:51.098	0.00000E+0	0.00000E+0	1.54710E+2	4.86377E-1	0.00000E+0	0.00000E+0	2.35245E+1	1.14287E+1	2.35260E+1	1.14272E+1
