#Iteration	Date	Time	Chirp	Phase	RamanAxis	RTPhase	NFringe	Ratio
1	02/09/2022	15:59:39.608	0.00000000E+0	-3.14159265E+1	5.00000000E+0	4.37337923E+0	-6.30000000E+2	2.68993318E-1
2	02/09/2022	15:59:41.017	0.00000000E+0	-3.12065382E+1	5.00000000E+0	2.21084981E+0	-6.30000000E+2	2.81763517E-1
3	02/09/2022	15:59:42.409	0.00000000E+0	-3.09971498E+1	5.00000000E+0	1.32497591E+0	-6.30000000E+2	2.91176954E-1
4	02/09/2022	15:59:43.926	0.00000000E+0	-3.07877614E+1	5.00000000E+0	4.48766079E+0	-6.31000000E+2	3.22746376E-1
5	02/09/2022	15:59:45.304	0.00000000E+0	-3.05779895E+1	5.00000000E+0	1.48566039E+0	-6.30000000E+2	3.39752482E-1
6	02/09/2022	15:59:46.783	0.00000000E+0	-3.03686012E+1	5.00000000E+0	4.32275786E+0	-6.30000000E+2	3.80482330E-1
7	02/09/2022	15:59:48.161	0.00000000E+0	-3.01592128E+1	5.00000000E+0	6.14014160E+0	-6.31000000E+2	4.24598232E-1
8	02/09/2022	15:59:49.547	0.00000000E+0	-2.99498244E+1	5.00000000E+0	6.90291355E-1	-6.30000000E+2	4.71259110E-1
9	02/09/2022	15:59:51.094	0.00000000E+0	-2.97404360E+1	5.00000000E+0	3.49824319E+0	-6.31000000E+2	4.96048116E-1
10	02/09/2022	15:59:52.484	0.00000000E+0	-2.95310476E+1	5.00000000E+0	4.94593756E+0	-6.30000000E+2	5.18587162E-1
11	02/09/2022	15:59:53.911	0.00000000E+0	-2.93216593E+1	5.00000000E+0	4.62878703E-1	-6.30000000E+2	5.65027716E-1
12	02/09/2022	15:59:55.421	0.00000000E+0	-2.91122709E+1	5.00000000E+0	4.37031126E+0	-6.31000000E+2	5.93705056E-1
13	02/09/2022	15:59:56.811	0.00000000E+0	-2.89024990E+1	5.00000000E+0	5.40306383E+0	-6.30000000E+2	6.21918986E-1
14	02/09/2022	15:59:58.471	0.00000000E+0	-2.86931106E+1	5.00000000E+0	9.29975853E-1	-6.30000000E+2	6.26602727E-1
15	02/09/2022	15:59:59.879	0.00000000E+0	-2.84837223E+1	5.00000000E+0	4.02861704E+0	-6.30000000E+2	6.33661892E-1
16	02/09/2022	16:00:01.277	0.00000000E+0	-2.82743339E+1	5.00000000E+0	3.90896654E+0	-6.30000000E+2	6.31161863E-1
17	02/09/2022	16:00:02.737	0.00000000E+0	-2.80649455E+1	5.00000000E+0	3.59411699E+0	-6.30000000E+2	6.32899405E-1
18	02/09/2022	16:00:04.149	0.00000000E+0	-2.78555571E+1	5.00000000E+0	3.32605384E+0	-6.30000000E+2	6.05617028E-1
19	02/09/2022	16:00:05.574	0.00000000E+0	-2.76461687E+1	5.00000000E+0	5.36202984E+0	-6.30000000E+2	5.88415176E-1
20	02/09/2022	16:00:07.087	0.00000000E+0	-2.74363969E+1	5.00000000E+0	3.41732570E+0	-6.30000000E+2	5.56706285E-1
21	02/09/2022	16:00:08.568	0.00000000E+0	-2.72270085E+1	5.00000000E+0	6.21300569E+0	-6.31000000E+2	5.17996198E-1
22	02/09/2022	16:00:10.106	0.00000000E+0	-2.70176201E+1	5.00000000E+0	3.11014605E-1	-6.30000000E+2	4.89461531E-1
23	02/09/2022	16:00:11.494	0.00000000E+0	-2.68082317E+1	5.00000000E+0	1.68200993E+0	-6.30000000E+2	4.38962567E-1
24	02/09/2022	16:00:12.942	0.00000000E+0	-2.65988434E+1	5.00000000E+0	3.41157327E+0	-6.31000000E+2	4.00182856E-1
25	02/09/2022	16:00:14.423	0.00000000E+0	-2.63894550E+1	5.00000000E+0	3.47446648E-1	-6.29000000E+2	3.78264037E-1
26	02/09/2022	16:00:15.813	0.00000000E+0	-2.61800666E+1	5.00000000E+0	5.55876288E+0	-6.31000000E+2	3.43332446E-1
27	02/09/2022	16:00:17.330	0.00000000E+0	-2.59706782E+1	5.00000000E+0	5.79998136E+0	-6.31000000E+2	3.09254090E-1
28	02/09/2022	16:00:18.742	0.00000000E+0	-2.57609064E+1	5.00000000E+0	5.48858326E+0	-6.31000000E+2	2.88878576E-1
29	02/09/2022	16:00:20.119	0.00000000E+0	-2.55515180E+1	5.00000000E+0	2.46395664E+0	-6.30000000E+2	2.71805180E-1
30	02/09/2022	16:00:21.699	0.00000000E+0	-2.53421296E+1	5.00000000E+0	5.12042787E+0	-6.31000000E+2	2.66143686E-1
31	02/09/2022	16:00:23.091	0.00000000E+0	-2.51327412E+1	5.00000000E+0	4.74997151E+0	-6.30000000E+2	2.68229269E-1
32	02/09/2022	16:00:24.523	0.00000000E+0	-2.49233529E+1	5.00000000E+0	6.90291355E-1	-6.30000000E+2	2.71279299E-1
33	02/09/2022	16:00:25.913	0.00000000E+0	-2.47139645E+1	5.00000000E+0	2.06934008E+0	-6.30000000E+2	2.93826174E-1
34	02/09/2022	16:00:27.294	0.00000000E+0	-2.45045761E+1	5.00000000E+0	5.91426293E+0	-6.30000000E+2	3.23608881E-1
35	02/09/2022	16:00:28.785	0.00000000E+0	-2.42948042E+1	5.00000000E+0	1.54510215E+0	-6.30000000E+2	3.47235101E-1
36	02/09/2022	16:00:30.178	0.00000000E+0	-2.40854158E+1	5.00000000E+0	1.05116033E+0	-6.30000000E+2	3.82638220E-1
37	02/09/2022	16:00:31.651	0.00000000E+0	-2.38760275E+1	5.00000000E+0	4.73002976E+0	-6.31000000E+2	4.27119117E-1
38	02/09/2022	16:00:33.154	0.00000000E+0	-2.36666391E+1	5.00000000E+0	4.34116563E+0	-6.31000000E+2	4.60388209E-1
39	02/09/2022	16:00:34.545	0.00000000E+0	-2.34572507E+1	5.00000000E+0	4.55323847E+0	-6.30000000E+2	5.02455561E-1
40	02/09/2022	16:00:36.042	0.00000000E+0	-2.32478623E+1	5.00000000E+0	3.53735970E+0	-6.30000000E+2	5.33204687E-1
41	02/09/2022	16:00:37.434	0.00000000E+0	-2.30384740E+1	5.00000000E+0	5.04602980E+0	-6.31000000E+2	5.67263354E-1
42	02/09/2022	16:00:38.851	0.00000000E+0	-2.28290856E+1	5.00000000E+0	4.94938901E+0	-6.31000000E+2	6.04270228E-1
43	02/09/2022	16:00:40.381	0.00000000E+0	-2.26193137E+1	5.00000000E+0	4.78333559E+0	-6.30000000E+2	6.16110237E-1
44	02/09/2022	16:00:41.776	0.00000000E+0	-2.24099253E+1	5.00000000E+0	4.65831616E+0	-6.31000000E+2	6.35195245E-1
45	02/09/2022	16:00:43.208	0.00000000E+0	-2.22005370E+1	5.00000000E+0	4.51373847E+0	-6.30000000E+2	6.42670004E-1
46	02/09/2022	16:00:44.730	0.00000000E+0	-2.19911486E+1	5.00000000E+0	2.79721397E+0	-6.30000000E+2	6.39383988E-1
47	02/09/2022	16:00:46.118	0.00000000E+0	-2.17817602E+1	5.00000000E+0	5.84715127E+0	-6.31000000E+2	6.28459588E-1
48	02/09/2022	16:00:47.588	0.00000000E+0	-2.15723718E+1	5.00000000E+0	3.91778693E+0	-6.30000000E+2	6.19171864E-1
49	02/09/2022	16:00:48.965	0.00000000E+0	-2.13629834E+1	5.00000000E+0	6.06420955E+0	-6.30000000E+2	5.96308098E-1
50	02/09/2022	16:00:50.392	0.00000000E+0	-2.11532116E+1	5.00000000E+0	1.03543703E-2	-6.30000000E+2	5.58381283E-1
51	02/09/2022	16:00:51.852	0.00000000E+0	-2.09438232E+1	5.00000000E+0	5.81340369E+0	-6.31000000E+2	5.17226893E-1
52	02/09/2022	16:00:53.241	0.00000000E+0	-2.07344348E+1	5.00000000E+0	3.50859756E+0	-6.30000000E+2	4.96747852E-1
53	02/09/2022	16:00:54.655	0.00000000E+0	-2.05250464E+1	5.00000000E+0	2.75771396E+0	-6.30000000E+2	4.47634191E-1
54	02/09/2022	16:00:56.057	0.00000000E+0	-2.03156581E+1	5.00000000E+0	4.12295686E+0	-6.31000000E+2	4.03501180E-1
55	02/09/2022	16:00:57.454	0.00000000E+0	-2.01062697E+1	5.00000000E+0	5.37890363E+0	-6.30000000E+2	3.91898018E-1
56	02/09/2022	16:00:58.996	0.00000000E+0	-1.98968813E+1	5.00000000E+0	6.01819013E+0	-6.30000000E+2	3.37955662E-1
57	02/09/2022	16:01:00.391	0.00000000E+0	-1.96874929E+1	5.00000000E+0	3.89516072E+0	-6.31000000E+2	3.05722795E-1
58	02/09/2022	16:01:01.790	0.00000000E+0	-1.94777211E+1	5.00000000E+0	4.48037439E+0	-6.30000000E+2	2.86385616E-1
59	02/09/2022	16:01:03.300	0.00000000E+0	-1.92683327E+1	5.00000000E+0	1.50790311E+0	-6.30000000E+2	2.75045076E-1
60	02/09/2022	16:01:04.698	0.00000000E+0	-1.90589443E+1	5.00000000E+0	3.97722869E+0	-6.30000000E+2	2.68122034E-1
61	02/09/2022	16:01:06.224	0.00000000E+0	-1.88495559E+1	5.00000000E+0	6.00131634E+0	-6.31000000E+2	2.69846624E-1
62	02/09/2022	16:01:07.610	0.00000000E+0	-1.86401675E+1	5.00000000E+0	9.51068088E-2	-6.30000000E+2	2.72266299E-1
63	02/09/2022	16:01:09.002	0.00000000E+0	-1.84307792E+1	5.00000000E+0	2.28678186E+0	-6.30000000E+2	2.91913877E-1
64	02/09/2022	16:01:10.551	0.00000000E+0	-1.82213908E+1	5.00000000E+0	3.78279662E+0	-6.30000000E+2	3.18011693E-1
65	02/09/2022	16:01:11.932	0.00000000E+0	-1.80116189E+1	5.00000000E+0	4.13906366E+0	-6.31000000E+2	3.47679069E-1
66	02/09/2022	16:01:13.385	0.00000000E+0	-1.78022305E+1	5.00000000E+0	8.04189428E-1	-6.30000000E+2	3.79863385E-1
67	02/09/2022	16:01:14.894	0.00000000E+0	-1.75928422E+1	5.00000000E+0	5.25196672E+0	-6.31000000E+2	4.31716777E-1
68	02/09/2022	16:01:16.306	0.00000000E+0	-1.73834538E+1	5.00000000E+0	3.77359274E-1	-6.30000000E+2	4.67278274E-1
69	02/09/2022	16:01:17.867	0.00000000E+0	-1.71740654E+1	5.00000000E+0	3.49095678E+0	-6.31000000E+2	4.92341892E-1
70	02/09/2022	16:01:19.255	0.00000000E+0	-1.69646770E+1	5.00000000E+0	5.84523379E+0	-6.30000000E+2	5.21942275E-1
71	02/09/2022	16:01:20.646	0.00000000E+0	-1.67552887E+1	5.00000000E+0	3.55960242E+0	-6.31000000E+2	5.69974132E-1
72	02/09/2022	16:01:22.141	0.00000000E+0	-1.65459003E+1	5.00000000E+0	2.75963144E+0	-6.30000000E+2	5.92217519E-1
73	02/09/2022	16:01:23.522	0.00000000E+0	-1.63361284E+1	5.00000000E+0	4.16782580E+0	-6.31000000E+2	6.21773523E-1
74	02/09/2022	16:01:25.039	0.00000000E+0	-1.61267400E+1	5.00000000E+0	1.47338855E+0	-6.30000000E+2	6.32697220E-1
75	02/09/2022	16:01:26.484	0.00000000E+0	-1.59173516E+1	5.00000000E+0	5.25235022E+0	-6.31000000E+2	6.35852137E-1
76	02/09/2022	16:01:27.874	0.00000000E+0	-1.57079633E+1	5.00000000E+0	5.72174834E+0	-6.30000000E+2	6.33048343E-1
77	02/09/2022	16:01:29.391	0.00000000E+0	-1.54985749E+1	5.00000000E+0	4.09112676E+0	-6.30000000E+2	6.30143725E-1
78	02/09/2022	16:01:30.781	0.00000000E+0	-1.52891865E+1	5.00000000E+0	5.59327745E+0	-6.31000000E+2	6.15649561E-1
79	02/09/2022	16:01:32.210	0.00000000E+0	-1.50797981E+1	5.00000000E+0	5.07555893E+0	-6.30000000E+2	5.95698894E-1
80	02/09/2022	16:01:33.698	0.00000000E+0	-1.48700263E+1	5.00000000E+0	4.46886953E+0	-6.31000000E+2	5.62853745E-1
81	02/09/2022	16:01:35.094	0.00000000E+0	-1.46606379E+1	5.00000000E+0	5.26117061E+0	-6.30000000E+2	5.29478614E-1
82	02/09/2022	16:01:36.585	0.00000000E+0	-1.44512495E+1	5.00000000E+0	3.85029178E+0	-6.30000000E+2	4.77421510E-1
83	02/09/2022	16:01:37.973	0.00000000E+0	-1.42418611E+1	5.00000000E+0	2.80565086E+0	-6.30000000E+2	4.62276429E-1
84	02/09/2022	16:01:39.361	0.00000000E+0	-1.40324728E+1	5.00000000E+0	4.97201523E+0	-6.31000000E+2	4.16818218E-1
85	02/09/2022	16:01:40.924	0.00000000E+0	-1.38230844E+1	5.00000000E+0	5.59289395E+0	-6.30000000E+2	3.77371059E-1
86	02/09/2022	16:01:42.306	0.00000000E+0	-1.36136960E+1	5.00000000E+0	3.50744707E+0	-6.30000000E+2	3.38604373E-1
87	02/09/2022	16:01:43.795	0.00000000E+0	-1.34043076E+1	5.00000000E+0	3.66391311E+0	-6.30000000E+2	3.15388879E-1
88	02/09/2022	16:01:45.152	0.00000000E+0	-1.31945357E+1	5.00000000E+0	3.94654907E+0	-6.31000000E+2	2.88763517E-1
89	02/09/2022	16:01:46.540	0.00000000E+0	-1.29851474E+1	5.00000000E+0	5.50890850E+0	-6.30000000E+2	2.71190240E-1
90	02/09/2022	16:01:48.024	0.00000000E+0	-1.27757590E+1	5.00000000E+0	5.27152498E+0	-6.31000000E+2	2.66860390E-1
91	02/09/2022	16:01:49.411	0.00000000E+0	-1.25663706E+1	5.00000000E+0	5.35359295E+0	-6.30000000E+2	2.62318646E-1
92	02/09/2022	16:01:50.865	0.00000000E+0	-1.23569822E+1	5.00000000E+0	3.30381112E+0	-6.30000000E+2	2.78734813E-1
93	02/09/2022	16:01:52.376	0.00000000E+0	-1.21475939E+1	5.00000000E+0	4.86655405E+0	-6.30000000E+2	2.88779397E-1
94	02/09/2022	16:01:53.753	0.00000000E+0	-1.19382055E+1	5.00000000E+0	4.02708306E+0	-6.30000000E+2	3.14577034E-1
95	02/09/2022	16:01:55.227	0.00000000E+0	-1.17284336E+1	5.00000000E+0	5.68454930E+0	-6.31000000E+2	3.52090563E-1
96	02/09/2022	16:01:56.630	0.00000000E+0	-1.15190452E+1	5.00000000E+0	4.01672869E+0	-6.30000000E+2	3.79988170E-1
97	02/09/2022	16:01:58.018	0.00000000E+0	-1.13096569E+1	5.00000000E+0	4.68707830E+0	-6.31000000E+2	4.17668159E-1
98	02/09/2022	16:01:59.515	0.00000000E+0	-1.11002685E+1	5.00000000E+0	5.92500079E+0	-6.31000000E+2	4.53580239E-1
99	02/09/2022	16:02:00.918	0.00000000E+0	-1.08908801E+1	5.00000000E+0	4.74575306E+0	-6.30000000E+2	4.95351534E-1
100	02/09/2022	16:02:02.344	0.00000000E+0	-1.06814917E+1	5.00000000E+0	4.59043751E+0	-6.31000000E+2	5.33613900E-1
101	02/09/2022	16:02:03.833	0.00000000E+0	-1.04721033E+1	5.00000000E+0	2.37767022E-1	-6.29000000E+2	5.51363612E-1
102	02/09/2022	16:02:05.229	0.00000000E+0	-1.02627150E+1	5.00000000E+0	5.51312695E+0	-6.31000000E+2	5.94027154E-1
103	02/09/2022	16:02:06.730	0.00000000E+0	-1.00529431E+1	5.00000000E+0	4.17319473E+0	-6.31000000E+2	6.22936243E-1
104	02/09/2022	16:02:08.122	0.00000000E+0	-9.84355472E+0	5.00000000E+0	5.86747651E+0	-6.30000000E+2	6.37129625E-1
105	02/09/2022	16:02:09.508	0.00000000E+0	-9.63416634E+0	5.00000000E+0	2.46203916E-1	-6.30000000E+2	6.41948741E-1
106	02/09/2022	16:02:11.009	0.00000000E+0	-9.42477796E+0	5.00000000E+0	1.44232544E+0	-6.30000000E+2	6.44266634E-1
107	02/09/2022	16:02:12.400	0.00000000E+0	-9.21538958E+0	5.00000000E+0	2.39416051E+0	-6.30000000E+2	6.26138074E-1
108	02/09/2022	16:02:13.824	0.00000000E+0	-9.00600121E+0	5.00000000E+0	5.29185022E+0	-6.30000000E+2	6.11160320E-1
109	02/09/2022	16:02:15.168	0.00000000E+0	-8.79661283E+0	5.00000000E+0	5.53191822E+0	-6.31000000E+2	5.94502871E-1
110	02/09/2022	16:02:16.551	0.00000000E+0	-8.58684096E+0	5.00000000E+0	3.25012179E+0	-6.30000000E+2	5.56422050E-1
111	02/09/2022	16:02:18.072	0.00000000E+0	-8.37745258E+0	5.00000000E+0	3.96342286E+0	-6.30000000E+2	5.29860727E-1
112	02/09/2022	16:02:19.452	0.00000000E+0	-8.16806420E+0	5.00000000E+0	5.83718039E+0	-6.31000000E+2	4.86370280E-1
113	02/09/2022	16:02:20.915	0.00000000E+0	-7.95867582E+0	5.00000000E+0	1.34990309E-1	-6.30000000E+2	4.43979058E-1
114	02/09/2022	16:02:22.401	0.00000000E+0	-7.74928745E+0	5.00000000E+0	4.24912678E-1	-6.29000000E+2	4.05901413E-1
115	02/09/2022	16:02:23.785	0.00000000E+0	-7.53989907E+0	5.00000000E+0	1.15240307E+0	-6.30000000E+2	3.65749050E-1
116	02/09/2022	16:02:25.274	0.00000000E+0	-7.33051069E+0	5.00000000E+0	4.78410258E+0	-6.30000000E+2	3.43706323E-1
117	02/09/2022	16:02:26.668	0.00000000E+0	-7.12112231E+0	5.00000000E+0	4.28479184E+0	-6.31000000E+2	3.11161649E-1
118	02/09/2022	16:02:28.049	0.00000000E+0	-6.91135044E+0	5.00000000E+0	3.26085966E+0	-6.30000000E+2	2.92565972E-1
119	02/09/2022	16:02:29.583	0.00000000E+0	-6.70196206E+0	5.00000000E+0	5.98942799E+0	-6.31000000E+2	2.72451480E-1
120	02/09/2022	16:02:30.976	0.00000000E+0	-6.49257368E+0	5.00000000E+0	5.36778227E+0	-6.30000000E+2	2.68125373E-1
121	02/09/2022	16:02:32.411	0.00000000E+0	-6.28318531E+0	5.00000000E+0	4.77566569E+0	-6.31000000E+2	2.69999209E-1
122	02/09/2022	16:02:33.897	0.00000000E+0	-6.07379693E+0	5.00000000E+0	6.21799112E+0	-6.30000000E+2	2.76543622E-1
123	02/09/2022	16:02:35.292	0.00000000E+0	-5.86440855E+0	5.00000000E+0	4.44317535E+0	-6.31000000E+2	2.89926171E-1
124	02/09/2022	16:02:36.831	0.00000000E+0	-5.65502017E+0	5.00000000E+0	2.21545175E+0	-6.30000000E+2	3.22063759E-1
125	02/09/2022	16:02:38.213	0.00000000E+0	-5.44524830E+0	5.00000000E+0	5.16184535E+0	-6.31000000E+2	3.57590721E-1
126	02/09/2022	16:02:39.604	0.00000000E+0	-5.23585992E+0	5.00000000E+0	5.77927262E+0	-6.30000000E+2	3.74738832E-1
127	02/09/2022	16:02:41.051	0.00000000E+0	-5.02647155E+0	5.00000000E+0	3.32797132E+0	-6.30000000E+2	4.18457884E-1
128	02/09/2022	16:02:42.444	0.00000000E+0	-4.81708317E+0	5.00000000E+0	6.61529215E-1	-6.30000000E+2	4.48934916E-1
129	02/09/2022	16:02:43.866	0.00000000E+0	-4.60769479E+0	5.00000000E+0	4.07617045E+0	-6.31000000E+2	5.00478250E-1
130	02/09/2022	16:02:45.375	0.00000000E+0	-4.39830641E+0	5.00000000E+0	4.77106375E+0	-6.31000000E+2	5.36468193E-1
131	02/09/2022	16:02:46.761	0.00000000E+0	-4.18891804E+0	5.00000000E+0	5.75894737E+0	-6.30000000E+2	5.72128529E-1
132	02/09/2022	16:02:48.270	0.00000000E+0	-3.97952966E+0	5.00000000E+0	5.52769977E+0	-6.30000000E+2	5.93227848E-1
133	02/09/2022	16:02:49.644	0.00000000E+0	-3.76975779E+0	5.00000000E+0	4.60424333E+0	-6.30000000E+2	6.21237747E-1
134	02/09/2022	16:02:51.033	0.00000000E+0	-3.56036941E+0	5.00000000E+0	5.89930662E+0	-6.31000000E+2	6.36138700E-1
135	02/09/2022	16:02:52.561	0.00000000E+0	-3.35098103E+0	5.00000000E+0	5.59251046E+0	-6.30000000E+2	6.41476904E-1
136	02/09/2022	16:02:53.936	0.00000000E+0	-3.14159265E+0	5.00000000E+0	2.17671874E+0	-6.30000000E+2	6.32089687E-1
137	02/09/2022	16:02:55.415	0.00000000E+0	-2.93220428E+0	5.00000000E+0	5.38772402E+0	-6.31000000E+2	6.18131272E-1
138	02/09/2022	16:02:56.813	0.00000000E+0	-2.72281590E+0	5.00000000E+0	1.60109245E+0	-6.30000000E+2	6.13182309E-1
139	02/09/2022	16:02:58.209	0.00000000E+0	-2.51342752E+0	5.00000000E+0	5.26347158E+0	-6.30000000E+2	5.94825969E-1
140	02/09/2022	16:02:59.777	0.00000000E+0	-2.30365565E+0	5.00000000E+0	2.96288389E+0	-6.30000000E+2	5.58731432E-1
141	02/09/2022	16:03:01.167	0.00000000E+0	-2.09426727E+0	5.00000000E+0	3.75825293E-2	-6.30000000E+2	5.34813733E-1
142	02/09/2022	16:03:02.609	0.00000000E+0	-1.88487889E+0	5.00000000E+0	9.21922454E-1	-6.30000000E+2	4.96847629E-1
143	02/09/2022	16:03:04.047	0.00000000E+0	-1.67549052E+0	5.00000000E+0	3.32567035E+0	-6.30000000E+2	4.65319860E-1
144	02/09/2022	16:03:05.431	0.00000000E+0	-1.46610214E+0	5.00000000E+0	4.46196662E+0	-6.30000000E+2	4.10123421E-1
145	02/09/2022	16:03:06.942	0.00000000E+0	-1.25671376E+0	5.00000000E+0	1.01281082E+0	-6.30000000E+2	3.81602106E-1
146	02/09/2022	16:03:08.321	0.00000000E+0	-1.04732538E+0	5.00000000E+0	4.68746179E+0	-6.31000000E+2	3.43739017E-1
147	02/09/2022	16:03:09.779	0.00000000E+0	-8.37937005E-1	5.00000000E+0	4.59388896E+0	-6.31000000E+2	3.19698956E-1
148	02/09/2022	16:03:11.277	0.00000000E+0	-6.28165133E-1	5.00000000E+0	5.10432107E-1	-6.30000000E+2	2.98162449E-1
149	02/09/2022	16:03:12.666	0.00000000E+0	-4.18776755E-1	5.00000000E+0	1.82543714E+0	-6.30000000E+2	2.73060343E-1
150	02/09/2022	16:03:14.149	0.00000000E+0	-2.09388378E-1	5.00000000E+0	1.58268468E+0	-6.30000000E+2	2.77021000E-1
151	02/09/2022	16:03:15.564	0.00000000E+0	0.00000000E+0	5.00000000E+0	1.59764099E+0	-6.30000000E+2	2.75543095E-1
152	02/09/2022	16:03:16.954	0.00000000E+0	2.09388378E-1	5.00000000E+0	8.69767107E-1	-6.30000000E+2	2.74736362E-1
153	02/09/2022	16:03:18.502	0.00000000E+0	4.18776755E-1	5.00000000E+0	1.04195645E+0	-6.30000000E+2	2.92634744E-1
154	02/09/2022	16:03:19.897	0.00000000E+0	6.28165133E-1	5.00000000E+0	2.26760710E+0	-6.30000000E+2	3.21179882E-1
155	02/09/2022	16:03:21.313	0.00000000E+0	8.37937005E-1	5.00000000E+0	1.81584976E+0	-6.30000000E+2	3.41775437E-1
156	02/09/2022	16:03:22.799	0.00000000E+0	1.04732538E+0	5.00000000E+0	2.60930132E+0	-6.30000000E+2	3.76657926E-1
157	02/09/2022	16:03:24.187	0.00000000E+0	1.25671376E+0	5.00000000E+0	2.46702460E+0	-6.30000000E+2	4.20918955E-1
158	02/09/2022	16:03:25.715	0.00000000E+0	1.46610214E+0	5.00000000E+0	8.82805943E-1	-6.30000000E+2	4.62059666E-1
159	02/09/2022	16:03:27.112	0.00000000E+0	1.67549052E+0	5.00000000E+0	4.49686468E+0	-6.31000000E+2	4.92214617E-1
160	02/09/2022	16:03:28.495	0.00000000E+0	1.88487889E+0	5.00000000E+0	1.18883511E-2	-6.30000000E+2	5.32246213E-1
161	02/09/2022	16:03:29.946	0.00000000E+0	2.09426727E+0	5.00000000E+0	4.28134038E+0	-6.31000000E+2	5.65269137E-1
162	02/09/2022	16:03:31.339	0.00000000E+0	2.30365565E+0	5.00000000E+0	5.99939886E+0	-6.30000000E+2	5.85921961E-1
163	02/09/2022	16:03:32.804	0.00000000E+0	2.51342752E+0	5.00000000E+0	4.61574819E+0	-6.30000000E+2	6.11990687E-1
164	02/09/2022	16:03:34.315	0.00000000E+0	2.72281590E+0	5.00000000E+0	1.62295167E+0	-6.30000000E+2	6.35483243E-1
165	02/09/2022	16:03:35.711	0.00000000E+0	2.93220428E+0	5.00000000E+0	4.12410735E+0	-6.30000000E+2	6.42256554E-1
166	02/09/2022	16:03:37.252	0.00000000E+0	3.14159265E+0	5.00000000E+0	4.60846178E+0	-6.31000000E+2	6.44227243E-1
167	02/09/2022	16:03:38.656	0.00000000E+0	3.35098103E+0	5.00000000E+0	5.64351532E+0	-6.31000000E+2	6.30619015E-1
168	02/09/2022	16:03:40.063	0.00000000E+0	3.56036941E+0	5.00000000E+0	3.30572860E+0	-6.30000000E+2	6.16957265E-1
169	02/09/2022	16:03:41.558	0.00000000E+0	3.76975779E+0	5.00000000E+0	5.33365120E+0	-6.30000000E+2	5.96043445E-1
170	02/09/2022	16:03:42.942	0.00000000E+0	3.97952966E+0	5.00000000E+0	5.58138910E+0	-6.31000000E+2	5.58211726E-1
171	02/09/2022	16:03:44.489	0.00000000E+0	4.18891804E+0	5.00000000E+0	2.21851971E+0	-6.30000000E+2	5.21949139E-1
172	02/09/2022	16:03:45.871	0.00000000E+0	4.39830641E+0	5.00000000E+0	4.69168024E+0	-6.31000000E+2	4.89175100E-1
173	02/09/2022	16:03:47.255	0.00000000E+0	4.60769479E+0	5.00000000E+0	3.52278688E+0	-6.30000000E+2	4.42864984E-1
174	02/09/2022	16:03:48.734	0.00000000E+0	4.81708317E+0	5.00000000E+0	1.30465066E+0	-6.30000000E+2	4.16304620E-1
175	02/09/2022	16:03:50.120	0.00000000E+0	5.02647155E+0	5.00000000E+0	4.97738416E+0	-6.31000000E+2	3.74368275E-1
176	02/09/2022	16:03:51.585	0.00000000E+0	5.23585992E+0	5.00000000E+0	2.30173817E+0	-6.30000000E+2	3.40083807E-1
177	02/09/2022	16:03:53.108	0.00000000E+0	5.44524830E+0	5.00000000E+0	5.44869976E+0	-6.30000000E+2	3.18544893E-1
178	02/09/2022	16:03:54.494	0.00000000E+0	5.65502017E+0	5.00000000E+0	4.03513646E+0	-6.31000000E+2	2.88295025E-1
179	02/09/2022	16:03:55.999	0.00000000E+0	5.86440855E+0	5.00000000E+0	3.49862668E+0	-6.31000000E+2	2.72239370E-1
180	02/09/2022	16:03:57.384	0.00000000E+0	6.07379693E+0	5.00000000E+0	4.41901515E+0	-6.30000000E+2	2.70078924E-1
181	02/09/2022	16:03:58.800	0.00000000E+0	6.28318531E+0	5.00000000E+0	5.34975800E+0	-6.30000000E+2	2.65119124E-1
182	02/09/2022	16:04:00.354	0.00000000E+0	6.49257368E+0	5.00000000E+0	5.66038911E-1	-6.29000000E+2	2.70802462E-1
183	02/09/2022	16:04:01.737	0.00000000E+0	6.70196206E+0	5.00000000E+0	1.37214581E+0	-6.30000000E+2	2.97452366E-1
184	02/09/2022	16:04:03.237	0.00000000E+0	6.91135044E+0	5.00000000E+0	4.03360248E+0	-6.30000000E+2	3.13567794E-1
185	02/09/2022	16:04:04.686	0.00000000E+0	7.12112231E+0	5.00000000E+0	5.65310270E+0	-6.30000000E+2	3.40240433E-1
186	02/09/2022	16:04:06.070	0.00000000E+0	7.33051069E+0	5.00000000E+0	1.40014096E+0	-6.30000000E+2	3.73513726E-1
187	02/09/2022	16:04:07.615	0.00000000E+0	7.53989907E+0	5.00000000E+0	4.06236462E+0	-6.30000000E+2	4.13312327E-1
188	02/09/2022	16:04:08.999	0.00000000E+0	7.74928745E+0	5.00000000E+0	4.65448121E+0	-6.31000000E+2	4.49964359E-1
189	02/09/2022	16:04:10.418	0.00000000E+0	7.95867582E+0	5.00000000E+0	4.61268023E+0	-6.31000000E+2	4.97890744E-1
190	02/09/2022	16:04:11.925	0.00000000E+0	8.16806420E+0	5.00000000E+0	3.94846655E+0	-6.31000000E+2	5.34047269E-1
191	02/09/2022	16:04:13.303	0.00000000E+0	8.37745258E+0	5.00000000E+0	1.42736912E+0	-6.30000000E+2	5.71664299E-1
192	02/09/2022	16:04:14.803	0.00000000E+0	8.58684096E+0	5.00000000E+0	5.06175310E+0	-6.31000000E+2	5.92955368E-1
193	02/09/2022	16:04:16.199	0.00000000E+0	8.79661283E+0	5.00000000E+0	2.82252465E+0	-6.30000000E+2	6.21908413E-1
194	02/09/2022	16:04:17.576	0.00000000E+0	9.00600121E+0	5.00000000E+0	4.60731130E+0	-6.31000000E+2	6.39264062E-1
195	02/09/2022	16:04:19.088	0.00000000E+0	9.21538958E+0	5.00000000E+0	5.94992798E+0	-6.31000000E+2	6.40522254E-1
196	02/09/2022	16:04:20.473	0.00000000E+0	9.42477796E+0	5.00000000E+0	5.73248620E+0	-6.30000000E+2	6.48309323E-1
197	02/09/2022	16:04:21.915	0.00000000E+0	9.63416634E+0	5.00000000E+0	4.15478696E+0	-6.31000000E+2	6.40123777E-1
198	02/09/2022	16:04:23.313	0.00000000E+0	9.84355472E+0	5.00000000E+0	3.95460247E+0	-6.30000000E+2	6.22245671E-1
199	02/09/2022	16:04:24.691	0.00000000E+0	1.00529431E+1	5.00000000E+0	5.96373381E+0	-6.31000000E+2	5.94078494E-1
200	02/09/2022	16:04:26.240	0.00000000E+0	1.02627150E+1	5.00000000E+0	5.54764152E+0	-6.31000000E+2	5.65813086E-1
201	02/09/2022	16:04:27.629	0.00000000E+0	1.04721033E+1	5.00000000E+0	2.33817022E+0	-6.30000000E+2	5.35589128E-1
202	02/09/2022	16:04:29.061	0.00000000E+0	1.06814917E+1	5.00000000E+0	5.41073373E+0	-6.30000000E+2	5.06729529E-1
203	02/09/2022	16:04:30.563	0.00000000E+0	1.08908801E+1	5.00000000E+0	4.79867540E+0	-6.30000000E+2	4.52884138E-1
204	02/09/2022	16:04:31.952	0.00000000E+0	1.11002685E+1	5.00000000E+0	5.00307834E+0	-6.31000000E+2	4.14014659E-1
205	02/09/2022	16:04:33.471	0.00000000E+0	1.13096569E+1	5.00000000E+0	2.74774309E+0	-6.30000000E+2	3.87442003E-1
206	02/09/2022	16:04:34.852	0.00000000E+0	1.15190452E+1	5.00000000E+0	5.84830175E+0	-6.30000000E+2	3.45658442E-1
207	02/09/2022	16:04:36.244	0.00000000E+0	1.17284336E+1	5.00000000E+0	5.37238421E+0	-6.31000000E+2	3.11413509E-1
208	02/09/2022	16:04:37.782	0.00000000E+0	1.19382055E+1	5.00000000E+0	6.06420955E+0	-6.31000000E+2	2.89086143E-1
209	02/09/2022	16:04:39.158	0.00000000E+0	1.21475939E+1	5.00000000E+0	4.15286949E+0	-6.31000000E+2	2.72592639E-1
210	02/09/2022	16:04:40.549	0.00000000E+0	1.23569822E+1	5.00000000E+0	5.75971436E+0	-6.30000000E+2	2.62252174E-1
211	02/09/2022	16:04:42.049	0.00000000E+0	1.25663706E+1	5.00000000E+0	3.63323350E+0	-6.30000000E+2	2.63357600E-1
212	02/09/2022	16:04:43.433	0.00000000E+0	1.27757590E+1	5.00000000E+0	2.70325764E+0	-6.30000000E+2	2.72174502E-1
213	02/09/2022	16:04:44.904	0.00000000E+0	1.29851474E+1	5.00000000E+0	3.84837430E+0	-6.31000000E+2	2.88958366E-1
214	02/09/2022	16:04:46.303	0.00000000E+0	1.31945357E+1	5.00000000E+0	5.66997649E+0	-6.30000000E+2	3.10127976E-1
215	02/09/2022	16:04:47.683	0.00000000E+0	1.34043076E+1	5.00000000E+0	3.32106841E-1	-6.30000000E+2	3.48374159E-1
216	02/09/2022	16:04:49.171	0.00000000E+0	1.36136960E+1	5.00000000E+0	5.01688417E+0	-6.30000000E+2	3.76199377E-1
217	02/09/2022	16:04:50.551	0.00000000E+0	1.38230844E+1	5.00000000E+0	3.03152953E+0	-6.30000000E+2	4.06054416E-1
218	02/09/2022	16:04:52.029	0.00000000E+0	1.40324728E+1	5.00000000E+0	5.15110749E+0	-6.31000000E+2	4.64613418E-1
219	02/09/2022	16:04:53.473	0.00000000E+0	1.42418611E+1	5.00000000E+0	2.95636447E+0	-6.30000000E+2	4.97978219E-1
220	02/09/2022	16:04:54.846	0.00000000E+0	1.44512495E+1	5.00000000E+0	2.58092268E-1	-6.30000000E+2	5.27760505E-1
221	02/09/2022	16:04:56.375	0.00000000E+0	1.46606379E+1	5.00000000E+0	3.79200051E+0	-6.30000000E+2	5.68439849E-1
222	02/09/2022	16:04:57.789	0.00000000E+0	1.48700263E+1	5.00000000E+0	4.12103939E+0	-6.30000000E+2	6.00580542E-1
223	02/09/2022	16:04:59.226	0.00000000E+0	1.50797981E+1	5.00000000E+0	5.77812213E+0	-6.31000000E+2	6.28353507E-1
224	02/09/2022	16:05:00.732	0.00000000E+0	1.52891865E+1	5.00000000E+0	5.76239883E+0	-6.31000000E+2	6.35433305E-1
225	02/09/2022	16:05:02.136	0.00000000E+0	1.54985749E+1	5.00000000E+0	5.24429682E+0	-6.30000000E+2	6.47117152E-1
226	02/09/2022	16:05:03.663	0.00000000E+0	1.57079633E+1	5.00000000E+0	5.08246185E+0	-6.31000000E+2	6.45719142E-1
227	02/09/2022	16:05:05.075	0.00000000E+0	1.59173516E+1	5.00000000E+0	3.15002955E+0	-6.31000000E+2	6.34868656E-1
228	02/09/2022	16:05:06.469	0.00000000E+0	1.61267400E+1	5.00000000E+0	5.61436968E+0	-6.30000000E+2	6.22293113E-1
229	02/09/2022	16:05:08.017	0.00000000E+0	1.63361284E+1	5.00000000E+0	4.90567056E+0	-6.30000000E+2	5.93498108E-1
230	02/09/2022	16:05:09.410	0.00000000E+0	1.65459003E+1	5.00000000E+0	4.44816079E+0	-6.31000000E+2	5.59794930E-1
231	02/09/2022	16:05:10.796	0.00000000E+0	1.67552887E+1	5.00000000E+0	5.21323371E+0	-6.30000000E+2	5.27577394E-1
232	02/09/2022	16:05:12.290	0.00000000E+0	1.69646770E+1	5.00000000E+0	7.13684562E-1	-6.30000000E+2	5.01775737E-1
233	02/09/2022	16:05:13.729	0.00000000E+0	1.71740654E+1	5.00000000E+0	3.00123341E+0	-6.30000000E+2	4.55022978E-1
234	02/09/2022	16:05:15.289	0.00000000E+0	1.73834538E+1	5.00000000E+0	4.59925790E+0	-6.31000000E+2	4.13710719E-1
235	02/09/2022	16:05:16.683	0.00000000E+0	1.75928422E+1	5.00000000E+0	5.27152498E+0	-6.30000000E+2	3.73546040E-1
236	02/09/2022	16:05:18.134	0.00000000E+0	1.78022305E+1	5.00000000E+0	2.22580612E+0	-6.30000000E+2	3.37406296E-1
237	02/09/2022	16:05:19.634	0.00000000E+0	1.80116189E+1	5.00000000E+0	4.67864140E-2	-6.30000000E+2	3.04066746E-1
238	02/09/2022	16:05:21.024	0.00000000E+0	1.82213908E+1	5.00000000E+0	5.68723377E+0	-6.30000000E+2	2.97513983E-1
239	02/09/2022	16:05:22.449	0.00000000E+0	1.84307792E+1	5.00000000E+0	6.16085034E+0	-6.31000000E+2	2.70411223E-1
240	02/09/2022	16:05:23.969	0.00000000E+0	1.86401675E+1	5.00000000E+0	4.54096663E+0	-6.31000000E+2	2.66646904E-1
241	02/09/2022	16:05:25.351	0.00000000E+0	1.88495559E+1	5.00000000E+0	5.65617066E+0	-6.30000000E+2	2.70795502E-1
242	02/09/2022	16:05:26.838	0.00000000E+0	1.90589443E+1	5.00000000E+0	4.39638894E+0	-6.31000000E+2	2.69919884E-1
243	02/09/2022	16:05:28.237	0.00000000E+0	1.92683327E+1	5.00000000E+0	3.12548586E+0	-6.30000000E+2	2.84237234E-1
244	02/09/2022	16:05:29.690	0.00000000E+0	1.94777211E+1	5.00000000E+0	6.20456879E+0	-6.30000000E+2	3.12084068E-1
245	02/09/2022	16:05:31.181	0.00000000E+0	1.96874929E+1	5.00000000E+0	5.64543279E+0	-6.31000000E+2	3.51980510E-1
246	02/09/2022	16:05:32.574	0.00000000E+0	1.98968813E+1	5.00000000E+0	1.68354391E+0	-6.30000000E+2	3.78146810E-1
247	02/09/2022	16:05:34.038	0.00000000E+0	2.01062697E+1	5.00000000E+0	5.81723864E+0	-6.31000000E+2	4.19983815E-1
248	02/09/2022	16:05:35.429	0.00000000E+0	2.03156581E+1	5.00000000E+0	6.00783576E+0	-6.30000000E+2	4.58469150E-1
249	02/09/2022	16:05:36.806	0.00000000E+0	2.05250464E+1	5.00000000E+0	4.81363171E+0	-6.30000000E+2	4.96226503E-1
250	02/09/2022	16:05:38.363	0.00000000E+0	2.07344348E+1	5.00000000E+0	3.80772381E+0	-6.30000000E+2	5.35609102E-1
251	02/09/2022	16:05:39.757	0.00000000E+0	2.09438232E+1	5.00000000E+0	5.98099109E+0	-6.31000000E+2	5.64348599E-1
252	02/09/2022	16:05:41.206	0.00000000E+0	2.11532116E+1	5.00000000E+0	3.29230627E+0	-6.31000000E+2	5.96289329E-1
253	02/09/2022	16:05:42.624	0.00000000E+0	2.13629834E+1	5.00000000E+0	4.66215111E+0	-6.31000000E+2	6.27841269E-1
254	02/09/2022	16:05:44.010	0.00000000E+0	2.15723718E+1	5.00000000E+0	4.62686955E+0	-6.30000000E+2	6.44441627E-1
255	02/09/2022	16:05:45.559	0.00000000E+0	2.17817602E+1	5.00000000E+0	4.60002489E+0	-6.30000000E+2	6.45819594E-1
256	02/09/2022	16:05:46.940	0.00000000E+0	2.19911486E+1	5.00000000E+0	3.95575296E+0	-6.30000000E+2	6.41863921E-1
257	02/09/2022	16:05:48.318	0.00000000E+0	2.22005370E+1	5.00000000E+0	5.62088910E+0	-6.31000000E+2	6.31664706E-1
258	02/09/2022	16:05:49.905	0.00000000E+0	2.24099253E+1	5.00000000E+0	4.24797630E+0	-6.30000000E+2	6.26094350E-1
259	02/09/2022	16:05:51.294	0.00000000E+0	2.26193137E+1	5.00000000E+0	4.70855403E+0	-6.31000000E+2	5.95291897E-1
260	02/09/2022	16:05:52.785	0.00000000E+0	2.28290856E+1	5.00000000E+0	1.32689338E+0	-6.30000000E+2	5.75519071E-1
261	02/09/2022	16:05:54.180	0.00000000E+0	2.30384740E+1	5.00000000E+0	3.42768007E+0	-6.30000000E+2	5.43273035E-1
262	02/09/2022	16:05:55.589	0.00000000E+0	2.32478623E+1	5.00000000E+0	5.67572892E-1	-6.30000000E+2	4.94333643E-1
263	02/09/2022	16:05:57.098	0.00000000E+0	2.34572507E+1	5.00000000E+0	1.73109732E+0	-6.30000000E+2	4.53186657E-1
264	02/09/2022	16:05:58.488	0.00000000E+0	2.36666391E+1	5.00000000E+0	2.92721884E+0	-6.30000000E+2	4.13129302E-1
265	02/09/2022	16:05:59.880	0.00000000E+0	2.38760275E+1	5.00000000E+0	1.65286430E+0	-6.30000000E+2	3.75898203E-1
266	02/09/2022	16:06:01.388	0.00000000E+0	2.40854158E+1	5.00000000E+0	2.08007795E+0	-6.30000000E+2	3.45777261E-1
267	02/09/2022	16:06:02.799	0.00000000E+0	2.42948042E+1	5.00000000E+0	1.09066034E+0	-6.30000000E+2	3.12398500E-1
268	02/09/2022	16:06:04.325	0.00000000E+0	2.45045761E+1	5.00000000E+0	3.78356361E+0	-6.30000000E+2	2.93099334E-1
269	02/09/2022	16:06:05.710	0.00000000E+0	2.47139645E+1	5.00000000E+0	2.66414113E+0	-6.31000000E+2	2.74425272E-1
270	02/09/2022	16:06:07.136	0.00000000E+0	2.49233529E+1	5.00000000E+0	2.48236441E+0	-6.30000000E+2	2.63631794E-1
271	02/09/2022	16:06:08.586	0.00000000E+0	2.51327412E+1	5.00000000E+0	4.32084038E+0	-6.31000000E+2	2.67794941E-1
272	02/09/2022	16:06:09.966	0.00000000E+0	2.53421296E+1	5.00000000E+0	4.10263162E+0	-6.30000000E+2	2.78880444E-1
273	02/09/2022	16:06:11.418	0.00000000E+0	2.55515180E+1	5.00000000E+0	6.04081634E+0	-6.31000000E+2	3.02085529E-1
274	02/09/2022	16:06:12.950	0.00000000E+0	2.57609064E+1	5.00000000E+0	1.38173319E+0	-6.30000000E+2	3.18074194E-1
275	02/09/2022	16:06:14.336	0.00000000E+0	2.59706782E+1	5.00000000E+0	4.78486957E+0	-6.31000000E+2	3.41264923E-1
276	02/09/2022	16:06:15.859	0.00000000E+0	2.61800666E+1	5.00000000E+0	4.91103949E+0	-6.30000000E+2	3.95919349E-1
277	02/09/2022	16:06:17.247	0.00000000E+0	2.63894550E+1	5.00000000E+0	5.39807839E+0	-6.31000000E+2	4.28676111E-1
278	02/09/2022	16:06:18.695	0.00000000E+0	2.65988434E+1	5.00000000E+0	4.08384035E+0	-6.30000000E+2	4.52399794E-1
279	02/09/2022	16:06:20.173	0.00000000E+0	2.68082317E+1	5.00000000E+0	5.12579680E+0	-6.31000000E+2	4.97217294E-1
280	02/09/2022	16:06:21.567	0.00000000E+0	2.70176201E+1	5.00000000E+0	4.35803942E+0	-6.30000000E+2	5.37368975E-1
281	02/09/2022	16:06:23.095	0.00000000E+0	2.72270085E+1	5.00000000E+0	5.25388420E+0	-6.31000000E+2	5.74890294E-1
282	02/09/2022	16:06:24.494	0.00000000E+0	2.74363969E+1	5.00000000E+0	2.60316540E+0	-6.30000000E+2	5.96909569E-1
283	02/09/2022	16:06:25.890	0.00000000E+0	2.76461687E+1	5.00000000E+0	3.76247138E+0	-6.30000000E+2	6.25175138E-1
284	02/09/2022	16:06:27.412	0.00000000E+0	2.78555571E+1	5.00000000E+0	3.23708296E+0	-6.30000000E+2	6.32843367E-1
285	02/09/2022	16:06:28.812	0.00000000E+0	2.80649455E+1	5.00000000E+0	4.41786467E+0	-6.30000000E+2	6.42943127E-1
286	02/09/2022	16:06:30.241	0.00000000E+0	2.82743339E+1	5.00000000E+0	1.58613613E+0	-6.30000000E+2	6.42220312E-1
287	02/09/2022	16:06:31.748	0.00000000E+0	2.84837223E+1	5.00000000E+0	2.75119454E+0	-6.30000000E+2	6.39461100E-1
288	02/09/2022	16:06:33.154	0.00000000E+0	2.86931106E+1	5.00000000E+0	5.79039398E+0	-6.30000000E+2	6.23766360E-1
289	02/09/2022	16:06:34.703	0.00000000E+0	2.89024990E+1	5.00000000E+0	6.06842800E+0	-6.30000000E+2	6.04865000E-1
290	02/09/2022	16:06:36.087	0.00000000E+0	2.91122709E+1	5.00000000E+0	2.30097118E-3	-6.30000000E+2	5.75898814E-1
291	02/09/2022	16:06:37.585	0.00000000E+0	2.93216593E+1	5.00000000E+0	3.04955381E+0	-6.30000000E+2	5.43913145E-1
292	02/09/2022	16:06:39.069	0.00000000E+0	2.95310476E+1	5.00000000E+0	1.33111183E+0	-6.30000000E+2	4.97084046E-1
293	02/09/2022	16:06:40.450	0.00000000E+0	2.97404360E+1	5.00000000E+0	2.66145667E-1	-6.29000000E+2	4.66175529E-1
294	02/09/2022	16:06:41.973	0.00000000E+0	2.99498244E+1	5.00000000E+0	5.19751040E+0	-6.31000000E+2	4.07419773E-1
295	02/09/2022	16:06:43.394	0.00000000E+0	3.01592128E+1	5.00000000E+0	4.17434522E+0	-6.31000000E+2	3.69207399E-1
296	02/09/2022	16:06:44.774	0.00000000E+0	3.03686012E+1	5.00000000E+0	2.12916533E+0	-6.30000000E+2	3.45487664E-1
297	02/09/2022	16:06:46.327	0.00000000E+0	3.05779895E+1	5.00000000E+0	3.97761218E+0	-6.30000000E+2	3.00532672E-1
298	02/09/2022	16:06:47.704	0.00000000E+0	3.07877614E+1	5.00000000E+0	5.80573379E+0	-6.30000000E+2	2.87207606E-1
299	02/09/2022	16:06:49.143	0.00000000E+0	3.09971498E+1	5.00000000E+0	3.86448110E+0	-6.31000000E+2	2.72524314E-1
300	02/09/2022	16:06:50.667	0.00000000E+0	3.12065382E+1	5.00000000E+0	5.28149585E+0	-6.30000000E+2	2.70260995E-1
301	02/09/2022	16:06:52.056	0.00000000E+0	3.14159265E+1	5.00000000E+0	5.51389394E+0	-6.31000000E+2	2.66946400E-1
