#Iteration	Date	Time	STSX	STSY	RotationRateX	RotationRateY	FrCntX	FrCntY	TiptiltCmd1	TiptiltCmd2	TiptiltMonitor1	TiptiltMonitor2
1	02/09/2022	15:59:39.608	0.00000E+0	0.00000E+0	0.00000E+0	0.00000E+0	0.00000E+0	0.00000E+0	2.00000E+1	1.40000E+1	2.00023E+1	1.39994E+1
2	02/09/2022	15:59:41.017	0.00000E+0	0.00000E+0	0.00000E+0	0.00000E+0	0.00000E+0	0.00000E+0	2.00000E+1	1.40000E+1	1.99981E+1	1.40002E+1
3	02/09/2022	15:59:42.409	0.00000E+0	0.00000E+0	0.00000E+0	0.00000E+0	0.00000E+0	0.00000E+0	2.00000E+1	1.40000E+1	2.00005E+1	1.39989E+1
4	02/09/2022	15:59:43.926	0.00000E+0	0.00000E+0	0.00000E+0	0.00000E+0	0.00000E+0	0.00000E+0	2.00000E+1	1.40000E+1	2.00004E+1	1.40008E+1
5	02/09/2022	15:59:45.304	0.00000E+0	0.00000E+0	0.00000E+0	0.00000E+0	0.00000E+0	0.00000E+0	2.00000E+1	1.40000E+1	1.99993E+1	1.40015E+1
6	02/09/2022	15:59:46.783	0.00000E+0	0.00000E+0	0.00000E+0	0.00000E+0	0.00000E+0	0.00000E+0	2.00000E+1	1.40000E+1	2.00005E+1	1.40020E+1
7	02/09/2022	15:59:48.161	0.00000E+0	0.00000E+0	0.00000E+0	0.00000E+0	0.00000E+0	0.00000E+0	2.00000E+1	1.40000E+1	2.00002E+1	1.39995E+1
8	02/09/2022	15:59:49.547	0.00000E+0	0.00000E+0	0.00000E+0	0.00000E+0	0.00000E+0	0.00000E+0	2.00000E+1	1.40000E+1	2.00009E+1	1.40006E+1
9	02/09/2022	15:59:51.094	0.00000E+0	0.00000E+0	0.00000E+0	0.00000E+0	0.00000E+0	0.00000E+0	2.00000E+1	1.40000E+1	2.00003E+1	1.40002E+1
10	02/09/2022	15:59:52.484	0.00000E+0	0.00000E+0	0.00000E+0	0.00000E+0	0.00000E+0	0.00000E+0	2.00000E+1	1.40000E+1	1.99991E+1	1.39981E+1
11	02/09/2022	15:59:53.911	0.00000E+0	0.00000E+0	0.00000E+0	0.00000E+0	0.00000E+0	0.00000E+0	2.00000E+1	1.40000E+1	1.99980E+1	1.39989E+1
12	02/09/2022	15:59:55.421	0.00000E+0	0.00000E+0	0.00000E+0	0.00000E+0	0.00000E+0	0.00000E+0	2.00000E+1	1.40000E+1	2.00012E+1	1.40008E+1
13	02/09/2022	15:59:56.811	0.00000E+0	0.00000E+0	0.00000E+0	0.00000E+0	0.00000E+0	0.00000E+0	2.00000E+1	1.40000E+1	2.00002E+1	1.39990E+1
14	02/09/2022	15:59:58.471	0.00000E+0	0.00000E+0	0.00000E+0	0.00000E+0	0.00000E+0	0.00000E+0	2.00000E+1	1.40000E+1	1.99991E+1	1.39987E+1
15	02/09/2022	15:59:59.879	0.00000E+0	0.00000E+0	0.00000E+0	0.00000E+0	0.00000E+0	0.00000E+0	2.00000E+1	1.40000E+1	2.00006E+1	1.39982E+1
16	02/09/2022	16:00:01.277	0.00000E+0	0.00000E+0	0.00000E+0	0.00000E+0	0.00000E+0	0.00000E+0	2.00000E+1	1.40000E+1	1.99991E+1	1.39995E+1
17	02/09/2022	16:00:02.737	0.00000E+0	0.00000E+0	0.00000E+0	0.00000E+0	0.00000E+0	0.00000E+0	2.00000E+1	1.40000E+1	1.99996E+1	1.40029E+1
18	02/09/2022	16:00:04.149	0.00000E+0	0.00000E+0	0.00000E+0	0.00000E+0	0.00000E+0	0.00000E+0	2.00000E+1	1.40000E+1	2.00007E+1	1.40002E+1
19	02/09/2022	16:00:05.574	0.00000E+0	0.00000E+0	0.00000E+0	0.00000E+0	0.00000E+0	0.00000E+0	2.00000E+1	1.40000E+1	1.99988E+1	1.39998E+1
20	02/09/2022	16:00:07.087	0.00000E+0	0.00000E+0	0.00000E+0	0.00000E+0	0.00000E+0	0.00000E+0	2.00000E+1	1.40000E+1	2.00001E+1	1.40004E+1
21	02/09/2022	16:00:08.568	0.00000E+0	0.00000E+0	0.00000E+0	0.00000E+0	0.00000E+0	0.00000E+0	2.00000E+1	1.40000E+1	2.00012E+1	1.39991E+1
22	02/09/2022	16:00:10.106	0.00000E+0	0.00000E+0	0.00000E+0	0.00000E+0	0.00000E+0	0.00000E+0	2.00000E+1	1.40000E+1	1.99994E+1	1.40023E+1
23	02/09/2022	16:00:11.494	0.00000E+0	0.00000E+0	0.00000E+0	0.00000E+0	0.00000E+0	0.00000E+0	2.00000E+1	1.40000E+1	2.00017E+1	1.39980E+1
24	02/09/2022	16:00:12.942	0.00000E+0	0.00000E+0	0.00000E+0	0.00000E+0	0.00000E+0	0.00000E+0	2.00000E+1	1.40000E+1	2.00009E+1	1.39996E+1
25	02/09/2022	16:00:14.423	0.00000E+0	0.00000E+0	0.00000E+0	0.00000E+0	0.00000E+0	0.00000E+0	2.00000E+1	1.40000E+1	2.00006E+1	1.40008E+1
26	02/09/2022	16:00:15.813	0.00000E+0	0.00000E+0	0.00000E+0	0.00000E+0	0.00000E+0	0.00000E+0	2.00000E+1	1.40000E+1	2.00030E+1	1.40010E+1
27	02/09/2022	16:00:17.330	0.00000E+0	0.00000E+0	0.00000E+0	0.00000E+0	0.00000E+0	0.00000E+0	2.00000E+1	1.40000E+1	1.99990E+1	1.40021E+1
28	02/09/2022	16:00:18.742	0.00000E+0	0.00000E+0	0.00000E+0	0.00000E+0	0.00000E+0	0.00000E+0	2.00000E+1	1.40000E+1	2.00019E+1	1.40013E+1
29	02/09/2022	16:00:20.119	0.00000E+0	0.00000E+0	0.00000E+0	0.00000E+0	0.00000E+0	0.00000E+0	2.00000E+1	1.40000E+1	2.00001E+1	1.40008E+1
30	02/09/2022	16:00:21.699	0.00000E+0	0.00000E+0	0.00000E+0	0.00000E+0	0.00000E+0	0.00000E+0	2.00000E+1	1.40000E+1	2.00000E+1	1.40028E+1
31	02/09/2022	16:00:23.091	0.00000E+0	0.00000E+0	0.00000E+0	0.00000E+0	0.00000E+0	0.00000E+0	2.00000E+1	1.40000E+1	1.99981E+1	1.39999E+1
32	02/09/2022	16:00:24.523	0.00000E+0	0.00000E+0	0.00000E+0	0.00000E+0	0.00000E+0	0.00000E+0	2.00000E+1	1.40000E+1	1.99976E+1	1.39993E+1
33	02/09/2022	16:00:25.913	0.00000E+0	0.00000E+0	0.00000E+0	0.00000E+0	0.00000E+0	0.00000E+0	2.00000E+1	1.40000E+1	2.00012E+1	1.40006E+1
34	02/09/2022	16:00:27.294	0.00000E+0	0.00000E+0	0.00000E+0	0.00000E+0	0.00000E+0	0.00000E+0	2.00000E+1	1.40000E+1	2.00012E+1	1.39994E+1
35	02/09/2022	16:00:28.785	0.00000E+0	0.00000E+0	0.00000E+0	0.00000E+0	0.00000E+0	0.00000E+0	2.00000E+1	1.40000E+1	2.00009E+1	1.40008E+1
36	02/09/2022	16:00:30.178	0.00000E+0	0.00000E+0	0.00000E+0	0.00000E+0	0.00000E+0	0.00000E+0	2.00000E+1	1.40000E+1	1.99994E+1	1.40014E+1
37	02/09/2022	16:00:31.651	0.00000E+0	0.00000E+0	0.00000E+0	0.00000E+0	0.00000E+0	0.00000E+0	2.00000E+1	1.40000E+1	1.99974E+1	1.39995E+1
38	02/09/2022	16:00:33.154	0.00000E+0	0.00000E+0	0.00000E+0	0.00000E+0	0.00000E+0	0.00000E+0	2.00000E+1	1.40000E+1	2.00015E+1	1.39993E+1
39	02/09/2022	16:00:34.545	0.00000E+0	0.00000E+0	0.00000E+0	0.00000E+0	0.00000E+0	0.00000E+0	2.00000E+1	1.40000E+1	1.99990E+1	1.39991E+1
40	02/09/2022	16:00:36.042	0.00000E+0	0.00000E+0	0.00000E+0	0.00000E+0	0.00000E+0	0.00000E+0	2.00000E+1	1.40000E+1	1.99997E+1	1.40008E+1
41	02/09/2022	16:00:37.434	0.00000E+0	0.00000E+0	0.00000E+0	0.00000E+0	0.00000E+0	0.00000E+0	2.00000E+1	1.40000E+1	1.99992E+1	1.39987E+1
42	02/09/2022	16:00:38.851	0.00000E+0	0.00000E+0	0.00000E+0	0.00000E+0	0.00000E+0	0.00000E+0	2.00000E+1	1.40000E+1	1.99964E+1	1.39986E+1
43	02/09/2022	16:00:40.381	0.00000E+0	0.00000E+0	0.00000E+0	0.00000E+0	0.00000E+0	0.00000E+0	2.00000E+1	1.40000E+1	1.99982E+1	1.40011E+1
44	02/09/2022	16:00:41.776	0.00000E+0	0.00000E+0	0.00000E+0	0.00000E+0	0.00000E+0	0.00000E+0	2.00000E+1	1.40000E+1	1.99996E+1	1.40023E+1
45	02/09/2022	16:00:43.208	0.00000E+0	0.00000E+0	0.00000E+0	0.00000E+0	0.00000E+0	0.00000E+0	2.00000E+1	1.40000E+1	2.00026E+1	1.39989E+1
46	02/09/2022	16:00:44.730	0.00000E+0	0.00000E+0	0.00000E+0	0.00000E+0	0.00000E+0	0.00000E+0	2.00000E+1	1.40000E+1	1.99986E+1	1.39999E+1
47	02/09/2022	16:00:46.118	0.00000E+0	0.00000E+0	0.00000E+0	0.00000E+0	0.00000E+0	0.00000E+0	2.00000E+1	1.40000E+1	2.00035E+1	1.40000E+1
48	02/09/2022	16:00:47.588	0.00000E+0	0.00000E+0	0.00000E+0	0.00000E+0	0.00000E+0	0.00000E+0	2.00000E+1	1.40000E+1	2.00011E+1	1.40019E+1
49	02/09/2022	16:00:48.965	0.00000E+0	0.00000E+0	0.00000E+0	0.00000E+0	0.00000E+0	0.00000E+0	2.00000E+1	1.40000E+1	2.00001E+1	1.39993E+1
50	02/09/2022	16:00:50.392	0.00000E+0	0.00000E+0	0.00000E+0	0.00000E+0	0.00000E+0	0.00000E+0	2.00000E+1	1.40000E+1	2.00029E+1	1.40018E+1
51	02/09/2022	16:00:51.852	0.00000E+0	0.00000E+0	0.00000E+0	0.00000E+0	0.00000E+0	0.00000E+0	2.00000E+1	1.40000E+1	2.00003E+1	1.40023E+1
52	02/09/2022	16:00:53.241	0.00000E+0	0.00000E+0	0.00000E+0	0.00000E+0	0.00000E+0	0.00000E+0	2.00000E+1	1.40000E+1	2.00038E+1	1.40005E+1
53	02/09/2022	16:00:54.655	0.00000E+0	0.00000E+0	0.00000E+0	0.00000E+0	0.00000E+0	0.00000E+0	2.00000E+1	1.40000E+1	1.99993E+1	1.40015E+1
54	02/09/2022	16:00:56.057	0.00000E+0	0.00000E+0	0.00000E+0	0.00000E+0	0.00000E+0	0.00000E+0	2.00000E+1	1.40000E+1	1.99989E+1	1.40007E+1
55	02/09/2022	16:00:57.454	0.00000E+0	0.00000E+0	0.00000E+0	0.00000E+0	0.00000E+0	0.00000E+0	2.00000E+1	1.40000E+1	1.99996E+1	1.40015E+1
56	02/09/2022	16:00:58.996	0.00000E+0	0.00000E+0	0.00000E+0	0.00000E+0	0.00000E+0	0.00000E+0	2.00000E+1	1.40000E+1	2.00021E+1	1.40001E+1
57	02/09/2022	16:01:00.391	0.00000E+0	0.00000E+0	0.00000E+0	0.00000E+0	0.00000E+0	0.00000E+0	2.00000E+1	1.40000E+1	1.99983E+1	1.40009E+1
58	02/09/2022	16:01:01.790	0.00000E+0	0.00000E+0	0.00000E+0	0.00000E+0	0.00000E+0	0.00000E+0	2.00000E+1	1.40000E+1	1.99990E+1	1.39992E+1
59	02/09/2022	16:01:03.300	0.00000E+0	0.00000E+0	0.00000E+0	0.00000E+0	0.00000E+0	0.00000E+0	2.00000E+1	1.40000E+1	1.99993E+1	1.40022E+1
60	02/09/2022	16:01:04.698	0.00000E+0	0.00000E+0	0.00000E+0	0.00000E+0	0.00000E+0	0.00000E+0	2.00000E+1	1.40000E+1	1.99966E+1	1.39992E+1
61	02/09/2022	16:01:06.224	0.00000E+0	0.00000E+0	0.00000E+0	0.00000E+0	0.00000E+0	0.00000E+0	2.00000E+1	1.40000E+1	2.00000E+1	1.40008E+1
62	02/09/2022	16:01:07.610	0.00000E+0	0.00000E+0	0.00000E+0	0.00000E+0	0.00000E+0	0.00000E+0	2.00000E+1	1.40000E+1	1.99996E+1	1.39998E+1
63	02/09/2022	16:01:09.002	0.00000E+0	0.00000E+0	0.00000E+0	0.00000E+0	0.00000E+0	0.00000E+0	2.00000E+1	1.40000E+1	2.00015E+1	1.40005E+1
64	02/09/2022	16:01:10.551	0.00000E+0	0.00000E+0	0.00000E+0	0.00000E+0	0.00000E+0	0.00000E+0	2.00000E+1	1.40000E+1	1.99997E+1	1.40016E+1
65	02/09/2022	16:01:11.932	0.00000E+0	0.00000E+0	0.00000E+0	0.00000E+0	0.00000E+0	0.00000E+0	2.00000E+1	1.40000E+1	2.00011E+1	1.40006E+1
66	02/09/2022	16:01:13.385	0.00000E+0	0.00000E+0	0.00000E+0	0.00000E+0	0.00000E+0	0.00000E+0	2.00000E+1	1.40000E+1	1.99978E+1	1.40015E+1
67	02/09/2022	16:01:14.894	0.00000E+0	0.00000E+0	0.00000E+0	0.00000E+0	0.00000E+0	0.00000E+0	2.00000E+1	1.40000E+1	2.00029E+1	1.39984E+1
68	02/09/2022	16:01:16.306	0.00000E+0	0.00000E+0	0.00000E+0	0.00000E+0	0.00000E+0	0.00000E+0	2.00000E+1	1.40000E+1	1.99990E+1	1.39988E+1
69	02/09/2022	16:01:17.867	0.00000E+0	0.00000E+0	0.00000E+0	0.00000E+0	0.00000E+0	0.00000E+0	2.00000E+1	1.40000E+1	1.99996E+1	1.40000E+1
70	02/09/2022	16:01:19.255	0.00000E+0	0.00000E+0	0.00000E+0	0.00000E+0	0.00000E+0	0.00000E+0	2.00000E+1	1.40000E+1	2.00000E+1	1.39980E+1
71	02/09/2022	16:01:20.646	0.00000E+0	0.00000E+0	0.00000E+0	0.00000E+0	0.00000E+0	0.00000E+0	2.00000E+1	1.40000E+1	1.99995E+1	1.39997E+1
72	02/09/2022	16:01:22.141	0.00000E+0	0.00000E+0	0.00000E+0	0.00000E+0	0.00000E+0	0.00000E+0	2.00000E+1	1.40000E+1	1.99985E+1	1.39996E+1
73	02/09/2022	16:01:23.522	0.00000E+0	0.00000E+0	0.00000E+0	0.00000E+0	0.00000E+0	0.00000E+0	2.00000E+1	1.40000E+1	1.99986E+1	1.39998E+1
74	02/09/2022	16:01:25.039	0.00000E+0	0.00000E+0	0.00000E+0	0.00000E+0	0.00000E+0	0.00000E+0	2.00000E+1	1.40000E+1	2.00014E+1	1.39988E+1
75	02/09/2022	16:01:26.484	0.00000E+0	0.00000E+0	0.00000E+0	0.00000E+0	0.00000E+0	0.00000E+0	2.00000E+1	1.40000E+1	1.99991E+1	1.39984E+1
76	02/09/2022	16:01:27.874	0.00000E+0	0.00000E+0	0.00000E+0	0.00000E+0	0.00000E+0	0.00000E+0	2.00000E+1	1.40000E+1	2.00003E+1	1.39979E+1
77	02/09/2022	16:01:29.391	0.00000E+0	0.00000E+0	0.00000E+0	0.00000E+0	0.00000E+0	0.00000E+0	2.00000E+1	1.40000E+1	1.99982E+1	1.40015E+1
78	02/09/2022	16:01:30.781	0.00000E+0	0.00000E+0	0.00000E+0	0.00000E+0	0.00000E+0	0.00000E+0	2.00000E+1	1.40000E+1	2.00006E+1	1.40018E+1
79	02/09/2022	16:01:32.210	0.00000E+0	0.00000E+0	0.00000E+0	0.00000E+0	0.00000E+0	0.00000E+0	2.00000E+1	1.40000E+1	1.99998E+1	1.39983E+1
80	02/09/2022	16:01:33.698	0.00000E+0	0.00000E+0	0.00000E+0	0.00000E+0	0.00000E+0	0.00000E+0	2.00000E+1	1.40000E+1	2.00013E+1	1.40000E+1
81	02/09/2022	16:01:35.094	0.00000E+0	0.00000E+0	0.00000E+0	0.00000E+0	0.00000E+0	0.00000E+0	2.00000E+1	1.40000E+1	2.00017E+1	1.40007E+1
82	02/09/2022	16:01:36.585	0.00000E+0	0.00000E+0	0.00000E+0	0.00000E+0	0.00000E+0	0.00000E+0	2.00000E+1	1.40000E+1	2.00006E+1	1.40016E+1
83	02/09/2022	16:01:37.973	0.00000E+0	0.00000E+0	0.00000E+0	0.00000E+0	0.00000E+0	0.00000E+0	2.00000E+1	1.40000E+1	2.00024E+1	1.39998E+1
84	02/09/2022	16:01:39.361	0.00000E+0	0.00000E+0	0.00000E+0	0.00000E+0	0.00000E+0	0.00000E+0	2.00000E+1	1.40000E+1	2.00023E+1	1.39999E+1
85	02/09/2022	16:01:40.924	0.00000E+0	0.00000E+0	0.00000E+0	0.00000E+0	0.00000E+0	0.00000E+0	2.00000E+1	1.40000E+1	2.00000E+1	1.39997E+1
86	02/09/2022	16:01:42.306	0.00000E+0	0.00000E+0	0.00000E+0	0.00000E+0	0.00000E+0	0.00000E+0	2.00000E+1	1.40000E+1	2.00040E+1	1.39986E+1
87	02/09/2022	16:01:43.795	0.00000E+0	0.00000E+0	0.00000E+0	0.00000E+0	0.00000E+0	0.00000E+0	2.00000E+1	1.40000E+1	1.99997E+1	1.39980E+1
88	02/09/2022	16:01:45.152	0.00000E+0	0.00000E+0	0.00000E+0	0.00000E+0	0.00000E+0	0.00000E+0	2.00000E+1	1.40000E+1	1.99995E+1	1.39987E+1
89	02/09/2022	16:01:46.540	0.00000E+0	0.00000E+0	0.00000E+0	0.00000E+0	0.00000E+0	0.00000E+0	2.00000E+1	1.40000E+1	2.00000E+1	1.40030E+1
90	02/09/2022	16:01:48.024	0.00000E+0	0.00000E+0	0.00000E+0	0.00000E+0	0.00000E+0	0.00000E+0	2.00000E+1	1.40000E+1	2.00000E+1	1.39986E+1
91	02/09/2022	16:01:49.411	0.00000E+0	0.00000E+0	0.00000E+0	0.00000E+0	0.00000E+0	0.00000E+0	2.00000E+1	1.40000E+1	1.99990E+1	1.40022E+1
92	02/09/2022	16:01:50.865	0.00000E+0	0.00000E+0	0.00000E+0	0.00000E+0	0.00000E+0	0.00000E+0	2.00000E+1	1.40000E+1	2.00023E+1	1.39999E+1
93	02/09/2022	16:01:52.376	0.00000E+0	0.00000E+0	0.00000E+0	0.00000E+0	0.00000E+0	0.00000E+0	2.00000E+1	1.40000E+1	2.00007E+1	1.39999E+1
94	02/09/2022	16:01:53.753	0.00000E+0	0.00000E+0	0.00000E+0	0.00000E+0	0.00000E+0	0.00000E+0	2.00000E+1	1.40000E+1	1.99999E+1	1.40005E+1
95	02/09/2022	16:01:55.227	0.00000E+0	0.00000E+0	0.00000E+0	0.00000E+0	0.00000E+0	0.00000E+0	2.00000E+1	1.40000E+1	1.99998E+1	1.40002E+1
96	02/09/2022	16:01:56.630	0.00000E+0	0.00000E+0	0.00000E+0	0.00000E+0	0.00000E+0	0.00000E+0	2.00000E+1	1.40000E+1	2.00022E+1	1.40011E+1
97	02/09/2022	16:01:58.018	0.00000E+0	0.00000E+0	0.00000E+0	0.00000E+0	0.00000E+0	0.00000E+0	2.00000E+1	1.40000E+1	2.00001E+1	1.39981E+1
98	02/09/2022	16:01:59.515	0.00000E+0	0.00000E+0	0.00000E+0	0.00000E+0	0.00000E+0	0.00000E+0	2.00000E+1	1.40000E+1	2.00013E+1	1.39997E+1
99	02/09/2022	16:02:00.918	0.00000E+0	0.00000E+0	0.00000E+0	0.00000E+0	0.00000E+0	0.00000E+0	2.00000E+1	1.40000E+1	1.99998E+1	1.39995E+1
100	02/09/2022	16:02:02.344	0.00000E+0	0.00000E+0	0.00000E+0	0.00000E+0	0.00000E+0	0.00000E+0	2.00000E+1	1.40000E+1	1.99985E+1	1.39970E+1
101	02/09/2022	16:02:03.833	0.00000E+0	0.00000E+0	0.00000E+0	0.00000E+0	0.00000E+0	0.00000E+0	2.00000E+1	1.40000E+1	2.00043E+1	1.40008E+1
102	02/09/2022	16:02:05.229	0.00000E+0	0.00000E+0	0.00000E+0	0.00000E+0	0.00000E+0	0.00000E+0	2.00000E+1	1.40000E+1	2.00007E+1	1.40018E+1
103	02/09/2022	16:02:06.730	0.00000E+0	0.00000E+0	0.00000E+0	0.00000E+0	0.00000E+0	0.00000E+0	2.00000E+1	1.40000E+1	1.99993E+1	1.40001E+1
104	02/09/2022	16:02:08.122	0.00000E+0	0.00000E+0	0.00000E+0	0.00000E+0	0.00000E+0	0.00000E+0	2.00000E+1	1.40000E+1	1.99995E+1	1.40005E+1
105	02/09/2022	16:02:09.508	0.00000E+0	0.00000E+0	0.00000E+0	0.00000E+0	0.00000E+0	0.00000E+0	2.00000E+1	1.40000E+1	2.00013E+1	1.39994E+1
106	02/09/2022	16:02:11.009	0.00000E+0	0.00000E+0	0.00000E+0	0.00000E+0	0.00000E+0	0.00000E+0	2.00000E+1	1.40000E+1	1.99990E+1	1.39978E+1
107	02/09/2022	16:02:12.400	0.00000E+0	0.00000E+0	0.00000E+0	0.00000E+0	0.00000E+0	0.00000E+0	2.00000E+1	1.40000E+1	1.99999E+1	1.39999E+1
108	02/09/2022	16:02:13.824	0.00000E+0	0.00000E+0	0.00000E+0	0.00000E+0	0.00000E+0	0.00000E+0	2.00000E+1	1.40000E+1	1.99981E+1	1.39985E+1
109	02/09/2022	16:02:15.168	0.00000E+0	0.00000E+0	0.00000E+0	0.00000E+0	0.00000E+0	0.00000E+0	2.00000E+1	1.40000E+1	1.99999E+1	1.40004E+1
110	02/09/2022	16:02:16.551	0.00000E+0	0.00000E+0	0.00000E+0	0.00000E+0	0.00000E+0	0.00000E+0	2.00000E+1	1.40000E+1	1.99972E+1	1.40011E+1
111	02/09/2022	16:02:18.072	0.00000E+0	0.00000E+0	0.00000E+0	0.00000E+0	0.00000E+0	0.00000E+0	2.00000E+1	1.40000E+1	2.00001E+1	1.40018E+1
112	02/09/2022	16:02:19.452	0.00000E+0	0.00000E+0	0.00000E+0	0.00000E+0	0.00000E+0	0.00000E+0	2.00000E+1	1.40000E+1	1.99988E+1	1.39993E+1
113	02/09/2022	16:02:20.915	0.00000E+0	0.00000E+0	0.00000E+0	0.00000E+0	0.00000E+0	0.00000E+0	2.00000E+1	1.40000E+1	1.99980E+1	1.39998E+1
114	02/09/2022	16:02:22.401	0.00000E+0	0.00000E+0	0.00000E+0	0.00000E+0	0.00000E+0	0.00000E+0	2.00000E+1	1.40000E+1	2.00001E+1	1.39996E+1
115	02/09/2022	16:02:23.785	0.00000E+0	0.00000E+0	0.00000E+0	0.00000E+0	0.00000E+0	0.00000E+0	2.00000E+1	1.40000E+1	1.99997E+1	1.40025E+1
116	02/09/2022	16:02:25.274	0.00000E+0	0.00000E+0	0.00000E+0	0.00000E+0	0.00000E+0	0.00000E+0	2.00000E+1	1.40000E+1	2.00006E+1	1.40012E+1
117	02/09/2022	16:02:26.668	0.00000E+0	0.00000E+0	0.00000E+0	0.00000E+0	0.00000E+0	0.00000E+0	2.00000E+1	1.40000E+1	1.99978E+1	1.39995E+1
118	02/09/2022	16:02:28.049	0.00000E+0	0.00000E+0	0.00000E+0	0.00000E+0	0.00000E+0	0.00000E+0	2.00000E+1	1.40000E+1	1.99979E+1	1.40007E+1
119	02/09/2022	16:02:29.583	0.00000E+0	0.00000E+0	0.00000E+0	0.00000E+0	0.00000E+0	0.00000E+0	2.00000E+1	1.40000E+1	2.00012E+1	1.40018E+1
120	02/09/2022	16:02:30.976	0.00000E+0	0.00000E+0	0.00000E+0	0.00000E+0	0.00000E+0	0.00000E+0	2.00000E+1	1.40000E+1	2.00000E+1	1.40010E+1
121	02/09/2022	16:02:32.411	0.00000E+0	0.00000E+0	0.00000E+0	0.00000E+0	0.00000E+0	0.00000E+0	2.00000E+1	1.40000E+1	2.00030E+1	1.40006E+1
122	02/09/2022	16:02:33.897	0.00000E+0	0.00000E+0	0.00000E+0	0.00000E+0	0.00000E+0	0.00000E+0	2.00000E+1	1.40000E+1	2.00019E+1	1.40008E+1
123	02/09/2022	16:02:35.292	0.00000E+0	0.00000E+0	0.00000E+0	0.00000E+0	0.00000E+0	0.00000E+0	2.00000E+1	1.40000E+1	2.00016E+1	1.40015E+1
124	02/09/2022	16:02:36.831	0.00000E+0	0.00000E+0	0.00000E+0	0.00000E+0	0.00000E+0	0.00000E+0	2.00000E+1	1.40000E+1	2.00006E+1	1.39990E+1
125	02/09/2022	16:02:38.213	0.00000E+0	0.00000E+0	0.00000E+0	0.00000E+0	0.00000E+0	0.00000E+0	2.00000E+1	1.40000E+1	1.99996E+1	1.39998E+1
126	02/09/2022	16:02:39.604	0.00000E+0	0.00000E+0	0.00000E+0	0.00000E+0	0.00000E+0	0.00000E+0	2.00000E+1	1.40000E+1	1.99985E+1	1.39969E+1
127	02/09/2022	16:02:41.051	0.00000E+0	0.00000E+0	0.00000E+0	0.00000E+0	0.00000E+0	0.00000E+0	2.00000E+1	1.40000E+1	2.00013E+1	1.40018E+1
128	02/09/2022	16:02:42.444	0.00000E+0	0.00000E+0	0.00000E+0	0.00000E+0	0.00000E+0	0.00000E+0	2.00000E+1	1.40000E+1	2.00002E+1	1.39993E+1
129	02/09/2022	16:02:43.866	0.00000E+0	0.00000E+0	0.00000E+0	0.00000E+0	0.00000E+0	0.00000E+0	2.00000E+1	1.40000E+1	2.00027E+1	1.39998E+1
130	02/09/2022	16:02:45.375	0.00000E+0	0.00000E+0	0.00000E+0	0.00000E+0	0.00000E+0	0.00000E+0	2.00000E+1	1.40000E+1	1.99999E+1	1.40012E+1
131	02/09/2022	16:02:46.761	0.00000E+0	0.00000E+0	0.00000E+0	0.00000E+0	0.00000E+0	0.00000E+0	2.00000E+1	1.40000E+1	2.00000E+1	1.40002E+1
132	02/09/2022	16:02:48.270	0.00000E+0	0.00000E+0	0.00000E+0	0.00000E+0	0.00000E+0	0.00000E+0	2.00000E+1	1.40000E+1	2.00015E+1	1.40001E+1
133	02/09/2022	16:02:49.644	0.00000E+0	0.00000E+0	0.00000E+0	0.00000E+0	0.00000E+0	0.00000E+0	2.00000E+1	1.40000E+1	1.99994E+1	1.40015E+1
134	02/09/2022	16:02:51.033	0.00000E+0	0.00000E+0	0.00000E+0	0.00000E+0	0.00000E+0	0.00000E+0	2.00000E+1	1.40000E+1	2.00014E+1	1.40019E+1
135	02/09/2022	16:02:52.561	0.00000E+0	0.00000E+0	0.00000E+0	0.00000E+0	0.00000E+0	0.00000E+0	2.00000E+1	1.40000E+1	2.00014E+1	1.40022E+1
136	02/09/2022	16:02:53.936	0.00000E+0	0.00000E+0	0.00000E+0	0.00000E+0	0.00000E+0	0.00000E+0	2.00000E+1	1.40000E+1	2.00009E+1	1.39990E+1
137	02/09/2022	16:02:55.415	0.00000E+0	0.00000E+0	0.00000E+0	0.00000E+0	0.00000E+0	0.00000E+0	2.00000E+1	1.40000E+1	2.00000E+1	1.39997E+1
138	02/09/2022	16:02:56.813	0.00000E+0	0.00000E+0	0.00000E+0	0.00000E+0	0.00000E+0	0.00000E+0	2.00000E+1	1.40000E+1	2.00006E+1	1.40023E+1
139	02/09/2022	16:02:58.209	0.00000E+0	0.00000E+0	0.00000E+0	0.00000E+0	0.00000E+0	0.00000E+0	2.00000E+1	1.40000E+1	2.00005E+1	1.39989E+1
140	02/09/2022	16:02:59.777	0.00000E+0	0.00000E+0	0.00000E+0	0.00000E+0	0.00000E+0	0.00000E+0	2.00000E+1	1.40000E+1	1.99991E+1	1.39993E+1
141	02/09/2022	16:03:01.167	0.00000E+0	0.00000E+0	0.00000E+0	0.00000E+0	0.00000E+0	0.00000E+0	2.00000E+1	1.40000E+1	2.00000E+1	1.39997E+1
142	02/09/2022	16:03:02.609	0.00000E+0	0.00000E+0	0.00000E+0	0.00000E+0	0.00000E+0	0.00000E+0	2.00000E+1	1.40000E+1	2.00009E+1	1.40003E+1
143	02/09/2022	16:03:04.047	0.00000E+0	0.00000E+0	0.00000E+0	0.00000E+0	0.00000E+0	0.00000E+0	2.00000E+1	1.40000E+1	1.99993E+1	1.40017E+1
144	02/09/2022	16:03:05.431	0.00000E+0	0.00000E+0	0.00000E+0	0.00000E+0	0.00000E+0	0.00000E+0	2.00000E+1	1.40000E+1	1.99996E+1	1.39996E+1
145	02/09/2022	16:03:06.942	0.00000E+0	0.00000E+0	0.00000E+0	0.00000E+0	0.00000E+0	0.00000E+0	2.00000E+1	1.40000E+1	1.99998E+1	1.40014E+1
146	02/09/2022	16:03:08.321	0.00000E+0	0.00000E+0	0.00000E+0	0.00000E+0	0.00000E+0	0.00000E+0	2.00000E+1	1.40000E+1	2.00007E+1	1.39988E+1
147	02/09/2022	16:03:09.779	0.00000E+0	0.00000E+0	0.00000E+0	0.00000E+0	0.00000E+0	0.00000E+0	2.00000E+1	1.40000E+1	2.00017E+1	1.40011E+1
148	02/09/2022	16:03:11.277	0.00000E+0	0.00000E+0	0.00000E+0	0.00000E+0	0.00000E+0	0.00000E+0	2.00000E+1	1.40000E+1	2.00004E+1	1.39989E+1
149	02/09/2022	16:03:12.666	0.00000E+0	0.00000E+0	0.00000E+0	0.00000E+0	0.00000E+0	0.00000E+0	2.00000E+1	1.40000E+1	1.99979E+1	1.40000E+1
150	02/09/2022	16:03:14.149	0.00000E+0	0.00000E+0	0.00000E+0	0.00000E+0	0.00000E+0	0.00000E+0	2.00000E+1	1.40000E+1	1.99994E+1	1.39991E+1
151	02/09/2022	16:03:15.564	0.00000E+0	0.00000E+0	0.00000E+0	0.00000E+0	0.00000E+0	0.00000E+0	2.00000E+1	1.40000E+1	1.99999E+1	1.40001E+1
152	02/09/2022	16:03:16.954	0.00000E+0	0.00000E+0	0.00000E+0	0.00000E+0	0.00000E+0	0.00000E+0	2.00000E+1	1.40000E+1	2.00024E+1	1.39989E+1
153	02/09/2022	16:03:18.502	0.00000E+0	0.00000E+0	0.00000E+0	0.00000E+0	0.00000E+0	0.00000E+0	2.00000E+1	1.40000E+1	2.00004E+1	1.40000E+1
154	02/09/2022	16:03:19.897	0.00000E+0	0.00000E+0	0.00000E+0	0.00000E+0	0.00000E+0	0.00000E+0	2.00000E+1	1.40000E+1	1.99981E+1	1.40013E+1
155	02/09/2022	16:03:21.313	0.00000E+0	0.00000E+0	0.00000E+0	0.00000E+0	0.00000E+0	0.00000E+0	2.00000E+1	1.40000E+1	1.99989E+1	1.39994E+1
156	02/09/2022	16:03:22.799	0.00000E+0	0.00000E+0	0.00000E+0	0.00000E+0	0.00000E+0	0.00000E+0	2.00000E+1	1.40000E+1	1.99995E+1	1.39999E+1
157	02/09/2022	16:03:24.187	0.00000E+0	0.00000E+0	0.00000E+0	0.00000E+0	0.00000E+0	0.00000E+0	2.00000E+1	1.40000E+1	2.00030E+1	1.40014E+1
158	02/09/2022	16:03:25.715	0.00000E+0	0.00000E+0	0.00000E+0	0.00000E+0	0.00000E+0	0.00000E+0	2.00000E+1	1.40000E+1	1.99972E+1	1.39972E+1
159	02/09/2022	16:03:27.112	0.00000E+0	0.00000E+0	0.00000E+0	0.00000E+0	0.00000E+0	0.00000E+0	2.00000E+1	1.40000E+1	1.99985E+1	1.39995E+1
160	02/09/2022	16:03:28.495	0.00000E+0	0.00000E+0	0.00000E+0	0.00000E+0	0.00000E+0	0.00000E+0	2.00000E+1	1.40000E+1	1.99989E+1	1.39999E+1
161	02/09/2022	16:03:29.946	0.00000E+0	0.00000E+0	0.00000E+0	0.00000E+0	0.00000E+0	0.00000E+0	2.00000E+1	1.40000E+1	2.00017E+1	1.40000E+1
162	02/09/2022	16:03:31.339	0.00000E+0	0.00000E+0	0.00000E+0	0.00000E+0	0.00000E+0	0.00000E+0	2.00000E+1	1.40000E+1	1.99968E+1	1.39994E+1
163	02/09/2022	16:03:32.804	0.00000E+0	0.00000E+0	0.00000E+0	0.00000E+0	0.00000E+0	0.00000E+0	2.00000E+1	1.40000E+1	1.99982E+1	1.40046E+1
164	02/09/2022	16:03:34.315	0.00000E+0	0.00000E+0	0.00000E+0	0.00000E+0	0.00000E+0	0.00000E+0	2.00000E+1	1.40000E+1	2.00023E+1	1.39992E+1
165	02/09/2022	16:03:35.711	0.00000E+0	0.00000E+0	0.00000E+0	0.00000E+0	0.00000E+0	0.00000E+0	2.00000E+1	1.40000E+1	1.99996E+1	1.40015E+1
166	02/09/2022	16:03:37.252	0.00000E+0	0.00000E+0	0.00000E+0	0.00000E+0	0.00000E+0	0.00000E+0	2.00000E+1	1.40000E+1	2.00009E+1	1.39974E+1
167	02/09/2022	16:03:38.656	0.00000E+0	0.00000E+0	0.00000E+0	0.00000E+0	0.00000E+0	0.00000E+0	2.00000E+1	1.40000E+1	1.99986E+1	1.40005E+1
168	02/09/2022	16:03:40.063	0.00000E+0	0.00000E+0	0.00000E+0	0.00000E+0	0.00000E+0	0.00000E+0	2.00000E+1	1.40000E+1	2.00005E+1	1.40003E+1
169	02/09/2022	16:03:41.558	0.00000E+0	0.00000E+0	0.00000E+0	0.00000E+0	0.00000E+0	0.00000E+0	2.00000E+1	1.40000E+1	1.99989E+1	1.40001E+1
170	02/09/2022	16:03:42.942	0.00000E+0	0.00000E+0	0.00000E+0	0.00000E+0	0.00000E+0	0.00000E+0	2.00000E+1	1.40000E+1	2.00025E+1	1.39979E+1
171	02/09/2022	16:03:44.489	0.00000E+0	0.00000E+0	0.00000E+0	0.00000E+0	0.00000E+0	0.00000E+0	2.00000E+1	1.40000E+1	1.99986E+1	1.39988E+1
172	02/09/2022	16:03:45.871	0.00000E+0	0.00000E+0	0.00000E+0	0.00000E+0	0.00000E+0	0.00000E+0	2.00000E+1	1.40000E+1	1.99998E+1	1.39998E+1
173	02/09/2022	16:03:47.255	0.00000E+0	0.00000E+0	0.00000E+0	0.00000E+0	0.00000E+0	0.00000E+0	2.00000E+1	1.40000E+1	1.99987E+1	1.39997E+1
174	02/09/2022	16:03:48.734	0.00000E+0	0.00000E+0	0.00000E+0	0.00000E+0	0.00000E+0	0.00000E+0	2.00000E+1	1.40000E+1	2.00007E+1	1.40002E+1
175	02/09/2022	16:03:50.120	0.00000E+0	0.00000E+0	0.00000E+0	0.00000E+0	0.00000E+0	0.00000E+0	2.00000E+1	1.40000E+1	1.99985E+1	1.40019E+1
176	02/09/2022	16:03:51.585	0.00000E+0	0.00000E+0	0.00000E+0	0.00000E+0	0.00000E+0	0.00000E+0	2.00000E+1	1.40000E+1	1.99996E+1	1.39982E+1
177	02/09/2022	16:03:53.108	0.00000E+0	0.00000E+0	0.00000E+0	0.00000E+0	0.00000E+0	0.00000E+0	2.00000E+1	1.40000E+1	2.00021E+1	1.40008E+1
178	02/09/2022	16:03:54.494	0.00000E+0	0.00000E+0	0.00000E+0	0.00000E+0	0.00000E+0	0.00000E+0	2.00000E+1	1.40000E+1	2.00007E+1	1.40008E+1
179	02/09/2022	16:03:55.999	0.00000E+0	0.00000E+0	0.00000E+0	0.00000E+0	0.00000E+0	0.00000E+0	2.00000E+1	1.40000E+1	1.99998E+1	1.40002E+1
180	02/09/2022	16:03:57.384	0.00000E+0	0.00000E+0	0.00000E+0	0.00000E+0	0.00000E+0	0.00000E+0	2.00000E+1	1.40000E+1	2.00000E+1	1.39996E+1
181	02/09/2022	16:03:58.800	0.00000E+0	0.00000E+0	0.00000E+0	0.00000E+0	0.00000E+0	0.00000E+0	2.00000E+1	1.40000E+1	1.99998E+1	1.39988E+1
182	02/09/2022	16:04:00.354	0.00000E+0	0.00000E+0	0.00000E+0	0.00000E+0	0.00000E+0	0.00000E+0	2.00000E+1	1.40000E+1	1.99979E+1	1.40008E+1
183	02/09/2022	16:04:01.737	0.00000E+0	0.00000E+0	0.00000E+0	0.00000E+0	0.00000E+0	0.00000E+0	2.00000E+1	1.40000E+1	2.00024E+1	1.40002E+1
184	02/09/2022	16:04:03.237	0.00000E+0	0.00000E+0	0.00000E+0	0.00000E+0	0.00000E+0	0.00000E+0	2.00000E+1	1.40000E+1	1.99998E+1	1.40001E+1
185	02/09/2022	16:04:04.686	0.00000E+0	0.00000E+0	0.00000E+0	0.00000E+0	0.00000E+0	0.00000E+0	2.00000E+1	1.40000E+1	1.99991E+1	1.39998E+1
186	02/09/2022	16:04:06.070	0.00000E+0	0.00000E+0	0.00000E+0	0.00000E+0	0.00000E+0	0.00000E+0	2.00000E+1	1.40000E+1	1.99988E+1	1.40004E+1
187	02/09/2022	16:04:07.615	0.00000E+0	0.00000E+0	0.00000E+0	0.00000E+0	0.00000E+0	0.00000E+0	2.00000E+1	1.40000E+1	2.00004E+1	1.39989E+1
188	02/09/2022	16:04:08.999	0.00000E+0	0.00000E+0	0.00000E+0	0.00000E+0	0.00000E+0	0.00000E+0	2.00000E+1	1.40000E+1	2.00014E+1	1.39983E+1
189	02/09/2022	16:04:10.418	0.00000E+0	0.00000E+0	0.00000E+0	0.00000E+0	0.00000E+0	0.00000E+0	2.00000E+1	1.40000E+1	1.99998E+1	1.39989E+1
190	02/09/2022	16:04:11.925	0.00000E+0	0.00000E+0	0.00000E+0	0.00000E+0	0.00000E+0	0.00000E+0	2.00000E+1	1.40000E+1	1.99997E+1	1.39985E+1
191	02/09/2022	16:04:13.303	0.00000E+0	0.00000E+0	0.00000E+0	0.00000E+0	0.00000E+0	0.00000E+0	2.00000E+1	1.40000E+1	1.99995E+1	1.39993E+1
192	02/09/2022	16:04:14.803	0.00000E+0	0.00000E+0	0.00000E+0	0.00000E+0	0.00000E+0	0.00000E+0	2.00000E+1	1.40000E+1	2.00011E+1	1.40003E+1
193	02/09/2022	16:04:16.199	0.00000E+0	0.00000E+0	0.00000E+0	0.00000E+0	0.00000E+0	0.00000E+0	2.00000E+1	1.40000E+1	2.00012E+1	1.39987E+1
194	02/09/2022	16:04:17.576	0.00000E+0	0.00000E+0	0.00000E+0	0.00000E+0	0.00000E+0	0.00000E+0	2.00000E+1	1.40000E+1	1.99986E+1	1.39992E+1
195	02/09/2022	16:04:19.088	0.00000E+0	0.00000E+0	0.00000E+0	0.00000E+0	0.00000E+0	0.00000E+0	2.00000E+1	1.40000E+1	2.00006E+1	1.40010E+1
196	02/09/2022	16:04:20.473	0.00000E+0	0.00000E+0	0.00000E+0	0.00000E+0	0.00000E+0	0.00000E+0	2.00000E+1	1.40000E+1	1.99979E+1	1.39988E+1
197	02/09/2022	16:04:21.915	0.00000E+0	0.00000E+0	0.00000E+0	0.00000E+0	0.00000E+0	0.00000E+0	2.00000E+1	1.40000E+1	1.99993E+1	1.39980E+1
198	02/09/2022	16:04:23.313	0.00000E+0	0.00000E+0	0.00000E+0	0.00000E+0	0.00000E+0	0.00000E+0	2.00000E+1	1.40000E+1	2.00002E+1	1.39998E+1
199	02/09/2022	16:04:24.691	0.00000E+0	0.00000E+0	0.00000E+0	0.00000E+0	0.00000E+0	0.00000E+0	2.00000E+1	1.40000E+1	2.00008E+1	1.39989E+1
200	02/09/2022	16:04:26.240	0.00000E+0	0.00000E+0	0.00000E+0	0.00000E+0	0.00000E+0	0.00000E+0	2.00000E+1	1.40000E+1	1.99996E+1	1.39996E+1
201	02/09/2022	16:04:27.629	0.00000E+0	0.00000E+0	0.00000E+0	0.00000E+0	0.00000E+0	0.00000E+0	2.00000E+1	1.40000E+1	1.99982E+1	1.40005E+1
202	02/09/2022	16:04:29.061	0.00000E+0	0.00000E+0	0.00000E+0	0.00000E+0	0.00000E+0	0.00000E+0	2.00000E+1	1.40000E+1	1.99978E+1	1.40004E+1
203	02/09/2022	16:04:30.563	0.00000E+0	0.00000E+0	0.00000E+0	0.00000E+0	0.00000E+0	0.00000E+0	2.00000E+1	1.40000E+1	1.99987E+1	1.39989E+1
204	02/09/2022	16:04:31.952	0.00000E+0	0.00000E+0	0.00000E+0	0.00000E+0	0.00000E+0	0.00000E+0	2.00000E+1	1.40000E+1	2.00012E+1	1.40011E+1
205	02/09/2022	16:04:33.471	0.00000E+0	0.00000E+0	0.00000E+0	0.00000E+0	0.00000E+0	0.00000E+0	2.00000E+1	1.40000E+1	1.99990E+1	1.40010E+1
206	02/09/2022	16:04:34.852	0.00000E+0	0.00000E+0	0.00000E+0	0.00000E+0	0.00000E+0	0.00000E+0	2.00000E+1	1.40000E+1	1.99990E+1	1.40014E+1
207	02/09/2022	16:04:36.244	0.00000E+0	0.00000E+0	0.00000E+0	0.00000E+0	0.00000E+0	0.00000E+0	2.00000E+1	1.40000E+1	2.00020E+1	1.40023E+1
208	02/09/2022	16:04:37.782	0.00000E+0	0.00000E+0	0.00000E+0	0.00000E+0	0.00000E+0	0.00000E+0	2.00000E+1	1.40000E+1	1.99993E+1	1.39989E+1
209	02/09/2022	16:04:39.158	0.00000E+0	0.00000E+0	0.00000E+0	0.00000E+0	0.00000E+0	0.00000E+0	2.00000E+1	1.40000E+1	2.00008E+1	1.39992E+1
210	02/09/2022	16:04:40.549	0.00000E+0	0.00000E+0	0.00000E+0	0.00000E+0	0.00000E+0	0.00000E+0	2.00000E+1	1.40000E+1	2.00014E+1	1.39996E+1
211	02/09/2022	16:04:42.049	0.00000E+0	0.00000E+0	0.00000E+0	0.00000E+0	0.00000E+0	0.00000E+0	2.00000E+1	1.40000E+1	2.00001E+1	1.39983E+1
212	02/09/2022	16:04:43.433	0.00000E+0	0.00000E+0	0.00000E+0	0.00000E+0	0.00000E+0	0.00000E+0	2.00000E+1	1.40000E+1	2.00000E+1	1.39977E+1
213	02/09/2022	16:04:44.904	0.00000E+0	0.00000E+0	0.00000E+0	0.00000E+0	0.00000E+0	0.00000E+0	2.00000E+1	1.40000E+1	2.00028E+1	1.40010E+1
214	02/09/2022	16:04:46.303	0.00000E+0	0.00000E+0	0.00000E+0	0.00000E+0	0.00000E+0	0.00000E+0	2.00000E+1	1.40000E+1	2.00016E+1	1.39962E+1
215	02/09/2022	16:04:47.683	0.00000E+0	0.00000E+0	0.00000E+0	0.00000E+0	0.00000E+0	0.00000E+0	2.00000E+1	1.40000E+1	1.99988E+1	1.39995E+1
216	02/09/2022	16:04:49.171	0.00000E+0	0.00000E+0	0.00000E+0	0.00000E+0	0.00000E+0	0.00000E+0	2.00000E+1	1.40000E+1	2.00015E+1	1.40007E+1
217	02/09/2022	16:04:50.551	0.00000E+0	0.00000E+0	0.00000E+0	0.00000E+0	0.00000E+0	0.00000E+0	2.00000E+1	1.40000E+1	2.00002E+1	1.39983E+1
218	02/09/2022	16:04:52.029	0.00000E+0	0.00000E+0	0.00000E+0	0.00000E+0	0.00000E+0	0.00000E+0	2.00000E+1	1.40000E+1	2.00019E+1	1.40001E+1
219	02/09/2022	16:04:53.473	0.00000E+0	0.00000E+0	0.00000E+0	0.00000E+0	0.00000E+0	0.00000E+0	2.00000E+1	1.40000E+1	2.00015E+1	1.39983E+1
220	02/09/2022	16:04:54.846	0.00000E+0	0.00000E+0	0.00000E+0	0.00000E+0	0.00000E+0	0.00000E+0	2.00000E+1	1.40000E+1	1.99991E+1	1.40004E+1
221	02/09/2022	16:04:56.375	0.00000E+0	0.00000E+0	0.00000E+0	0.00000E+0	0.00000E+0	0.00000E+0	2.00000E+1	1.40000E+1	1.99998E+1	1.39990E+1
222	02/09/2022	16:04:57.789	0.00000E+0	0.00000E+0	0.00000E+0	0.00000E+0	0.00000E+0	0.00000E+0	2.00000E+1	1.40000E+1	2.00013E+1	1.40015E+1
223	02/09/2022	16:04:59.226	0.00000E+0	0.00000E+0	0.00000E+0	0.00000E+0	0.00000E+0	0.00000E+0	2.00000E+1	1.40000E+1	1.99996E+1	1.39997E+1
224	02/09/2022	16:05:00.732	0.00000E+0	0.00000E+0	0.00000E+0	0.00000E+0	0.00000E+0	0.00000E+0	2.00000E+1	1.40000E+1	2.00002E+1	1.39999E+1
225	02/09/2022	16:05:02.136	0.00000E+0	0.00000E+0	0.00000E+0	0.00000E+0	0.00000E+0	0.00000E+0	2.00000E+1	1.40000E+1	1.99991E+1	1.39998E+1
226	02/09/2022	16:05:03.663	0.00000E+0	0.00000E+0	0.00000E+0	0.00000E+0	0.00000E+0	0.00000E+0	2.00000E+1	1.40000E+1	1.99973E+1	1.39999E+1
227	02/09/2022	16:05:05.075	0.00000E+0	0.00000E+0	0.00000E+0	0.00000E+0	0.00000E+0	0.00000E+0	2.00000E+1	1.40000E+1	2.00011E+1	1.39983E+1
228	02/09/2022	16:05:06.469	0.00000E+0	0.00000E+0	0.00000E+0	0.00000E+0	0.00000E+0	0.00000E+0	2.00000E+1	1.40000E+1	1.99999E+1	1.39999E+1
229	02/09/2022	16:05:08.017	0.00000E+0	0.00000E+0	0.00000E+0	0.00000E+0	0.00000E+0	0.00000E+0	2.00000E+1	1.40000E+1	2.00034E+1	1.39993E+1
230	02/09/2022	16:05:09.410	0.00000E+0	0.00000E+0	0.00000E+0	0.00000E+0	0.00000E+0	0.00000E+0	2.00000E+1	1.40000E+1	1.99995E+1	1.40012E+1
231	02/09/2022	16:05:10.796	0.00000E+0	0.00000E+0	0.00000E+0	0.00000E+0	0.00000E+0	0.00000E+0	2.00000E+1	1.40000E+1	2.00027E+1	1.39987E+1
232	02/09/2022	16:05:12.290	0.00000E+0	0.00000E+0	0.00000E+0	0.00000E+0	0.00000E+0	0.00000E+0	2.00000E+1	1.40000E+1	2.00020E+1	1.39983E+1
233	02/09/2022	16:05:13.729	0.00000E+0	0.00000E+0	0.00000E+0	0.00000E+0	0.00000E+0	0.00000E+0	2.00000E+1	1.40000E+1	2.00003E+1	1.39994E+1
234	02/09/2022	16:05:15.289	0.00000E+0	0.00000E+0	0.00000E+0	0.00000E+0	0.00000E+0	0.00000E+0	2.00000E+1	1.40000E+1	1.99994E+1	1.40020E+1
235	02/09/2022	16:05:16.683	0.00000E+0	0.00000E+0	0.00000E+0	0.00000E+0	0.00000E+0	0.00000E+0	2.00000E+1	1.40000E+1	2.00007E+1	1.39988E+1
236	02/09/2022	16:05:18.134	0.00000E+0	0.00000E+0	0.00000E+0	0.00000E+0	0.00000E+0	0.00000E+0	2.00000E+1	1.40000E+1	1.99992E+1	1.40016E+1
237	02/09/2022	16:05:19.634	0.00000E+0	0.00000E+0	0.00000E+0	0.00000E+0	0.00000E+0	0.00000E+0	2.00000E+1	1.40000E+1	2.00005E+1	1.40009E+1
238	02/09/2022	16:05:21.024	0.00000E+0	0.00000E+0	0.00000E+0	0.00000E+0	0.00000E+0	0.00000E+0	2.00000E+1	1.40000E+1	1.99964E+1	1.40006E+1
239	02/09/2022	16:05:22.449	0.00000E+0	0.00000E+0	0.00000E+0	0.00000E+0	0.00000E+0	0.00000E+0	2.00000E+1	1.40000E+1	2.00011E+1	1.40005E+1
240	02/09/2022	16:05:23.969	0.00000E+0	0.00000E+0	0.00000E+0	0.00000E+0	0.00000E+0	0.00000E+0	2.00000E+1	1.40000E+1	1.99982E+1	1.39991E+1
241	02/09/2022	16:05:25.351	0.00000E+0	0.00000E+0	0.00000E+0	0.00000E+0	0.00000E+0	0.00000E+0	2.00000E+1	1.40000E+1	1.99989E+1	1.40018E+1
242	02/09/2022	16:05:26.838	0.00000E+0	0.00000E+0	0.00000E+0	0.00000E+0	0.00000E+0	0.00000E+0	2.00000E+1	1.40000E+1	2.00008E+1	1.40007E+1
243	02/09/2022	16:05:28.237	0.00000E+0	0.00000E+0	0.00000E+0	0.00000E+0	0.00000E+0	0.00000E+0	2.00000E+1	1.40000E+1	2.00008E+1	1.40003E+1
244	02/09/2022	16:05:29.690	0.00000E+0	0.00000E+0	0.00000E+0	0.00000E+0	0.00000E+0	0.00000E+0	2.00000E+1	1.40000E+1	1.99984E+1	1.40005E+1
245	02/09/2022	16:05:31.181	0.00000E+0	0.00000E+0	0.00000E+0	0.00000E+0	0.00000E+0	0.00000E+0	2.00000E+1	1.40000E+1	1.99986E+1	1.40014E+1
246	02/09/2022	16:05:32.574	0.00000E+0	0.00000E+0	0.00000E+0	0.00000E+0	0.00000E+0	0.00000E+0	2.00000E+1	1.40000E+1	2.00020E+1	1.39994E+1
247	02/09/2022	16:05:34.038	0.00000E+0	0.00000E+0	0.00000E+0	0.00000E+0	0.00000E+0	0.00000E+0	2.00000E+1	1.40000E+1	2.00001E+1	1.40010E+1
248	02/09/2022	16:05:35.429	0.00000E+0	0.00000E+0	0.00000E+0	0.00000E+0	0.00000E+0	0.00000E+0	2.00000E+1	1.40000E+1	1.99976E+1	1.39994E+1
249	02/09/2022	16:05:36.806	0.00000E+0	0.00000E+0	0.00000E+0	0.00000E+0	0.00000E+0	0.00000E+0	2.00000E+1	1.40000E+1	2.00016E+1	1.39993E+1
250	02/09/2022	16:05:38.363	0.00000E+0	0.00000E+0	0.00000E+0	0.00000E+0	0.00000E+0	0.00000E+0	2.00000E+1	1.40000E+1	1.99983E+1	1.40011E+1
251	02/09/2022	16:05:39.757	0.00000E+0	0.00000E+0	0.00000E+0	0.00000E+0	0.00000E+0	0.00000E+0	2.00000E+1	1.40000E+1	1.99999E+1	1.39996E+1
252	02/09/2022	16:05:41.206	0.00000E+0	0.00000E+0	0.00000E+0	0.00000E+0	0.00000E+0	0.00000E+0	2.00000E+1	1.40000E+1	2.00009E+1	1.39988E+1
253	02/09/2022	16:05:42.624	0.00000E+0	0.00000E+0	0.00000E+0	0.00000E+0	0.00000E+0	0.00000E+0	2.00000E+1	1.40000E+1	2.00007E+1	1.40011E+1
254	02/09/2022	16:05:44.010	0.00000E+0	0.00000E+0	0.00000E+0	0.00000E+0	0.00000E+0	0.00000E+0	2.00000E+1	1.40000E+1	1.99993E+1	1.40011E+1
255	02/09/2022	16:05:45.559	0.00000E+0	0.00000E+0	0.00000E+0	0.00000E+0	0.00000E+0	0.00000E+0	2.00000E+1	1.40000E+1	2.00008E+1	1.40001E+1
256	02/09/2022	16:05:46.940	0.00000E+0	0.00000E+0	0.00000E+0	0.00000E+0	0.00000E+0	0.00000E+0	2.00000E+1	1.40000E+1	2.00004E+1	1.39993E+1
257	02/09/2022	16:05:48.318	0.00000E+0	0.00000E+0	0.00000E+0	0.00000E+0	0.00000E+0	0.00000E+0	2.00000E+1	1.40000E+1	2.00011E+1	1.40009E+1
258	02/09/2022	16:05:49.905	0.00000E+0	0.00000E+0	0.00000E+0	0.00000E+0	0.00000E+0	0.00000E+0	2.00000E+1	1.40000E+1	1.99977E+1	1.40005E+1
259	02/09/2022	16:05:51.294	0.00000E+0	0.00000E+0	0.00000E+0	0.00000E+0	0.00000E+0	0.00000E+0	2.00000E+1	1.40000E+1	1.99999E+1	1.39984E+1
260	02/09/2022	16:05:52.785	0.00000E+0	0.00000E+0	0.00000E+0	0.00000E+0	0.00000E+0	0.00000E+0	2.00000E+1	1.40000E+1	2.00021E+1	1.40025E+1
261	02/09/2022	16:05:54.180	0.00000E+0	0.00000E+0	0.00000E+0	0.00000E+0	0.00000E+0	0.00000E+0	2.00000E+1	1.40000E+1	1.99999E+1	1.40004E+1
262	02/09/2022	16:05:55.589	0.00000E+0	0.00000E+0	0.00000E+0	0.00000E+0	0.00000E+0	0.00000E+0	2.00000E+1	1.40000E+1	1.99988E+1	1.40009E+1
263	02/09/2022	16:05:57.098	0.00000E+0	0.00000E+0	0.00000E+0	0.00000E+0	0.00000E+0	0.00000E+0	2.00000E+1	1.40000E+1	1.99990E+1	1.39966E+1
264	02/09/2022	16:05:58.488	0.00000E+0	0.00000E+0	0.00000E+0	0.00000E+0	0.00000E+0	0.00000E+0	2.00000E+1	1.40000E+1	1.99982E+1	1.40000E+1
265	02/09/2022	16:05:59.880	0.00000E+0	0.00000E+0	0.00000E+0	0.00000E+0	0.00000E+0	0.00000E+0	2.00000E+1	1.40000E+1	2.00008E+1	1.40014E+1
266	02/09/2022	16:06:01.388	0.00000E+0	0.00000E+0	0.00000E+0	0.00000E+0	0.00000E+0	0.00000E+0	2.00000E+1	1.40000E+1	1.99987E+1	1.40004E+1
267	02/09/2022	16:06:02.799	0.00000E+0	0.00000E+0	0.00000E+0	0.00000E+0	0.00000E+0	0.00000E+0	2.00000E+1	1.40000E+1	2.00022E+1	1.39981E+1
268	02/09/2022	16:06:04.325	0.00000E+0	0.00000E+0	0.00000E+0	0.00000E+0	0.00000E+0	0.00000E+0	2.00000E+1	1.40000E+1	1.99998E+1	1.40000E+1
269	02/09/2022	16:06:05.710	0.00000E+0	0.00000E+0	0.00000E+0	0.00000E+0	0.00000E+0	0.00000E+0	2.00000E+1	1.40000E+1	1.99997E+1	1.39996E+1
270	02/09/2022	16:06:07.136	0.00000E+0	0.00000E+0	0.00000E+0	0.00000E+0	0.00000E+0	0.00000E+0	2.00000E+1	1.40000E+1	1.99986E+1	1.39992E+1
271	02/09/2022	16:06:08.586	0.00000E+0	0.00000E+0	0.00000E+0	0.00000E+0	0.00000E+0	0.00000E+0	2.00000E+1	1.40000E+1	1.99964E+1	1.39989E+1
272	02/09/2022	16:06:09.966	0.00000E+0	0.00000E+0	0.00000E+0	0.00000E+0	0.00000E+0	0.00000E+0	2.00000E+1	1.40000E+1	2.00011E+1	1.40016E+1
273	02/09/2022	16:06:11.418	0.00000E+0	0.00000E+0	0.00000E+0	0.00000E+0	0.00000E+0	0.00000E+0	2.00000E+1	1.40000E+1	2.00003E+1	1.39993E+1
274	02/09/2022	16:06:12.950	0.00000E+0	0.00000E+0	0.00000E+0	0.00000E+0	0.00000E+0	0.00000E+0	2.00000E+1	1.40000E+1	1.99996E+1	1.39997E+1
275	02/09/2022	16:06:14.336	0.00000E+0	0.00000E+0	0.00000E+0	0.00000E+0	0.00000E+0	0.00000E+0	2.00000E+1	1.40000E+1	1.99999E+1	1.40003E+1
276	02/09/2022	16:06:15.859	0.00000E+0	0.00000E+0	0.00000E+0	0.00000E+0	0.00000E+0	0.00000E+0	2.00000E+1	1.40000E+1	1.99993E+1	1.39993E+1
277	02/09/2022	16:06:17.247	0.00000E+0	0.00000E+0	0.00000E+0	0.00000E+0	0.00000E+0	0.00000E+0	2.00000E+1	1.40000E+1	2.00002E+1	1.39999E+1
278	02/09/2022	16:06:18.695	0.00000E+0	0.00000E+0	0.00000E+0	0.00000E+0	0.00000E+0	0.00000E+0	2.00000E+1	1.40000E+1	2.00011E+1	1.39978E+1
279	02/09/2022	16:06:20.173	0.00000E+0	0.00000E+0	0.00000E+0	0.00000E+0	0.00000E+0	0.00000E+0	2.00000E+1	1.40000E+1	2.00006E+1	1.40014E+1
280	02/09/2022	16:06:21.567	0.00000E+0	0.00000E+0	0.00000E+0	0.00000E+0	0.00000E+0	0.00000E+0	2.00000E+1	1.40000E+1	2.00011E+1	1.40003E+1
281	02/09/2022	16:06:23.095	0.00000E+0	0.00000E+0	0.00000E+0	0.00000E+0	0.00000E+0	0.00000E+0	2.00000E+1	1.40000E+1	1.99978E+1	1.40018E+1
282	02/09/2022	16:06:24.494	0.00000E+0	0.00000E+0	0.00000E+0	0.00000E+0	0.00000E+0	0.00000E+0	2.00000E+1	1.40000E+1	1.99990E+1	1.39977E+1
283	02/09/2022	16:06:25.890	0.00000E+0	0.00000E+0	0.00000E+0	0.00000E+0	0.00000E+0	0.00000E+0	2.00000E+1	1.40000E+1	1.99981E+1	1.40015E+1
284	02/09/2022	16:06:27.412	0.00000E+0	0.00000E+0	0.00000E+0	0.00000E+0	0.00000E+0	0.00000E+0	2.00000E+1	1.40000E+1	1.99984E+1	1.40007E+1
285	02/09/2022	16:06:28.812	0.00000E+0	0.00000E+0	0.00000E+0	0.00000E+0	0.00000E+0	0.00000E+0	2.00000E+1	1.40000E+1	1.99993E+1	1.39989E+1
286	02/09/2022	16:06:30.241	0.00000E+0	0.00000E+0	0.00000E+0	0.00000E+0	0.00000E+0	0.00000E+0	2.00000E+1	1.40000E+1	2.00013E+1	1.40011E+1
287	02/09/2022	16:06:31.748	0.00000E+0	0.00000E+0	0.00000E+0	0.00000E+0	0.00000E+0	0.00000E+0	2.00000E+1	1.40000E+1	1.99972E+1	1.39983E+1
288	02/09/2022	16:06:33.154	0.00000E+0	0.00000E+0	0.00000E+0	0.00000E+0	0.00000E+0	0.00000E+0	2.00000E+1	1.40000E+1	2.00012E+1	1.39994E+1
289	02/09/2022	16:06:34.703	0.00000E+0	0.00000E+0	0.00000E+0	0.00000E+0	0.00000E+0	0.00000E+0	2.00000E+1	1.40000E+1	1.99984E+1	1.39997E+1
290	02/09/2022	16:06:36.087	0.00000E+0	0.00000E+0	0.00000E+0	0.00000E+0	0.00000E+0	0.00000E+0	2.00000E+1	1.40000E+1	1.99987E+1	1.40006E+1
291	02/09/2022	16:06:37.585	0.00000E+0	0.00000E+0	0.00000E+0	0.00000E+0	0.00000E+0	0.00000E+0	2.00000E+1	1.40000E+1	1.99994E+1	1.40002E+1
292	02/09/2022	16:06:39.069	0.00000E+0	0.00000E+0	0.00000E+0	0.00000E+0	0.00000E+0	0.00000E+0	2.00000E+1	1.40000E+1	2.00001E+1	1.40001E+1
293	02/09/2022	16:06:40.450	0.00000E+0	0.00000E+0	0.00000E+0	0.00000E+0	0.00000E+0	0.00000E+0	2.00000E+1	1.40000E+1	1.99994E+1	1.40024E+1
294	02/09/2022	16:06:41.973	0.00000E+0	0.00000E+0	0.00000E+0	0.00000E+0	0.00000E+0	0.00000E+0	2.00000E+1	1.40000E+1	1.99998E+1	1.40006E+1
295	02/09/2022	16:06:43.394	0.00000E+0	0.00000E+0	0.00000E+0	0.00000E+0	0.00000E+0	0.00000E+0	2.00000E+1	1.40000E+1	1.99985E+1	1.39994E+1
296	02/09/2022	16:06:44.774	0.00000E+0	0.00000E+0	0.00000E+0	0.00000E+0	0.00000E+0	0.00000E+0	2.00000E+1	1.40000E+1	1.99975E+1	1.40002E+1
297	02/09/2022	16:06:46.327	0.00000E+0	0.00000E+0	0.00000E+0	0.00000E+0	0.00000E+0	0.00000E+0	2.00000E+1	1.40000E+1	1.99995E+1	1.40013E+1
298	02/09/2022	16:06:47.704	0.00000E+0	0.00000E+0	0.00000E+0	0.00000E+0	0.00000E+0	0.00000E+0	2.00000E+1	1.40000E+1	2.00013E+1	1.40004E+1
299	02/09/2022	16:06:49.143	0.00000E+0	0.00000E+0	0.00000E+0	0.00000E+0	0.00000E+0	0.00000E+0	2.00000E+1	1.40000E+1	1.99991E+1	1.40002E+1
300	02/09/2022	16:06:50.667	0.00000E+0	0.00000E+0	0.00000E+0	0.00000E+0	0.00000E+0	0.00000E+0	2.00000E+1	1.40000E+1	1.99986E+1	1.39978E+1
301	02/09/2022	16:06:52.056	0.00000E+0	0.00000E+0	0.00000E+0	0.00000E+0	0.00000E+0	0.00000E+0	2.00000E+1	1.40000E+1	1.99989E+1	1.39992E+1
