#Iteration	Date	Time	Chirp	Phase	RamanAxis	RatioMean	RatioStdDev
1	11/05/2023	14:17:21.469	0.00000000E+0	-1.56922630E+3	5.00000000E+0	4.91862896E-1	0.00000000E+0
2	11/05/2023	14:17:22.978	0.00000000E+0	-1.56294311E+3	5.00000000E+0	4.77529111E-1	0.00000000E+0
3	11/05/2023	14:17:24.446	0.00000000E+0	-1.55665993E+3	5.00000000E+0	4.95187379E-1	0.00000000E+0
4	11/05/2023	14:17:25.875	0.00000000E+0	-1.55037674E+3	5.00000000E+0	4.97248439E-1	0.00000000E+0
5	11/05/2023	14:17:27.298	0.00000000E+0	-1.54409356E+3	5.00000000E+0	4.84703292E-1	0.00000000E+0
6	11/05/2023	14:17:28.753	0.00000000E+0	-1.53781037E+3	5.00000000E+0	5.17947662E-1	0.00000000E+0
7	11/05/2023	14:17:30.168	0.00000000E+0	-1.53152719E+3	5.00000000E+0	3.05125885E-1	0.00000000E+0
8	11/05/2023	14:17:31.600	0.00000000E+0	-1.52524400E+3	5.00000000E+0	3.18722607E-1	0.00000000E+0
9	11/05/2023	14:17:33.009	0.00000000E+0	-1.51896082E+3	5.00000000E+0	6.07505075E-1	0.00000000E+0
10	11/05/2023	14:17:34.469	0.00000000E+0	-1.51267763E+3	5.00000000E+0	5.96814676E-1	0.00000000E+0
11	11/05/2023	14:17:35.901	0.00000000E+0	-1.50639444E+3	5.00000000E+0	6.73214448E-1	0.00000000E+0
12	11/05/2023	14:17:37.306	0.00000000E+0	-1.50011126E+3	5.00000000E+0	4.31473891E-1	0.00000000E+0
13	11/05/2023	14:17:38.731	0.00000000E+0	-1.49382807E+3	5.00000000E+0	4.10767387E-1	0.00000000E+0
14	11/05/2023	14:17:40.154	0.00000000E+0	-1.48754489E+3	5.00000000E+0	3.88963076E-1	0.00000000E+0
15	11/05/2023	14:17:41.564	0.00000000E+0	-1.48126170E+3	5.00000000E+0	4.68727510E-1	0.00000000E+0
16	11/05/2023	14:17:42.958	0.00000000E+0	-1.47497852E+3	5.00000000E+0	4.89437023E-1	0.00000000E+0
17	11/05/2023	14:17:44.392	0.00000000E+0	-1.46869533E+3	5.00000000E+0	4.90799450E-1	0.00000000E+0
18	11/05/2023	14:17:45.855	0.00000000E+0	-1.46241215E+3	5.00000000E+0	4.73668769E-1	0.00000000E+0
19	11/05/2023	14:17:47.283	0.00000000E+0	-1.45612896E+3	5.00000000E+0	4.94600851E-1	0.00000000E+0
20	11/05/2023	14:17:48.726	0.00000000E+0	-1.44984578E+3	5.00000000E+0	4.64536307E-1	0.00000000E+0
21	11/05/2023	14:17:50.147	0.00000000E+0	-1.44356259E+3	5.00000000E+0	4.96178130E-1	0.00000000E+0
22	11/05/2023	14:17:51.562	0.00000000E+0	-1.43727941E+3	5.00000000E+0	4.62394344E-1	0.00000000E+0
23	11/05/2023	14:17:53.040	0.00000000E+0	-1.43099622E+3	5.00000000E+0	4.87968062E-1	0.00000000E+0
24	11/05/2023	14:17:54.478	0.00000000E+0	-1.42471304E+3	5.00000000E+0	4.87803403E-1	0.00000000E+0
25	11/05/2023	14:17:55.892	0.00000000E+0	-1.41842985E+3	5.00000000E+0	4.86817723E-1	0.00000000E+0
26	11/05/2023	14:17:57.311	0.00000000E+0	-1.41214666E+3	5.00000000E+0	4.78879253E-1	0.00000000E+0
27	11/05/2023	14:17:58.740	0.00000000E+0	-1.40586348E+3	5.00000000E+0	4.86293332E-1	0.00000000E+0
28	11/05/2023	14:18:00.171	0.00000000E+0	-1.39958029E+3	5.00000000E+0	4.72600194E-1	0.00000000E+0
29	11/05/2023	14:18:01.592	0.00000000E+0	-1.39329711E+3	5.00000000E+0	4.79343680E-1	0.00000000E+0
30	11/05/2023	14:18:03.044	0.00000000E+0	-1.38701392E+3	5.00000000E+0	4.72742632E-1	0.00000000E+0
31	11/05/2023	14:18:04.498	0.00000000E+0	-1.38073074E+3	5.00000000E+0	5.04899488E-1	0.00000000E+0
32	11/05/2023	14:18:05.937	0.00000000E+0	-1.37444755E+3	5.00000000E+0	4.79875699E-1	0.00000000E+0
33	11/05/2023	14:18:07.335	0.00000000E+0	-1.36816437E+3	5.00000000E+0	4.74925266E-1	0.00000000E+0
34	11/05/2023	14:18:08.753	0.00000000E+0	-1.36188118E+3	5.00000000E+0	4.73491540E-1	0.00000000E+0
35	11/05/2023	14:18:10.239	0.00000000E+0	-1.35559800E+3	5.00000000E+0	4.60938229E-1	0.00000000E+0
36	11/05/2023	14:18:11.764	0.00000000E+0	-1.34931481E+3	5.00000000E+0	4.92745140E-1	0.00000000E+0
37	11/05/2023	14:18:13.161	0.00000000E+0	-1.34303163E+3	5.00000000E+0	5.00533222E-1	0.00000000E+0
38	11/05/2023	14:18:14.604	0.00000000E+0	-1.33674844E+3	5.00000000E+0	5.19918901E-1	0.00000000E+0
39	11/05/2023	14:18:16.056	0.00000000E+0	-1.33046526E+3	5.00000000E+0	4.77001849E-1	0.00000000E+0
40	11/05/2023	14:18:17.495	0.00000000E+0	-1.32418207E+3	5.00000000E+0	4.82067643E-1	0.00000000E+0
41	11/05/2023	14:18:18.904	0.00000000E+0	-1.31789889E+3	5.00000000E+0	4.98918498E-1	0.00000000E+0
42	11/05/2023	14:18:20.308	0.00000000E+0	-1.31161570E+3	5.00000000E+0	5.57585480E-1	0.00000000E+0
43	11/05/2023	14:18:21.757	0.00000000E+0	-1.30533251E+3	5.00000000E+0	4.80321538E-1	0.00000000E+0
44	11/05/2023	14:18:23.205	0.00000000E+0	-1.29904933E+3	5.00000000E+0	4.79988262E-1	0.00000000E+0
45	11/05/2023	14:18:24.617	0.00000000E+0	-1.29276614E+3	5.00000000E+0	4.77262026E-1	0.00000000E+0
46	11/05/2023	14:18:26.039	0.00000000E+0	-1.28648296E+3	5.00000000E+0	4.82074732E-1	0.00000000E+0
47	11/05/2023	14:18:27.491	0.00000000E+0	-1.28019977E+3	5.00000000E+0	5.76455723E-1	0.00000000E+0
48	11/05/2023	14:18:28.927	0.00000000E+0	-1.27391659E+3	5.00000000E+0	4.92761364E-1	0.00000000E+0
49	11/05/2023	14:18:30.340	0.00000000E+0	-1.26763340E+3	5.00000000E+0	4.80679161E-1	0.00000000E+0
50	11/05/2023	14:18:31.778	0.00000000E+0	-1.26135022E+3	5.00000000E+0	5.56675657E-1	0.00000000E+0
51	11/05/2023	14:18:33.184	0.00000000E+0	-1.25506703E+3	5.00000000E+0	4.89347612E-1	0.00000000E+0
52	11/05/2023	14:18:34.605	0.00000000E+0	-1.24878385E+3	5.00000000E+0	4.99403306E-1	0.00000000E+0
53	11/05/2023	14:18:36.027	0.00000000E+0	-1.24250066E+3	5.00000000E+0	4.79196010E-1	0.00000000E+0
54	11/05/2023	14:18:37.452	0.00000000E+0	-1.23621748E+3	5.00000000E+0	4.83346446E-1	0.00000000E+0
55	11/05/2023	14:18:38.922	0.00000000E+0	-1.22993429E+3	5.00000000E+0	4.90016122E-1	0.00000000E+0
56	11/05/2023	14:18:40.344	0.00000000E+0	-1.22365111E+3	5.00000000E+0	4.74761093E-1	0.00000000E+0
57	11/05/2023	14:18:41.770	0.00000000E+0	-1.21736792E+3	5.00000000E+0	4.73930352E-1	0.00000000E+0
58	11/05/2023	14:18:43.190	0.00000000E+0	-1.21108473E+3	5.00000000E+0	4.69750139E-1	0.00000000E+0
59	11/05/2023	14:18:44.617	0.00000000E+0	-1.20480155E+3	5.00000000E+0	4.91597427E-1	0.00000000E+0
60	11/05/2023	14:18:46.022	0.00000000E+0	-1.19851836E+3	5.00000000E+0	4.79317935E-1	0.00000000E+0
61	11/05/2023	14:18:47.515	0.00000000E+0	-1.19223518E+3	5.00000000E+0	4.66270579E-1	0.00000000E+0
62	11/05/2023	14:18:48.949	0.00000000E+0	-1.18595199E+3	5.00000000E+0	4.92965181E-1	0.00000000E+0
63	11/05/2023	14:18:50.358	0.00000000E+0	-1.17966881E+3	5.00000000E+0	5.57198170E-1	0.00000000E+0
64	11/05/2023	14:18:51.799	0.00000000E+0	-1.17338562E+3	5.00000000E+0	4.88477815E-1	0.00000000E+0
65	11/05/2023	14:18:53.284	0.00000000E+0	-1.16710244E+3	5.00000000E+0	4.69114847E-1	0.00000000E+0
66	11/05/2023	14:18:54.701	0.00000000E+0	-1.16081925E+3	5.00000000E+0	4.89964832E-1	0.00000000E+0
67	11/05/2023	14:18:56.122	0.00000000E+0	-1.15453607E+3	5.00000000E+0	4.87097159E-1	0.00000000E+0
68	11/05/2023	14:18:57.537	0.00000000E+0	-1.14825288E+3	5.00000000E+0	4.84335062E-1	0.00000000E+0
69	11/05/2023	14:18:58.970	0.00000000E+0	-1.14196970E+3	5.00000000E+0	4.72886790E-1	0.00000000E+0
70	11/05/2023	14:19:00.431	0.00000000E+0	-1.13568651E+3	5.00000000E+0	4.72738521E-1	0.00000000E+0
71	11/05/2023	14:19:01.855	0.00000000E+0	-1.12940333E+3	5.00000000E+0	4.74216715E-1	0.00000000E+0
72	11/05/2023	14:19:03.246	0.00000000E+0	-1.12312014E+3	5.00000000E+0	4.79266365E-1	0.00000000E+0
73	11/05/2023	14:19:04.642	0.00000000E+0	-1.11683696E+3	5.00000000E+0	4.99175607E-1	0.00000000E+0
74	11/05/2023	14:19:06.098	0.00000000E+0	-1.11055377E+3	5.00000000E+0	4.92330013E-1	0.00000000E+0
75	11/05/2023	14:19:07.509	0.00000000E+0	-1.10427058E+3	5.00000000E+0	4.79737864E-1	0.00000000E+0
76	11/05/2023	14:19:08.920	0.00000000E+0	-1.09798740E+3	5.00000000E+0	4.43693605E-1	0.00000000E+0
77	11/05/2023	14:19:10.346	0.00000000E+0	-1.09170421E+3	5.00000000E+0	4.91053480E-1	0.00000000E+0
78	11/05/2023	14:19:11.798	0.00000000E+0	-1.08542103E+3	5.00000000E+0	4.81860783E-1	0.00000000E+0
79	11/05/2023	14:19:13.216	0.00000000E+0	-1.07913784E+3	5.00000000E+0	4.84320727E-1	0.00000000E+0
80	11/05/2023	14:19:14.657	0.00000000E+0	-1.07285466E+3	5.00000000E+0	5.03015598E-1	0.00000000E+0
81	11/05/2023	14:19:16.076	0.00000000E+0	-1.06657147E+3	5.00000000E+0	4.40357172E-1	0.00000000E+0
82	11/05/2023	14:19:17.513	0.00000000E+0	-1.06028829E+3	5.00000000E+0	4.81317064E-1	0.00000000E+0
83	11/05/2023	14:19:18.945	0.00000000E+0	-1.05400510E+3	5.00000000E+0	5.00055424E-1	0.00000000E+0
84	11/05/2023	14:19:20.354	0.00000000E+0	-1.04772192E+3	5.00000000E+0	4.24401258E-1	0.00000000E+0
85	11/05/2023	14:19:21.765	0.00000000E+0	-1.04143873E+3	5.00000000E+0	4.87540041E-1	0.00000000E+0
86	11/05/2023	14:19:23.200	0.00000000E+0	-1.03515555E+3	5.00000000E+0	5.69649433E-1	0.00000000E+0
87	11/05/2023	14:19:24.611	0.00000000E+0	-1.02887236E+3	5.00000000E+0	5.55070703E-1	0.00000000E+0
88	11/05/2023	14:19:26.023	0.00000000E+0	-1.02258918E+3	5.00000000E+0	5.40851041E-1	0.00000000E+0
89	11/05/2023	14:19:27.437	0.00000000E+0	-1.01630599E+3	5.00000000E+0	3.92024150E-1	0.00000000E+0
90	11/05/2023	14:19:28.863	0.00000000E+0	-1.01002281E+3	5.00000000E+0	4.09164857E-1	0.00000000E+0
91	11/05/2023	14:19:30.289	0.00000000E+0	-1.00373962E+3	5.00000000E+0	3.89009056E-1	0.00000000E+0
92	11/05/2023	14:19:31.718	0.00000000E+0	-9.97456435E+2	5.00000000E+0	5.21271350E-1	0.00000000E+0
93	11/05/2023	14:19:33.142	0.00000000E+0	-9.91173249E+2	5.00000000E+0	5.11070592E-1	0.00000000E+0
94	11/05/2023	14:19:34.611	0.00000000E+0	-9.84890064E+2	5.00000000E+0	4.29430529E-1	0.00000000E+0
95	11/05/2023	14:19:36.043	0.00000000E+0	-9.78606879E+2	5.00000000E+0	5.74211375E-1	0.00000000E+0
96	11/05/2023	14:19:37.467	0.00000000E+0	-9.72323693E+2	5.00000000E+0	5.77044098E-1	0.00000000E+0
97	11/05/2023	14:19:38.873	0.00000000E+0	-9.66040508E+2	5.00000000E+0	4.82587316E-1	0.00000000E+0
98	11/05/2023	14:19:40.301	0.00000000E+0	-9.59757323E+2	5.00000000E+0	3.99906587E-1	0.00000000E+0
99	11/05/2023	14:19:41.741	0.00000000E+0	-9.53474137E+2	5.00000000E+0	4.86304061E-1	0.00000000E+0
100	11/05/2023	14:19:43.165	0.00000000E+0	-9.47190952E+2	5.00000000E+0	4.83142812E-1	0.00000000E+0
101	11/05/2023	14:19:44.617	0.00000000E+0	-9.40907767E+2	5.00000000E+0	4.92115338E-1	0.00000000E+0
102	11/05/2023	14:19:46.066	0.00000000E+0	-9.34624581E+2	5.00000000E+0	4.92221446E-1	0.00000000E+0
103	11/05/2023	14:19:47.520	0.00000000E+0	-9.28341396E+2	5.00000000E+0	4.96606814E-1	0.00000000E+0
104	11/05/2023	14:19:48.972	0.00000000E+0	-9.22058211E+2	5.00000000E+0	4.88123307E-1	0.00000000E+0
105	11/05/2023	14:19:50.406	0.00000000E+0	-9.15775026E+2	5.00000000E+0	4.85685635E-1	0.00000000E+0
106	11/05/2023	14:19:51.849	0.00000000E+0	-9.09491840E+2	5.00000000E+0	6.33271418E-1	0.00000000E+0
107	11/05/2023	14:19:53.324	0.00000000E+0	-9.03208655E+2	5.00000000E+0	4.86924799E-1	0.00000000E+0
108	11/05/2023	14:19:54.767	0.00000000E+0	-8.96925470E+2	5.00000000E+0	4.42341756E-1	0.00000000E+0
109	11/05/2023	14:19:56.195	0.00000000E+0	-8.90642284E+2	5.00000000E+0	4.90239195E-1	0.00000000E+0
110	11/05/2023	14:19:57.623	0.00000000E+0	-8.84359099E+2	5.00000000E+0	4.43238118E-1	0.00000000E+0
111	11/05/2023	14:19:59.044	0.00000000E+0	-8.78075914E+2	5.00000000E+0	4.80152266E-1	0.00000000E+0
112	11/05/2023	14:20:00.484	0.00000000E+0	-8.71792728E+2	5.00000000E+0	4.95140466E-1	0.00000000E+0
113	11/05/2023	14:20:01.891	0.00000000E+0	-8.65509543E+2	5.00000000E+0	4.61170077E-1	0.00000000E+0
114	11/05/2023	14:20:03.325	0.00000000E+0	-8.59226358E+2	5.00000000E+0	4.85093536E-1	0.00000000E+0
115	11/05/2023	14:20:04.743	0.00000000E+0	-8.52943172E+2	5.00000000E+0	4.70329122E-1	0.00000000E+0
116	11/05/2023	14:20:06.205	0.00000000E+0	-8.46659987E+2	5.00000000E+0	4.75873363E-1	0.00000000E+0
117	11/05/2023	14:20:07.626	0.00000000E+0	-8.40376802E+2	5.00000000E+0	4.87312708E-1	0.00000000E+0
118	11/05/2023	14:20:09.077	0.00000000E+0	-8.34093617E+2	5.00000000E+0	4.91976507E-1	0.00000000E+0
119	11/05/2023	14:20:10.506	0.00000000E+0	-8.27810431E+2	5.00000000E+0	4.98458674E-1	0.00000000E+0
120	11/05/2023	14:20:11.918	0.00000000E+0	-8.21527246E+2	5.00000000E+0	3.71013739E-1	0.00000000E+0
121	11/05/2023	14:20:13.352	0.00000000E+0	-8.15244061E+2	5.00000000E+0	4.70078615E-1	0.00000000E+0
122	11/05/2023	14:20:14.757	0.00000000E+0	-8.08960875E+2	5.00000000E+0	4.91489597E-1	0.00000000E+0
123	11/05/2023	14:20:16.175	0.00000000E+0	-8.02677690E+2	5.00000000E+0	4.74953166E-1	0.00000000E+0
124	11/05/2023	14:20:17.586	0.00000000E+0	-7.96394505E+2	5.00000000E+0	5.01071342E-1	0.00000000E+0
125	11/05/2023	14:20:19.008	0.00000000E+0	-7.90111319E+2	5.00000000E+0	4.67838873E-1	0.00000000E+0
126	11/05/2023	14:20:20.413	0.00000000E+0	-7.83828134E+2	5.00000000E+0	4.92350024E-1	0.00000000E+0
127	11/05/2023	14:20:21.824	0.00000000E+0	-7.77544949E+2	5.00000000E+0	4.88716375E-1	0.00000000E+0
128	11/05/2023	14:20:23.281	0.00000000E+0	-7.71261763E+2	5.00000000E+0	5.00290941E-1	0.00000000E+0
129	11/05/2023	14:20:24.705	0.00000000E+0	-7.64978578E+2	5.00000000E+0	4.93362032E-1	0.00000000E+0
130	11/05/2023	14:20:26.132	0.00000000E+0	-7.58695393E+2	5.00000000E+0	4.81279133E-1	0.00000000E+0
131	11/05/2023	14:20:27.545	0.00000000E+0	-7.52412208E+2	5.00000000E+0	4.94653875E-1	0.00000000E+0
132	11/05/2023	14:20:28.961	0.00000000E+0	-7.46129022E+2	5.00000000E+0	4.89046882E-1	0.00000000E+0
133	11/05/2023	14:20:30.421	0.00000000E+0	-7.39845837E+2	5.00000000E+0	4.80212234E-1	0.00000000E+0
134	11/05/2023	14:20:31.862	0.00000000E+0	-7.33562652E+2	5.00000000E+0	4.89654529E-1	0.00000000E+0
135	11/05/2023	14:20:33.274	0.00000000E+0	-7.27279466E+2	5.00000000E+0	4.80144006E-1	0.00000000E+0
136	11/05/2023	14:20:34.687	0.00000000E+0	-7.20996281E+2	5.00000000E+0	4.88629846E-1	0.00000000E+0
137	11/05/2023	14:20:36.217	0.00000000E+0	-7.14713096E+2	5.00000000E+0	4.83839317E-1	0.00000000E+0
138	11/05/2023	14:20:37.649	0.00000000E+0	-7.08429910E+2	5.00000000E+0	4.91808401E-1	0.00000000E+0
139	11/05/2023	14:20:39.062	0.00000000E+0	-7.02146725E+2	5.00000000E+0	4.86643862E-1	0.00000000E+0
140	11/05/2023	14:20:40.484	0.00000000E+0	-6.95863540E+2	5.00000000E+0	4.82596887E-1	0.00000000E+0
141	11/05/2023	14:20:41.956	0.00000000E+0	-6.89580354E+2	5.00000000E+0	4.95519646E-1	0.00000000E+0
142	11/05/2023	14:20:43.404	0.00000000E+0	-6.83297169E+2	5.00000000E+0	5.60192649E-1	0.00000000E+0
143	11/05/2023	14:20:44.827	0.00000000E+0	-6.77013984E+2	5.00000000E+0	4.77765983E-1	0.00000000E+0
144	11/05/2023	14:20:46.244	0.00000000E+0	-6.70730799E+2	5.00000000E+0	6.37438743E-1	0.00000000E+0
145	11/05/2023	14:20:47.680	0.00000000E+0	-6.64447613E+2	5.00000000E+0	4.93142736E-1	0.00000000E+0
146	11/05/2023	14:20:49.083	0.00000000E+0	-6.58164428E+2	5.00000000E+0	4.67416654E-1	0.00000000E+0
147	11/05/2023	14:20:50.524	0.00000000E+0	-6.51881243E+2	5.00000000E+0	4.91740142E-1	0.00000000E+0
148	11/05/2023	14:20:51.947	0.00000000E+0	-6.45598057E+2	5.00000000E+0	4.84009954E-1	0.00000000E+0
149	11/05/2023	14:20:53.444	0.00000000E+0	-6.39314872E+2	5.00000000E+0	4.82397099E-1	0.00000000E+0
150	11/05/2023	14:20:54.866	0.00000000E+0	-6.33031687E+2	5.00000000E+0	4.76075518E-1	0.00000000E+0
151	11/05/2023	14:20:56.290	0.00000000E+0	-6.26748501E+2	5.00000000E+0	4.85767683E-1	0.00000000E+0
152	11/05/2023	14:20:57.704	0.00000000E+0	-6.20465316E+2	5.00000000E+0	4.71152269E-1	0.00000000E+0
153	11/05/2023	14:20:59.129	0.00000000E+0	-6.14182131E+2	5.00000000E+0	4.92091933E-1	0.00000000E+0
154	11/05/2023	14:21:00.554	0.00000000E+0	-6.07898945E+2	5.00000000E+0	4.85486115E-1	0.00000000E+0
155	11/05/2023	14:21:02.001	0.00000000E+0	-6.01615760E+2	5.00000000E+0	4.81944564E-1	0.00000000E+0
156	11/05/2023	14:21:03.433	0.00000000E+0	-5.95332575E+2	5.00000000E+0	4.90061856E-1	0.00000000E+0
157	11/05/2023	14:21:04.882	0.00000000E+0	-5.89049390E+2	5.00000000E+0	5.00260931E-1	0.00000000E+0
158	11/05/2023	14:21:06.290	0.00000000E+0	-5.82766204E+2	5.00000000E+0	4.83369843E-1	0.00000000E+0
159	11/05/2023	14:21:07.709	0.00000000E+0	-5.76483019E+2	5.00000000E+0	4.84149156E-1	0.00000000E+0
160	11/05/2023	14:21:09.131	0.00000000E+0	-5.70199834E+2	5.00000000E+0	4.89608829E-1	0.00000000E+0
161	11/05/2023	14:21:10.546	0.00000000E+0	-5.63916648E+2	5.00000000E+0	5.54488756E-1	0.00000000E+0
162	11/05/2023	14:21:11.957	0.00000000E+0	-5.57633463E+2	5.00000000E+0	4.89776123E-1	0.00000000E+0
163	11/05/2023	14:21:13.405	0.00000000E+0	-5.51350278E+2	5.00000000E+0	3.12070196E-1	0.00000000E+0
164	11/05/2023	14:21:14.813	0.00000000E+0	-5.45067092E+2	5.00000000E+0	4.82209380E-1	0.00000000E+0
165	11/05/2023	14:21:16.218	0.00000000E+0	-5.38783907E+2	5.00000000E+0	4.80501910E-1	0.00000000E+0
166	11/05/2023	14:21:17.658	0.00000000E+0	-5.32500722E+2	5.00000000E+0	4.96856069E-1	0.00000000E+0
167	11/05/2023	14:21:19.088	0.00000000E+0	-5.26217536E+2	5.00000000E+0	5.49713394E-1	0.00000000E+0
168	11/05/2023	14:21:20.515	0.00000000E+0	-5.19934351E+2	5.00000000E+0	4.85891930E-1	0.00000000E+0
169	11/05/2023	14:21:21.934	0.00000000E+0	-5.13651166E+2	5.00000000E+0	4.90292922E-1	0.00000000E+0
170	11/05/2023	14:21:23.357	0.00000000E+0	-5.07367981E+2	5.00000000E+0	4.83157895E-1	0.00000000E+0
171	11/05/2023	14:21:24.822	0.00000000E+0	-5.01084795E+2	5.00000000E+0	4.82180281E-1	0.00000000E+0
172	11/05/2023	14:21:26.265	0.00000000E+0	-4.94801610E+2	5.00000000E+0	4.68408217E-1	0.00000000E+0
173	11/05/2023	14:21:27.702	0.00000000E+0	-4.88518425E+2	5.00000000E+0	4.92091465E-1	0.00000000E+0
174	11/05/2023	14:21:29.126	0.00000000E+0	-4.82235239E+2	5.00000000E+0	4.61085118E-1	0.00000000E+0
175	11/05/2023	14:21:30.548	0.00000000E+0	-4.75952054E+2	5.00000000E+0	4.74807496E-1	0.00000000E+0
176	11/05/2023	14:21:32.000	0.00000000E+0	-4.69668869E+2	5.00000000E+0	4.81783091E-1	0.00000000E+0
177	11/05/2023	14:21:33.424	0.00000000E+0	-4.63385683E+2	5.00000000E+0	5.47214441E-1	0.00000000E+0
178	11/05/2023	14:21:34.870	0.00000000E+0	-4.57102498E+2	5.00000000E+0	4.81037047E-1	0.00000000E+0
179	11/05/2023	14:21:36.293	0.00000000E+0	-4.50819313E+2	5.00000000E+0	5.01847361E-1	0.00000000E+0
180	11/05/2023	14:21:37.711	0.00000000E+0	-4.44536127E+2	5.00000000E+0	4.76339649E-1	0.00000000E+0
181	11/05/2023	14:21:39.125	0.00000000E+0	-4.38252942E+2	5.00000000E+0	5.86724852E-1	0.00000000E+0
182	11/05/2023	14:21:40.539	0.00000000E+0	-4.31969757E+2	5.00000000E+0	4.90987526E-1	0.00000000E+0
183	11/05/2023	14:21:41.965	0.00000000E+0	-4.25686572E+2	5.00000000E+0	5.27039088E-1	0.00000000E+0
184	11/05/2023	14:21:43.409	0.00000000E+0	-4.19403386E+2	5.00000000E+0	5.31698305E-1	0.00000000E+0
185	11/05/2023	14:21:44.825	0.00000000E+0	-4.13120201E+2	5.00000000E+0	4.07564554E-1	0.00000000E+0
186	11/05/2023	14:21:46.228	0.00000000E+0	-4.06837016E+2	5.00000000E+0	4.60027058E-1	0.00000000E+0
187	11/05/2023	14:21:47.648	0.00000000E+0	-4.00553830E+2	5.00000000E+0	6.02542294E-1	0.00000000E+0
188	11/05/2023	14:21:49.082	0.00000000E+0	-3.94270645E+2	5.00000000E+0	4.59891211E-1	0.00000000E+0
189	11/05/2023	14:21:50.499	0.00000000E+0	-3.87987460E+2	5.00000000E+0	4.21342251E-1	0.00000000E+0
190	11/05/2023	14:21:51.922	0.00000000E+0	-3.81704274E+2	5.00000000E+0	3.86938003E-1	0.00000000E+0
191	11/05/2023	14:21:53.381	0.00000000E+0	-3.75421089E+2	5.00000000E+0	5.61618954E-1	0.00000000E+0
192	11/05/2023	14:21:54.974	0.00000000E+0	-3.69137904E+2	5.00000000E+0	6.01753748E-1	0.00000000E+0
193	11/05/2023	14:21:56.406	0.00000000E+0	-3.62854718E+2	5.00000000E+0	4.08151636E-1	0.00000000E+0
194	11/05/2023	14:21:57.847	0.00000000E+0	-3.56571533E+2	5.00000000E+0	3.64357828E-1	0.00000000E+0
195	11/05/2023	14:21:59.278	0.00000000E+0	-3.50288348E+2	5.00000000E+0	4.60337252E-1	0.00000000E+0
196	11/05/2023	14:22:00.708	0.00000000E+0	-3.44005163E+2	5.00000000E+0	5.93761163E-1	0.00000000E+0
197	11/05/2023	14:22:02.123	0.00000000E+0	-3.37721977E+2	5.00000000E+0	4.65417656E-1	0.00000000E+0
198	11/05/2023	14:22:03.574	0.00000000E+0	-3.31438792E+2	5.00000000E+0	5.56290044E-1	0.00000000E+0
199	11/05/2023	14:22:04.988	0.00000000E+0	-3.25155607E+2	5.00000000E+0	6.43409101E-1	0.00000000E+0
200	11/05/2023	14:22:06.409	0.00000000E+0	-3.18872421E+2	5.00000000E+0	5.33244885E-1	0.00000000E+0
201	11/05/2023	14:22:07.841	0.00000000E+0	-3.12589236E+2	5.00000000E+0	6.16685897E-1	0.00000000E+0
202	11/05/2023	14:22:09.268	0.00000000E+0	-3.06306051E+2	5.00000000E+0	4.53019009E-1	0.00000000E+0
203	11/05/2023	14:22:10.683	0.00000000E+0	-3.00022865E+2	5.00000000E+0	3.90869877E-1	0.00000000E+0
204	11/05/2023	14:22:12.129	0.00000000E+0	-2.93739680E+2	5.00000000E+0	5.46694770E-1	0.00000000E+0
205	11/05/2023	14:22:13.578	0.00000000E+0	-2.87456495E+2	5.00000000E+0	6.41306377E-1	0.00000000E+0
206	11/05/2023	14:22:15.010	0.00000000E+0	-2.81173309E+2	5.00000000E+0	4.56120138E-1	0.00000000E+0
207	11/05/2023	14:22:16.433	0.00000000E+0	-2.74890124E+2	5.00000000E+0	5.32886479E-1	0.00000000E+0
208	11/05/2023	14:22:17.849	0.00000000E+0	-2.68606939E+2	5.00000000E+0	4.44589793E-1	0.00000000E+0
209	11/05/2023	14:22:19.274	0.00000000E+0	-2.62323754E+2	5.00000000E+0	3.64003126E-1	0.00000000E+0
210	11/05/2023	14:22:20.782	0.00000000E+0	-2.56040568E+2	5.00000000E+0	4.04180496E-1	0.00000000E+0
211	11/05/2023	14:22:22.230	0.00000000E+0	-2.49757383E+2	5.00000000E+0	6.56557040E-1	0.00000000E+0
212	11/05/2023	14:22:23.645	0.00000000E+0	-2.43474198E+2	5.00000000E+0	4.82028383E-1	0.00000000E+0
213	11/05/2023	14:22:25.061	0.00000000E+0	-2.37191012E+2	5.00000000E+0	6.30445721E-1	0.00000000E+0
214	11/05/2023	14:22:26.501	0.00000000E+0	-2.30907827E+2	5.00000000E+0	5.74463667E-1	0.00000000E+0
215	11/05/2023	14:22:27.920	0.00000000E+0	-2.24624642E+2	5.00000000E+0	5.97797568E-1	0.00000000E+0
216	11/05/2023	14:22:29.334	0.00000000E+0	-2.18341456E+2	5.00000000E+0	3.49423310E-1	0.00000000E+0
217	11/05/2023	14:22:30.752	0.00000000E+0	-2.12058271E+2	5.00000000E+0	4.64182844E-1	0.00000000E+0
218	11/05/2023	14:22:32.205	0.00000000E+0	-2.05775086E+2	5.00000000E+0	3.25950632E-1	0.00000000E+0
219	11/05/2023	14:22:33.627	0.00000000E+0	-1.99491900E+2	5.00000000E+0	5.12711628E-1	0.00000000E+0
220	11/05/2023	14:22:35.067	0.00000000E+0	-1.93208715E+2	5.00000000E+0	3.65141121E-1	0.00000000E+0
221	11/05/2023	14:22:36.479	0.00000000E+0	-1.86925530E+2	5.00000000E+0	6.16148292E-1	0.00000000E+0
222	11/05/2023	14:22:37.913	0.00000000E+0	-1.80642345E+2	5.00000000E+0	4.34890252E-1	0.00000000E+0
223	11/05/2023	14:22:39.338	0.00000000E+0	-1.74359159E+2	5.00000000E+0	5.42780311E-1	0.00000000E+0
224	11/05/2023	14:22:40.758	0.00000000E+0	-1.68075974E+2	5.00000000E+0	5.38563800E-1	0.00000000E+0
225	11/05/2023	14:22:42.181	0.00000000E+0	-1.61792789E+2	5.00000000E+0	4.59971683E-1	0.00000000E+0
226	11/05/2023	14:22:43.638	0.00000000E+0	-1.55509603E+2	5.00000000E+0	6.36857898E-1	0.00000000E+0
227	11/05/2023	14:22:45.037	0.00000000E+0	-1.49226418E+2	5.00000000E+0	4.79304796E-1	0.00000000E+0
228	11/05/2023	14:22:46.463	0.00000000E+0	-1.42943233E+2	5.00000000E+0	5.13793475E-1	0.00000000E+0
229	11/05/2023	14:22:47.888	0.00000000E+0	-1.36660047E+2	5.00000000E+0	4.84966165E-1	0.00000000E+0
230	11/05/2023	14:22:49.383	0.00000000E+0	-1.30376862E+2	5.00000000E+0	4.51140125E-1	0.00000000E+0
231	11/05/2023	14:22:50.782	0.00000000E+0	-1.24093677E+2	5.00000000E+0	4.86462197E-1	0.00000000E+0
232	11/05/2023	14:22:52.198	0.00000000E+0	-1.17810492E+2	5.00000000E+0	4.82870587E-1	0.00000000E+0
233	11/05/2023	14:22:53.638	0.00000000E+0	-1.11527306E+2	5.00000000E+0	4.83203706E-1	0.00000000E+0
234	11/05/2023	14:22:55.068	0.00000000E+0	-1.05244121E+2	5.00000000E+0	4.90893009E-1	0.00000000E+0
235	11/05/2023	14:22:56.496	0.00000000E+0	-9.89609356E+1	5.00000000E+0	4.78916553E-1	0.00000000E+0
236	11/05/2023	14:22:57.926	0.00000000E+0	-9.26777503E+1	5.00000000E+0	5.80089868E-1	0.00000000E+0
237	11/05/2023	14:22:59.362	0.00000000E+0	-8.63945650E+1	5.00000000E+0	4.75147819E-1	0.00000000E+0
238	11/05/2023	14:23:00.781	0.00000000E+0	-8.01113797E+1	5.00000000E+0	4.63487564E-1	0.00000000E+0
239	11/05/2023	14:23:02.239	0.00000000E+0	-7.38281943E+1	5.00000000E+0	4.66041310E-1	0.00000000E+0
240	11/05/2023	14:23:03.660	0.00000000E+0	-6.75450090E+1	5.00000000E+0	4.79193558E-1	0.00000000E+0
241	11/05/2023	14:23:05.104	0.00000000E+0	-6.12618237E+1	5.00000000E+0	4.70847807E-1	0.00000000E+0
242	11/05/2023	14:23:06.525	0.00000000E+0	-5.49786384E+1	5.00000000E+0	4.94214436E-1	0.00000000E+0
243	11/05/2023	14:23:07.949	0.00000000E+0	-4.86954531E+1	5.00000000E+0	4.72654014E-1	0.00000000E+0
244	11/05/2023	14:23:09.382	0.00000000E+0	-4.24122678E+1	5.00000000E+0	4.37410478E-1	0.00000000E+0
245	11/05/2023	14:23:10.791	0.00000000E+0	-3.61290825E+1	5.00000000E+0	4.79425616E-1	0.00000000E+0
246	11/05/2023	14:23:12.212	0.00000000E+0	-2.98458972E+1	5.00000000E+0	4.91759426E-1	0.00000000E+0
247	11/05/2023	14:23:13.670	0.00000000E+0	-2.35627119E+1	5.00000000E+0	4.66166951E-1	0.00000000E+0
248	11/05/2023	14:23:15.066	0.00000000E+0	-1.72795266E+1	5.00000000E+0	4.87034183E-1	0.00000000E+0
249	11/05/2023	14:23:16.462	0.00000000E+0	-1.09963413E+1	5.00000000E+0	5.00859125E-1	0.00000000E+0
250	11/05/2023	14:23:17.878	0.00000000E+0	-4.71315597E+0	5.00000000E+0	5.32616921E-1	0.00000000E+0
251	11/05/2023	14:23:19.309	0.00000000E+0	1.57002934E+0	5.00000000E+0	4.83513343E-1	0.00000000E+0
252	11/05/2023	14:23:20.738	0.00000000E+0	7.85321464E+0	5.00000000E+0	4.90603571E-1	0.00000000E+0
253	11/05/2023	14:23:22.184	0.00000000E+0	1.41364000E+1	5.00000000E+0	4.95925720E-1	0.00000000E+0
254	11/05/2023	14:23:23.580	0.00000000E+0	2.04195853E+1	5.00000000E+0	4.78879314E-1	0.00000000E+0
255	11/05/2023	14:23:25.034	0.00000000E+0	2.67027706E+1	5.00000000E+0	4.84232055E-1	0.00000000E+0
256	11/05/2023	14:23:26.560	0.00000000E+0	3.29859559E+1	5.00000000E+0	4.80621673E-1	0.00000000E+0
257	11/05/2023	14:23:28.060	0.00000000E+0	3.92691412E+1	5.00000000E+0	5.20642053E-1	0.00000000E+0
258	11/05/2023	14:23:29.496	0.00000000E+0	4.55523265E+1	5.00000000E+0	4.90161039E-1	0.00000000E+0
259	11/05/2023	14:23:30.926	0.00000000E+0	5.18355118E+1	5.00000000E+0	4.85440240E-1	0.00000000E+0
260	11/05/2023	14:23:32.337	0.00000000E+0	5.81186971E+1	5.00000000E+0	4.85805072E-1	0.00000000E+0
261	11/05/2023	14:23:33.786	0.00000000E+0	6.44018824E+1	5.00000000E+0	4.76597225E-1	0.00000000E+0
262	11/05/2023	14:23:35.286	0.00000000E+0	7.06850677E+1	5.00000000E+0	4.74868388E-1	0.00000000E+0
263	11/05/2023	14:23:36.727	0.00000000E+0	7.69682530E+1	5.00000000E+0	4.90020188E-1	0.00000000E+0
264	11/05/2023	14:23:38.148	0.00000000E+0	8.32514383E+1	5.00000000E+0	4.85283253E-1	0.00000000E+0
265	11/05/2023	14:23:39.553	0.00000000E+0	8.95346236E+1	5.00000000E+0	4.91575566E-1	0.00000000E+0
266	11/05/2023	14:23:40.965	0.00000000E+0	9.58178089E+1	5.00000000E+0	4.72178188E-1	0.00000000E+0
267	11/05/2023	14:23:42.401	0.00000000E+0	1.02100994E+2	5.00000000E+0	4.81970590E-1	0.00000000E+0
268	11/05/2023	14:23:43.832	0.00000000E+0	1.08384180E+2	5.00000000E+0	4.92931478E-1	0.00000000E+0
269	11/05/2023	14:23:45.260	0.00000000E+0	1.14667365E+2	5.00000000E+0	5.06857695E-1	0.00000000E+0
270	11/05/2023	14:23:46.682	0.00000000E+0	1.20950550E+2	5.00000000E+0	4.97285042E-1	0.00000000E+0
271	11/05/2023	14:23:48.091	0.00000000E+0	1.27233735E+2	5.00000000E+0	5.47031024E-1	0.00000000E+0
272	11/05/2023	14:23:49.535	0.00000000E+0	1.33516921E+2	5.00000000E+0	4.88573143E-1	0.00000000E+0
273	11/05/2023	14:23:50.955	0.00000000E+0	1.39800106E+2	5.00000000E+0	4.78186687E-1	0.00000000E+0
274	11/05/2023	14:23:52.412	0.00000000E+0	1.46083291E+2	5.00000000E+0	4.85583545E-1	0.00000000E+0
275	11/05/2023	14:23:53.830	0.00000000E+0	1.52366477E+2	5.00000000E+0	4.86229649E-1	0.00000000E+0
276	11/05/2023	14:23:55.251	0.00000000E+0	1.58649662E+2	5.00000000E+0	4.83405421E-1	0.00000000E+0
277	11/05/2023	14:23:56.693	0.00000000E+0	1.64932847E+2	5.00000000E+0	4.81206378E-1	0.00000000E+0
278	11/05/2023	14:23:58.110	0.00000000E+0	1.71216033E+2	5.00000000E+0	5.71127434E-1	0.00000000E+0
279	11/05/2023	14:23:59.537	0.00000000E+0	1.77499218E+2	5.00000000E+0	4.90137530E-1	0.00000000E+0
280	11/05/2023	14:24:00.940	0.00000000E+0	1.83782403E+2	5.00000000E+0	4.72686139E-1	0.00000000E+0
281	11/05/2023	14:24:02.367	0.00000000E+0	1.90065589E+2	5.00000000E+0	4.75156711E-1	0.00000000E+0
282	11/05/2023	14:24:03.780	0.00000000E+0	1.96348774E+2	5.00000000E+0	4.98692159E-1	0.00000000E+0
283	11/05/2023	14:24:05.173	0.00000000E+0	2.02631959E+2	5.00000000E+0	4.82251801E-1	0.00000000E+0
284	11/05/2023	14:24:06.586	0.00000000E+0	2.08915144E+2	5.00000000E+0	4.96789188E-1	0.00000000E+0
285	11/05/2023	14:24:08.083	0.00000000E+0	2.15198330E+2	5.00000000E+0	4.65859468E-1	0.00000000E+0
286	11/05/2023	14:24:09.526	0.00000000E+0	2.21481515E+2	5.00000000E+0	4.87073846E-1	0.00000000E+0
287	11/05/2023	14:24:10.953	0.00000000E+0	2.27764700E+2	5.00000000E+0	6.46021619E-1	0.00000000E+0
288	11/05/2023	14:24:12.407	0.00000000E+0	2.34047886E+2	5.00000000E+0	4.98847783E-1	0.00000000E+0
289	11/05/2023	14:24:13.818	0.00000000E+0	2.40331071E+2	5.00000000E+0	4.81790623E-1	0.00000000E+0
290	11/05/2023	14:24:15.255	0.00000000E+0	2.46614256E+2	5.00000000E+0	4.64663214E-1	0.00000000E+0
291	11/05/2023	14:24:16.669	0.00000000E+0	2.52897442E+2	5.00000000E+0	4.80475652E-1	0.00000000E+0
292	11/05/2023	14:24:18.089	0.00000000E+0	2.59180627E+2	5.00000000E+0	4.79341634E-1	0.00000000E+0
293	11/05/2023	14:24:19.499	0.00000000E+0	2.65463812E+2	5.00000000E+0	4.78436449E-1	0.00000000E+0
294	11/05/2023	14:24:20.971	0.00000000E+0	2.71746998E+2	5.00000000E+0	4.42624798E-1	0.00000000E+0
295	11/05/2023	14:24:22.380	0.00000000E+0	2.78030183E+2	5.00000000E+0	4.95222452E-1	0.00000000E+0
296	11/05/2023	14:24:23.810	0.00000000E+0	2.84313368E+2	5.00000000E+0	5.37793675E-1	0.00000000E+0
297	11/05/2023	14:24:25.269	0.00000000E+0	2.90596553E+2	5.00000000E+0	4.85099623E-1	0.00000000E+0
298	11/05/2023	14:24:26.746	0.00000000E+0	2.96879739E+2	5.00000000E+0	4.64764602E-1	0.00000000E+0
299	11/05/2023	14:24:28.169	0.00000000E+0	3.03162924E+2	5.00000000E+0	4.89645290E-1	0.00000000E+0
300	11/05/2023	14:24:29.584	0.00000000E+0	3.09446109E+2	5.00000000E+0	6.31378090E-1	0.00000000E+0
301	11/05/2023	14:24:31.003	0.00000000E+0	3.15729295E+2	5.00000000E+0	4.80492448E-1	0.00000000E+0
302	11/05/2023	14:24:32.420	0.00000000E+0	3.22012480E+2	5.00000000E+0	5.49944334E-1	0.00000000E+0
303	11/05/2023	14:24:33.840	0.00000000E+0	3.28295665E+2	5.00000000E+0	4.86708329E-1	0.00000000E+0
304	11/05/2023	14:24:35.245	0.00000000E+0	3.34578851E+2	5.00000000E+0	4.17132873E-1	0.00000000E+0
305	11/05/2023	14:24:36.653	0.00000000E+0	3.40862036E+2	5.00000000E+0	4.88446133E-1	0.00000000E+0
306	11/05/2023	14:24:38.122	0.00000000E+0	3.47145221E+2	5.00000000E+0	5.97656095E-1	0.00000000E+0
307	11/05/2023	14:24:39.545	0.00000000E+0	3.53428407E+2	5.00000000E+0	4.88141323E-1	0.00000000E+0
308	11/05/2023	14:24:40.959	0.00000000E+0	3.59711592E+2	5.00000000E+0	5.90127855E-1	0.00000000E+0
309	11/05/2023	14:24:42.379	0.00000000E+0	3.65994777E+2	5.00000000E+0	4.86931876E-1	0.00000000E+0
310	11/05/2023	14:24:43.829	0.00000000E+0	3.72277962E+2	5.00000000E+0	4.94664605E-1	0.00000000E+0
311	11/05/2023	14:24:45.246	0.00000000E+0	3.78561148E+2	5.00000000E+0	4.84672622E-1	0.00000000E+0
312	11/05/2023	14:24:46.670	0.00000000E+0	3.84844333E+2	5.00000000E+0	4.81840735E-1	0.00000000E+0
313	11/05/2023	14:24:48.082	0.00000000E+0	3.91127518E+2	5.00000000E+0	4.77645905E-1	0.00000000E+0
314	11/05/2023	14:24:49.534	0.00000000E+0	3.97410704E+2	5.00000000E+0	4.86045008E-1	0.00000000E+0
315	11/05/2023	14:24:50.952	0.00000000E+0	4.03693889E+2	5.00000000E+0	4.66001878E-1	0.00000000E+0
316	11/05/2023	14:24:52.361	0.00000000E+0	4.09977074E+2	5.00000000E+0	4.76934926E-1	0.00000000E+0
317	11/05/2023	14:24:53.814	0.00000000E+0	4.16260260E+2	5.00000000E+0	5.00072276E-1	0.00000000E+0
318	11/05/2023	14:24:55.243	0.00000000E+0	4.22543445E+2	5.00000000E+0	4.86634006E-1	0.00000000E+0
319	11/05/2023	14:24:56.660	0.00000000E+0	4.28826630E+2	5.00000000E+0	4.94780636E-1	0.00000000E+0
320	11/05/2023	14:24:58.094	0.00000000E+0	4.35109816E+2	5.00000000E+0	3.71716991E-1	0.00000000E+0
321	11/05/2023	14:24:59.522	0.00000000E+0	4.41393001E+2	5.00000000E+0	4.80715864E-1	0.00000000E+0
322	11/05/2023	14:25:00.956	0.00000000E+0	4.47676186E+2	5.00000000E+0	5.79040975E-1	0.00000000E+0
323	11/05/2023	14:25:02.380	0.00000000E+0	4.53959371E+2	5.00000000E+0	4.83938337E-1	0.00000000E+0
324	11/05/2023	14:25:03.777	0.00000000E+0	4.60242557E+2	5.00000000E+0	4.94332016E-1	0.00000000E+0
325	11/05/2023	14:25:05.205	0.00000000E+0	4.66525742E+2	5.00000000E+0	4.76573168E-1	0.00000000E+0
326	11/05/2023	14:25:06.696	0.00000000E+0	4.72808927E+2	5.00000000E+0	4.80121831E-1	0.00000000E+0
327	11/05/2023	14:25:08.121	0.00000000E+0	4.79092113E+2	5.00000000E+0	5.00228916E-1	0.00000000E+0
328	11/05/2023	14:25:09.545	0.00000000E+0	4.85375298E+2	5.00000000E+0	4.82687815E-1	0.00000000E+0
329	11/05/2023	14:25:10.960	0.00000000E+0	4.91658483E+2	5.00000000E+0	4.94389695E-1	0.00000000E+0
330	11/05/2023	14:25:12.370	0.00000000E+0	4.97941669E+2	5.00000000E+0	4.94025845E-1	0.00000000E+0
331	11/05/2023	14:25:13.800	0.00000000E+0	5.04224854E+2	5.00000000E+0	4.95484743E-1	0.00000000E+0
332	11/05/2023	14:25:15.226	0.00000000E+0	5.10508039E+2	5.00000000E+0	4.86058887E-1	0.00000000E+0
333	11/05/2023	14:25:16.635	0.00000000E+0	5.16791225E+2	5.00000000E+0	4.76496024E-1	0.00000000E+0
334	11/05/2023	14:25:18.045	0.00000000E+0	5.23074410E+2	5.00000000E+0	4.92389572E-1	0.00000000E+0
335	11/05/2023	14:25:19.460	0.00000000E+0	5.29357595E+2	5.00000000E+0	4.97341302E-1	0.00000000E+0
336	11/05/2023	14:25:20.898	0.00000000E+0	5.35640780E+2	5.00000000E+0	4.94302743E-1	0.00000000E+0
337	11/05/2023	14:25:22.318	0.00000000E+0	5.41923966E+2	5.00000000E+0	4.67217768E-1	0.00000000E+0
338	11/05/2023	14:25:23.736	0.00000000E+0	5.48207151E+2	5.00000000E+0	4.80292321E-1	0.00000000E+0
339	11/05/2023	14:25:25.147	0.00000000E+0	5.54490336E+2	5.00000000E+0	4.92956353E-1	0.00000000E+0
340	11/05/2023	14:25:26.582	0.00000000E+0	5.60773522E+2	5.00000000E+0	4.85225431E-1	0.00000000E+0
341	11/05/2023	14:25:28.011	0.00000000E+0	5.67056707E+2	5.00000000E+0	4.74797558E-1	0.00000000E+0
342	11/05/2023	14:25:29.429	0.00000000E+0	5.73339892E+2	5.00000000E+0	4.83701921E-1	0.00000000E+0
343	11/05/2023	14:25:30.857	0.00000000E+0	5.79623078E+2	5.00000000E+0	4.86855573E-1	0.00000000E+0
344	11/05/2023	14:25:32.321	0.00000000E+0	5.85906263E+2	5.00000000E+0	4.81304482E-1	0.00000000E+0
345	11/05/2023	14:25:33.761	0.00000000E+0	5.92189448E+2	5.00000000E+0	4.73762380E-1	0.00000000E+0
346	11/05/2023	14:25:35.190	0.00000000E+0	5.98472634E+2	5.00000000E+0	2.55673727E-1	0.00000000E+0
347	11/05/2023	14:25:36.598	0.00000000E+0	6.04755819E+2	5.00000000E+0	4.73789476E-1	0.00000000E+0
348	11/05/2023	14:25:38.030	0.00000000E+0	6.11039004E+2	5.00000000E+0	4.75931827E-1	0.00000000E+0
349	11/05/2023	14:25:39.515	0.00000000E+0	6.17322189E+2	5.00000000E+0	4.99260676E-1	0.00000000E+0
350	11/05/2023	14:25:40.936	0.00000000E+0	6.23605375E+2	5.00000000E+0	4.64577876E-1	0.00000000E+0
351	11/05/2023	14:25:42.345	0.00000000E+0	6.29888560E+2	5.00000000E+0	4.89407577E-1	0.00000000E+0
352	11/05/2023	14:25:43.834	0.00000000E+0	6.36171745E+2	5.00000000E+0	4.83567415E-1	0.00000000E+0
353	11/05/2023	14:25:45.281	0.00000000E+0	6.42454931E+2	5.00000000E+0	4.84006885E-1	0.00000000E+0
354	11/05/2023	14:25:46.728	0.00000000E+0	6.48738116E+2	5.00000000E+0	4.83905642E-1	0.00000000E+0
355	11/05/2023	14:25:48.131	0.00000000E+0	6.55021301E+2	5.00000000E+0	3.53040159E-1	0.00000000E+0
356	11/05/2023	14:25:49.569	0.00000000E+0	6.61304487E+2	5.00000000E+0	4.82647326E-1	0.00000000E+0
357	11/05/2023	14:25:50.978	0.00000000E+0	6.67587672E+2	5.00000000E+0	4.87775724E-1	0.00000000E+0
358	11/05/2023	14:25:52.408	0.00000000E+0	6.73870857E+2	5.00000000E+0	4.84388089E-1	0.00000000E+0
359	11/05/2023	14:25:53.828	0.00000000E+0	6.80154043E+2	5.00000000E+0	4.71203553E-1	0.00000000E+0
360	11/05/2023	14:25:55.249	0.00000000E+0	6.86437228E+2	5.00000000E+0	4.82335117E-1	0.00000000E+0
361	11/05/2023	14:25:56.677	0.00000000E+0	6.92720413E+2	5.00000000E+0	4.92978869E-1	0.00000000E+0
362	11/05/2023	14:25:58.086	0.00000000E+0	6.99003598E+2	5.00000000E+0	5.25117013E-1	0.00000000E+0
363	11/05/2023	14:25:59.502	0.00000000E+0	7.05286784E+2	5.00000000E+0	4.60660886E-1	0.00000000E+0
364	11/05/2023	14:26:00.908	0.00000000E+0	7.11569969E+2	5.00000000E+0	4.50637466E-1	0.00000000E+0
365	11/05/2023	14:26:02.351	0.00000000E+0	7.17853154E+2	5.00000000E+0	4.68051432E-1	0.00000000E+0
366	11/05/2023	14:26:03.789	0.00000000E+0	7.24136340E+2	5.00000000E+0	5.28817334E-1	0.00000000E+0
367	11/05/2023	14:26:05.200	0.00000000E+0	7.30419525E+2	5.00000000E+0	4.81274467E-1	0.00000000E+0
368	11/05/2023	14:26:06.624	0.00000000E+0	7.36702710E+2	5.00000000E+0	4.31618509E-1	0.00000000E+0
369	11/05/2023	14:26:08.044	0.00000000E+0	7.42985896E+2	5.00000000E+0	4.89560405E-1	0.00000000E+0
370	11/05/2023	14:26:09.451	0.00000000E+0	7.49269081E+2	5.00000000E+0	4.97343718E-1	0.00000000E+0
371	11/05/2023	14:26:10.854	0.00000000E+0	7.55552266E+2	5.00000000E+0	4.82070136E-1	0.00000000E+0
372	11/05/2023	14:26:12.304	0.00000000E+0	7.61835452E+2	5.00000000E+0	4.85519054E-1	0.00000000E+0
373	11/05/2023	14:26:13.740	0.00000000E+0	7.68118637E+2	5.00000000E+0	4.94342478E-1	0.00000000E+0
374	11/05/2023	14:26:15.159	0.00000000E+0	7.74401822E+2	5.00000000E+0	4.90964556E-1	0.00000000E+0
375	11/05/2023	14:26:16.581	0.00000000E+0	7.80685007E+2	5.00000000E+0	5.03743857E-1	0.00000000E+0
376	11/05/2023	14:26:18.037	0.00000000E+0	7.86968193E+2	5.00000000E+0	4.90167997E-1	0.00000000E+0
377	11/05/2023	14:26:19.481	0.00000000E+0	7.93251378E+2	5.00000000E+0	4.83904778E-1	0.00000000E+0
378	11/05/2023	14:26:20.893	0.00000000E+0	7.99534563E+2	5.00000000E+0	4.78996324E-1	0.00000000E+0
379	11/05/2023	14:26:22.315	0.00000000E+0	8.05817749E+2	5.00000000E+0	4.89711284E-1	0.00000000E+0
380	11/05/2023	14:26:23.733	0.00000000E+0	8.12100934E+2	5.00000000E+0	4.69708716E-1	0.00000000E+0
381	11/05/2023	14:26:25.164	0.00000000E+0	8.18384119E+2	5.00000000E+0	4.66858663E-1	0.00000000E+0
382	11/05/2023	14:26:26.590	0.00000000E+0	8.24667305E+2	5.00000000E+0	4.88208022E-1	0.00000000E+0
383	11/05/2023	14:26:28.012	0.00000000E+0	8.30950490E+2	5.00000000E+0	5.25753961E-1	0.00000000E+0
384	11/05/2023	14:26:29.433	0.00000000E+0	8.37233675E+2	5.00000000E+0	4.82207631E-1	0.00000000E+0
385	11/05/2023	14:26:30.858	0.00000000E+0	8.43516860E+2	5.00000000E+0	4.81315388E-1	0.00000000E+0
386	11/05/2023	14:26:32.313	0.00000000E+0	8.49800046E+2	5.00000000E+0	4.65772234E-1	0.00000000E+0
387	11/05/2023	14:26:33.738	0.00000000E+0	8.56083231E+2	5.00000000E+0	4.93641627E-1	0.00000000E+0
388	11/05/2023	14:26:35.152	0.00000000E+0	8.62366416E+2	5.00000000E+0	4.83214651E-1	0.00000000E+0
389	11/05/2023	14:26:36.774	0.00000000E+0	8.68649602E+2	5.00000000E+0	4.82500081E-1	0.00000000E+0
390	11/05/2023	14:26:38.190	0.00000000E+0	8.74932787E+2	5.00000000E+0	4.61571534E-1	0.00000000E+0
391	11/05/2023	14:26:39.623	0.00000000E+0	8.81215972E+2	5.00000000E+0	4.77149760E-1	0.00000000E+0
392	11/05/2023	14:26:41.053	0.00000000E+0	8.87499158E+2	5.00000000E+0	4.76079714E-1	0.00000000E+0
393	11/05/2023	14:26:42.457	0.00000000E+0	8.93782343E+2	5.00000000E+0	5.00599176E-1	0.00000000E+0
394	11/05/2023	14:26:43.888	0.00000000E+0	9.00065528E+2	5.00000000E+0	4.84992443E-1	0.00000000E+0
395	11/05/2023	14:26:45.342	0.00000000E+0	9.06348714E+2	5.00000000E+0	4.79195210E-1	0.00000000E+0
396	11/05/2023	14:26:46.751	0.00000000E+0	9.12631899E+2	5.00000000E+0	5.25453116E-1	0.00000000E+0
397	11/05/2023	14:26:48.154	0.00000000E+0	9.18915084E+2	5.00000000E+0	4.95774182E-1	0.00000000E+0
398	11/05/2023	14:26:49.569	0.00000000E+0	9.25198269E+2	5.00000000E+0	4.51352800E-1	0.00000000E+0
399	11/05/2023	14:26:51.007	0.00000000E+0	9.31481455E+2	5.00000000E+0	6.24445040E-1	0.00000000E+0
400	11/05/2023	14:26:52.457	0.00000000E+0	9.37764640E+2	5.00000000E+0	5.71603528E-1	0.00000000E+0
401	11/05/2023	14:26:53.885	0.00000000E+0	9.44047825E+2	5.00000000E+0	5.17928051E-1	0.00000000E+0
402	11/05/2023	14:26:55.292	0.00000000E+0	9.50331011E+2	5.00000000E+0	4.33394401E-1	0.00000000E+0
403	11/05/2023	14:26:56.716	0.00000000E+0	9.56614196E+2	5.00000000E+0	4.28963643E-1	0.00000000E+0
404	11/05/2023	14:26:58.165	0.00000000E+0	9.62897381E+2	5.00000000E+0	3.32006101E-1	0.00000000E+0
405	11/05/2023	14:26:59.571	0.00000000E+0	9.69180567E+2	5.00000000E+0	3.32325552E-1	0.00000000E+0
406	11/05/2023	14:27:00.973	0.00000000E+0	9.75463752E+2	5.00000000E+0	4.65151423E-1	0.00000000E+0
407	11/05/2023	14:27:02.469	0.00000000E+0	9.81746937E+2	5.00000000E+0	4.49830168E-1	0.00000000E+0
408	11/05/2023	14:27:03.920	0.00000000E+0	9.88030123E+2	5.00000000E+0	4.35418269E-1	0.00000000E+0
409	11/05/2023	14:27:05.336	0.00000000E+0	9.94313308E+2	5.00000000E+0	5.82478117E-1	0.00000000E+0
410	11/05/2023	14:27:06.761	0.00000000E+0	1.00059649E+3	5.00000000E+0	5.41495375E-1	0.00000000E+0
411	11/05/2023	14:27:08.179	0.00000000E+0	1.00687968E+3	5.00000000E+0	5.27721611E-1	0.00000000E+0
412	11/05/2023	14:27:09.612	0.00000000E+0	1.01316286E+3	5.00000000E+0	4.56271426E-1	0.00000000E+0
413	11/05/2023	14:27:11.034	0.00000000E+0	1.01944605E+3	5.00000000E+0	4.59634176E-1	0.00000000E+0
414	11/05/2023	14:27:12.442	0.00000000E+0	1.02572923E+3	5.00000000E+0	5.70413670E-1	0.00000000E+0
415	11/05/2023	14:27:13.841	0.00000000E+0	1.03201242E+3	5.00000000E+0	4.93193902E-1	0.00000000E+0
416	11/05/2023	14:27:15.276	0.00000000E+0	1.03829561E+3	5.00000000E+0	4.86763716E-1	0.00000000E+0
417	11/05/2023	14:27:16.693	0.00000000E+0	1.04457879E+3	5.00000000E+0	4.19070393E-1	0.00000000E+0
418	11/05/2023	14:27:18.095	0.00000000E+0	1.05086198E+3	5.00000000E+0	5.39193339E-1	0.00000000E+0
419	11/05/2023	14:27:19.519	0.00000000E+0	1.05714516E+3	5.00000000E+0	4.62406000E-1	0.00000000E+0
420	11/05/2023	14:27:20.946	0.00000000E+0	1.06342835E+3	5.00000000E+0	4.70005786E-1	0.00000000E+0
421	11/05/2023	14:27:22.355	0.00000000E+0	1.06971153E+3	5.00000000E+0	4.89915420E-1	0.00000000E+0
422	11/05/2023	14:27:23.761	0.00000000E+0	1.07599472E+3	5.00000000E+0	5.57360121E-1	0.00000000E+0
423	11/05/2023	14:27:25.205	0.00000000E+0	1.08227790E+3	5.00000000E+0	4.68472120E-1	0.00000000E+0
424	11/05/2023	14:27:26.622	0.00000000E+0	1.08856109E+3	5.00000000E+0	4.84624182E-1	0.00000000E+0
425	11/05/2023	14:27:28.031	0.00000000E+0	1.09484427E+3	5.00000000E+0	5.59589957E-1	0.00000000E+0
426	11/05/2023	14:27:29.488	0.00000000E+0	1.10112746E+3	5.00000000E+0	4.14804198E-1	0.00000000E+0
427	11/05/2023	14:27:30.902	0.00000000E+0	1.10741064E+3	5.00000000E+0	5.24184550E-1	0.00000000E+0
428	11/05/2023	14:27:32.312	0.00000000E+0	1.11369383E+3	5.00000000E+0	3.17766019E-1	0.00000000E+0
429	11/05/2023	14:27:33.728	0.00000000E+0	1.11997701E+3	5.00000000E+0	5.74564932E-1	0.00000000E+0
430	11/05/2023	14:27:35.145	0.00000000E+0	1.12626020E+3	5.00000000E+0	4.31544822E-1	0.00000000E+0
431	11/05/2023	14:27:36.558	0.00000000E+0	1.13254338E+3	5.00000000E+0	3.67796307E-1	0.00000000E+0
432	11/05/2023	14:27:38.013	0.00000000E+0	1.13882657E+3	5.00000000E+0	4.99541894E-1	0.00000000E+0
433	11/05/2023	14:27:39.445	0.00000000E+0	1.14510976E+3	5.00000000E+0	6.32200465E-1	0.00000000E+0
434	11/05/2023	14:27:40.871	0.00000000E+0	1.15139294E+3	5.00000000E+0	6.28257770E-1	0.00000000E+0
435	11/05/2023	14:27:42.301	0.00000000E+0	1.15767613E+3	5.00000000E+0	6.23983620E-1	0.00000000E+0
436	11/05/2023	14:27:43.762	0.00000000E+0	1.16395931E+3	5.00000000E+0	6.38823150E-1	0.00000000E+0
437	11/05/2023	14:27:45.185	0.00000000E+0	1.17024250E+3	5.00000000E+0	3.96686761E-1	0.00000000E+0
438	11/05/2023	14:27:46.614	0.00000000E+0	1.17652568E+3	5.00000000E+0	3.24714262E-1	0.00000000E+0
439	11/05/2023	14:27:48.050	0.00000000E+0	1.18280887E+3	5.00000000E+0	3.09423467E-1	0.00000000E+0
440	11/05/2023	14:27:49.475	0.00000000E+0	1.18909205E+3	5.00000000E+0	3.23854527E-1	0.00000000E+0
441	11/05/2023	14:27:51.363	0.00000000E+0	1.19537524E+3	5.00000000E+0	3.21605105E-1	0.00000000E+0
442	11/05/2023	14:27:52.774	0.00000000E+0	1.20165842E+3	5.00000000E+0	3.65731902E-1	0.00000000E+0
443	11/05/2023	14:27:54.170	0.00000000E+0	1.20794161E+3	5.00000000E+0	5.46103464E-1	0.00000000E+0
444	11/05/2023	14:27:55.591	0.00000000E+0	1.21422479E+3	5.00000000E+0	4.53512719E-1	0.00000000E+0
445	11/05/2023	14:27:57.013	0.00000000E+0	1.22050798E+3	5.00000000E+0	4.76544152E-1	0.00000000E+0
446	11/05/2023	14:27:58.433	0.00000000E+0	1.22679116E+3	5.00000000E+0	6.27124440E-1	0.00000000E+0
447	11/05/2023	14:27:59.855	0.00000000E+0	1.23307435E+3	5.00000000E+0	5.30615689E-1	0.00000000E+0
448	11/05/2023	14:28:01.274	0.00000000E+0	1.23935753E+3	5.00000000E+0	3.71280843E-1	0.00000000E+0
449	11/05/2023	14:28:02.687	0.00000000E+0	1.24564072E+3	5.00000000E+0	4.67679702E-1	0.00000000E+0
450	11/05/2023	14:28:04.162	0.00000000E+0	1.25192391E+3	5.00000000E+0	4.94297906E-1	0.00000000E+0
451	11/05/2023	14:28:05.557	0.00000000E+0	1.25820709E+3	5.00000000E+0	5.72619004E-1	0.00000000E+0
452	11/05/2023	14:28:06.975	0.00000000E+0	1.26449028E+3	5.00000000E+0	5.56843986E-1	0.00000000E+0
453	11/05/2023	14:28:08.412	0.00000000E+0	1.27077346E+3	5.00000000E+0	3.41630234E-1	0.00000000E+0
454	11/05/2023	14:28:09.825	0.00000000E+0	1.27705665E+3	5.00000000E+0	5.93766271E-1	0.00000000E+0
455	11/05/2023	14:28:11.266	0.00000000E+0	1.28333983E+3	5.00000000E+0	4.33175049E-1	0.00000000E+0
456	11/05/2023	14:28:12.684	0.00000000E+0	1.28962302E+3	5.00000000E+0	3.43946372E-1	0.00000000E+0
457	11/05/2023	14:28:14.100	0.00000000E+0	1.29590620E+3	5.00000000E+0	4.14311712E-1	0.00000000E+0
458	11/05/2023	14:28:15.511	0.00000000E+0	1.30218939E+3	5.00000000E+0	4.62598278E-1	0.00000000E+0
459	11/05/2023	14:28:16.946	0.00000000E+0	1.30847257E+3	5.00000000E+0	5.59903588E-1	0.00000000E+0
460	11/05/2023	14:28:18.390	0.00000000E+0	1.31475576E+3	5.00000000E+0	5.34088352E-1	0.00000000E+0
461	11/05/2023	14:28:19.802	0.00000000E+0	1.32103894E+3	5.00000000E+0	5.68421603E-1	0.00000000E+0
462	11/05/2023	14:28:21.222	0.00000000E+0	1.32732213E+3	5.00000000E+0	3.43081674E-1	0.00000000E+0
463	11/05/2023	14:28:22.670	0.00000000E+0	1.33360531E+3	5.00000000E+0	3.21317956E-1	0.00000000E+0
464	11/05/2023	14:28:24.237	0.00000000E+0	1.33988850E+3	5.00000000E+0	5.30818809E-1	0.00000000E+0
465	11/05/2023	14:28:25.654	0.00000000E+0	1.34617169E+3	5.00000000E+0	5.20393307E-1	0.00000000E+0
466	11/05/2023	14:28:27.053	0.00000000E+0	1.35245487E+3	5.00000000E+0	6.24151524E-1	0.00000000E+0
467	11/05/2023	14:28:28.482	0.00000000E+0	1.35873806E+3	5.00000000E+0	5.70438994E-1	0.00000000E+0
468	11/05/2023	14:28:29.907	0.00000000E+0	1.36502124E+3	5.00000000E+0	4.84808374E-1	0.00000000E+0
469	11/05/2023	14:28:31.338	0.00000000E+0	1.37130443E+3	5.00000000E+0	5.31977071E-1	0.00000000E+0
470	11/05/2023	14:28:32.749	0.00000000E+0	1.37758761E+3	5.00000000E+0	6.23245718E-1	0.00000000E+0
471	11/05/2023	14:28:34.184	0.00000000E+0	1.38387080E+3	5.00000000E+0	6.14752992E-1	0.00000000E+0
472	11/05/2023	14:28:35.599	0.00000000E+0	1.39015398E+3	5.00000000E+0	5.76437430E-1	0.00000000E+0
473	11/05/2023	14:28:36.998	0.00000000E+0	1.39643717E+3	5.00000000E+0	5.33036789E-1	0.00000000E+0
474	11/05/2023	14:28:38.417	0.00000000E+0	1.40272035E+3	5.00000000E+0	4.10956571E-1	0.00000000E+0
475	11/05/2023	14:28:39.842	0.00000000E+0	1.40900354E+3	5.00000000E+0	4.16336362E-1	0.00000000E+0
476	11/05/2023	14:28:41.283	0.00000000E+0	1.41528672E+3	5.00000000E+0	3.57621215E-1	0.00000000E+0
477	11/05/2023	14:28:42.683	0.00000000E+0	1.42156991E+3	5.00000000E+0	3.48570211E-1	0.00000000E+0
478	11/05/2023	14:28:44.102	0.00000000E+0	1.42785309E+3	5.00000000E+0	4.83530219E-1	0.00000000E+0
479	11/05/2023	14:28:45.563	0.00000000E+0	1.43413628E+3	5.00000000E+0	4.38790842E-1	0.00000000E+0
480	11/05/2023	14:28:46.989	0.00000000E+0	1.44041946E+3	5.00000000E+0	5.31853645E-1	0.00000000E+0
481	11/05/2023	14:28:48.397	0.00000000E+0	1.44670265E+3	5.00000000E+0	5.33671274E-1	0.00000000E+0
482	11/05/2023	14:28:49.813	0.00000000E+0	1.45298584E+3	5.00000000E+0	3.90414437E-1	0.00000000E+0
483	11/05/2023	14:28:51.221	0.00000000E+0	1.45926902E+3	5.00000000E+0	4.71065011E-1	0.00000000E+0
484	11/05/2023	14:28:52.630	0.00000000E+0	1.46555221E+3	5.00000000E+0	3.71676120E-1	0.00000000E+0
485	11/05/2023	14:28:54.059	0.00000000E+0	1.47183539E+3	5.00000000E+0	4.90081329E-1	0.00000000E+0
486	11/05/2023	14:28:55.475	0.00000000E+0	1.47811858E+3	5.00000000E+0	5.20994047E-1	0.00000000E+0
487	11/05/2023	14:28:56.884	0.00000000E+0	1.48440176E+3	5.00000000E+0	3.75508493E-1	0.00000000E+0
488	11/05/2023	14:28:58.296	0.00000000E+0	1.49068495E+3	5.00000000E+0	6.14891383E-1	0.00000000E+0
489	11/05/2023	14:28:59.728	0.00000000E+0	1.49696813E+3	5.00000000E+0	3.66014361E-1	0.00000000E+0
490	11/05/2023	14:29:01.146	0.00000000E+0	1.50325132E+3	5.00000000E+0	3.94616854E-1	0.00000000E+0
491	11/05/2023	14:29:02.570	0.00000000E+0	1.50953450E+3	5.00000000E+0	6.64754208E-1	0.00000000E+0
492	11/05/2023	14:29:04.010	0.00000000E+0	1.51581769E+3	5.00000000E+0	4.40775264E-1	0.00000000E+0
493	11/05/2023	14:29:05.431	0.00000000E+0	1.52210087E+3	5.00000000E+0	6.19433714E-1	0.00000000E+0
494	11/05/2023	14:29:06.860	0.00000000E+0	1.52838406E+3	5.00000000E+0	6.36916553E-1	0.00000000E+0
495	11/05/2023	14:29:08.285	0.00000000E+0	1.53466724E+3	5.00000000E+0	5.00349804E-1	0.00000000E+0
496	11/05/2023	14:29:09.690	0.00000000E+0	1.54095043E+3	5.00000000E+0	5.87663240E-1	0.00000000E+0
497	11/05/2023	14:29:11.132	0.00000000E+0	1.54723361E+3	5.00000000E+0	5.28039138E-1	0.00000000E+0
498	11/05/2023	14:29:12.541	0.00000000E+0	1.55351680E+3	5.00000000E+0	5.28500277E-1	0.00000000E+0
499	11/05/2023	14:29:13.956	0.00000000E+0	1.55979999E+3	5.00000000E+0	4.15080229E-1	0.00000000E+0
500	11/05/2023	14:29:15.377	0.00000000E+0	1.56608317E+3	5.00000000E+0	5.08000123E-1	0.00000000E+0
