#Iteration	Date	Time	STSX	STSY	RotationRateX	RotationRateY	FrCntX	FrCntY	TiptiltCmd1	TiptiltCmd2	TiptiltMonitor1	TiptiltMonitor2
1	11/05/2023	14:17:21.469	0.00000E+0	0.00000E+0	1.44553E-1	2.73509E-2	0.00000E+0	0.00000E+0	1.95200E+1	1.35000E+1	1.95192E+1	1.34979E+1
2	11/05/2023	14:17:22.978	0.00000E+0	0.00000E+0	5.74946E-2	1.73757E-1	0.00000E+0	0.00000E+0	1.95200E+1	1.35000E+1	1.95194E+1	1.34985E+1
3	11/05/2023	14:17:24.446	0.00000E+0	0.00000E+0	-4.52603E-2	-7.07104E-2	0.00000E+0	0.00000E+0	1.95200E+1	1.35000E+1	1.95176E+1	1.34984E+1
4	11/05/2023	14:17:25.875	0.00000E+0	0.00000E+0	1.21651E-1	1.02057E-1	0.00000E+0	0.00000E+0	1.95200E+1	1.35000E+1	1.95204E+1	1.35018E+1
5	11/05/2023	14:17:27.298	0.00000E+0	0.00000E+0	1.56253E-1	1.41868E-1	0.00000E+0	0.00000E+0	1.95200E+1	1.35000E+1	1.95180E+1	1.34995E+1
6	11/05/2023	14:17:28.753	0.00000E+0	0.00000E+0	-6.50776E-2	3.43980E-2	0.00000E+0	0.00000E+0	1.95200E+1	1.35000E+1	1.95202E+1	1.34984E+1
7	11/05/2023	14:17:30.168	0.00000E+0	0.00000E+0	1.61126E+1	1.74391E+1	0.00000E+0	0.00000E+0	1.95200E+1	1.35000E+1	1.95199E+1	1.34999E+1
8	11/05/2023	14:17:31.600	0.00000E+0	0.00000E+0	1.42561E+1	1.47993E+1	0.00000E+0	0.00000E+0	1.95200E+1	1.35000E+1	1.95194E+1	1.34994E+1
9	11/05/2023	14:17:33.009	0.00000E+0	0.00000E+0	2.88548E+1	2.92744E+1	0.00000E+0	0.00000E+0	1.95200E+1	1.35000E+1	1.95238E+1	1.35000E+1
10	11/05/2023	14:17:34.469	0.00000E+0	0.00000E+0	2.30011E+1	2.08892E+1	0.00000E+0	0.00000E+0	1.95200E+1	1.35000E+1	1.95201E+1	1.35005E+1
11	11/05/2023	14:17:35.901	0.00000E+0	0.00000E+0	-8.81117E+0	-9.54106E+0	0.00000E+0	0.00000E+0	1.95200E+1	1.35000E+1	1.95209E+1	1.35010E+1
12	11/05/2023	14:17:37.306	0.00000E+0	0.00000E+0	-2.22288E+1	-2.28377E+1	0.00000E+0	0.00000E+0	1.95200E+1	1.35000E+1	1.95213E+1	1.34997E+1
13	11/05/2023	14:17:38.731	0.00000E+0	0.00000E+0	-2.79335E+1	-2.85552E+1	0.00000E+0	0.00000E+0	1.95200E+1	1.35000E+1	1.95172E+1	1.35005E+1
14	11/05/2023	14:17:40.154	0.00000E+0	0.00000E+0	-3.25903E+1	-3.33740E+1	0.00000E+0	0.00000E+0	1.95200E+1	1.35000E+1	1.95178E+1	1.34990E+1
15	11/05/2023	14:17:41.564	0.00000E+0	0.00000E+0	-4.02392E+1	-4.15362E+1	0.00000E+0	0.00000E+0	1.95200E+1	1.35000E+1	1.95195E+1	1.35008E+1
16	11/05/2023	14:17:42.958	0.00000E+0	0.00000E+0	-6.85736E+1	-7.54448E+1	0.00000E+0	0.00000E+0	1.95200E+1	1.35000E+1	1.95196E+1	1.35011E+1
17	11/05/2023	14:17:44.392	0.00000E+0	0.00000E+0	-2.70301E+1	-1.70387E+1	0.00000E+0	0.00000E+0	1.95200E+1	1.35000E+1	1.95206E+1	1.35004E+1
18	11/05/2023	14:17:45.855	0.00000E+0	0.00000E+0	1.09759E+2	1.13606E+2	0.00000E+0	0.00000E+0	1.95200E+1	1.35000E+1	1.95185E+1	1.34996E+1
19	11/05/2023	14:17:47.283	0.00000E+0	0.00000E+0	1.26033E+2	1.25847E+2	0.00000E+0	0.00000E+0	1.95200E+1	1.35000E+1	1.95197E+1	1.35026E+1
20	11/05/2023	14:17:48.726	0.00000E+0	0.00000E+0	-6.40080E+1	-7.27135E+1	0.00000E+0	0.00000E+0	1.95200E+1	1.35000E+1	1.95196E+1	1.34997E+1
21	11/05/2023	14:17:50.147	0.00000E+0	0.00000E+0	-1.49418E+2	-1.52392E+2	0.00000E+0	0.00000E+0	1.95200E+1	1.35000E+1	1.95198E+1	1.35010E+1
22	11/05/2023	14:17:51.562	0.00000E+0	0.00000E+0	-9.28819E+1	-8.34894E+1	0.00000E+0	0.00000E+0	1.95200E+1	1.35000E+1	1.95170E+1	1.35025E+1
23	11/05/2023	14:17:53.040	0.00000E+0	0.00000E+0	9.96223E+1	1.05323E+2	0.00000E+0	0.00000E+0	1.95200E+1	1.35000E+1	1.95197E+1	1.35020E+1
24	11/05/2023	14:17:54.478	0.00000E+0	0.00000E+0	1.38402E+2	1.38895E+2	0.00000E+0	0.00000E+0	1.95200E+1	1.35000E+1	1.95188E+1	1.34996E+1
25	11/05/2023	14:17:55.892	0.00000E+0	0.00000E+0	7.31243E+1	6.33803E+1	0.00000E+0	0.00000E+0	1.95200E+1	1.35000E+1	1.95190E+1	1.34971E+1
26	11/05/2023	14:17:57.311	0.00000E+0	0.00000E+0	-1.32599E+2	-1.36172E+2	0.00000E+0	0.00000E+0	1.95200E+1	1.35000E+1	1.95167E+1	1.34996E+1
27	11/05/2023	14:17:58.740	0.00000E+0	0.00000E+0	-1.61438E+2	-1.55943E+2	0.00000E+0	0.00000E+0	1.95200E+1	1.35000E+1	1.95201E+1	1.35002E+1
28	11/05/2023	14:18:00.171	0.00000E+0	0.00000E+0	6.69974E+1	7.84181E+1	0.00000E+0	0.00000E+0	1.95200E+1	1.35000E+1	1.95197E+1	1.35015E+1
29	11/05/2023	14:18:01.592	0.00000E+0	0.00000E+0	1.64117E+2	1.66040E+2	0.00000E+0	0.00000E+0	1.95200E+1	1.35000E+1	1.95206E+1	1.35003E+1
30	11/05/2023	14:18:03.044	0.00000E+0	0.00000E+0	8.22213E+1	7.66655E+1	0.00000E+0	0.00000E+0	1.95200E+1	1.35000E+1	1.95219E+1	1.34987E+1
31	11/05/2023	14:18:04.498	0.00000E+0	0.00000E+0	-1.54756E+2	-1.56329E+2	0.00000E+0	0.00000E+0	1.95200E+1	1.35000E+1	1.95214E+1	1.34995E+1
32	11/05/2023	14:18:05.937	0.00000E+0	0.00000E+0	-1.22531E+2	-1.20789E+2	0.00000E+0	0.00000E+0	1.95200E+1	1.35000E+1	1.95219E+1	1.35005E+1
33	11/05/2023	14:18:07.335	0.00000E+0	0.00000E+0	7.15874E+1	7.70517E+1	0.00000E+0	0.00000E+0	1.95200E+1	1.35000E+1	1.95202E+1	1.35019E+1
34	11/05/2023	14:18:08.753	0.00000E+0	0.00000E+0	1.47475E+2	1.50342E+2	0.00000E+0	0.00000E+0	1.95200E+1	1.35000E+1	1.95219E+1	1.35006E+1
35	11/05/2023	14:18:10.239	0.00000E+0	0.00000E+0	-3.08653E+1	-4.32958E+1	0.00000E+0	0.00000E+0	1.95200E+1	1.35000E+1	1.95167E+1	1.35004E+1
36	11/05/2023	14:18:11.764	0.00000E+0	0.00000E+0	-1.31701E+2	-1.34474E+2	0.00000E+0	0.00000E+0	1.95200E+1	1.35000E+1	1.95223E+1	1.35004E+1
37	11/05/2023	14:18:13.161	0.00000E+0	0.00000E+0	-4.20451E+1	-2.89508E+1	0.00000E+0	0.00000E+0	1.95200E+1	1.35000E+1	1.95187E+1	1.34990E+1
38	11/05/2023	14:18:14.604	0.00000E+0	0.00000E+0	1.36134E+2	1.42399E+2	0.00000E+0	0.00000E+0	1.95200E+1	1.35000E+1	1.95205E+1	1.35005E+1
39	11/05/2023	14:18:16.056	0.00000E+0	0.00000E+0	1.22202E+2	1.30223E+2	0.00000E+0	0.00000E+0	1.95200E+1	1.35000E+1	1.95192E+1	1.34993E+1
40	11/05/2023	14:18:17.495	0.00000E+0	0.00000E+0	-1.12711E+2	-1.20889E+2	0.00000E+0	0.00000E+0	1.95200E+1	1.35000E+1	1.95187E+1	1.34985E+1
41	11/05/2023	14:18:18.904	0.00000E+0	0.00000E+0	-1.47865E+2	-1.45245E+2	0.00000E+0	0.00000E+0	1.95200E+1	1.35000E+1	1.95206E+1	1.34980E+1
42	11/05/2023	14:18:20.308	0.00000E+0	0.00000E+0	3.60526E+1	4.83760E+1	0.00000E+0	0.00000E+0	1.95200E+1	1.35000E+1	1.95210E+1	1.35016E+1
43	11/05/2023	14:18:21.757	0.00000E+0	0.00000E+0	1.50302E+2	1.50221E+2	0.00000E+0	0.00000E+0	1.95200E+1	1.35000E+1	1.95183E+1	1.35004E+1
44	11/05/2023	14:18:23.205	0.00000E+0	0.00000E+0	9.51846E+1	1.02278E+2	0.00000E+0	0.00000E+0	1.95200E+1	1.35000E+1	1.95212E+1	1.34994E+1
45	11/05/2023	14:18:24.617	0.00000E+0	0.00000E+0	-8.25796E+1	-8.77177E+1	0.00000E+0	0.00000E+0	1.95200E+1	1.35000E+1	1.95231E+1	1.34997E+1
46	11/05/2023	14:18:26.039	0.00000E+0	0.00000E+0	-1.65883E+2	-1.70327E+2	0.00000E+0	0.00000E+0	1.95200E+1	1.35000E+1	1.95188E+1	1.34991E+1
47	11/05/2023	14:18:27.491	0.00000E+0	0.00000E+0	-2.73978E+0	8.67507E+0	0.00000E+0	0.00000E+0	1.95200E+1	1.35000E+1	1.95219E+1	1.34990E+1
48	11/05/2023	14:18:28.927	0.00000E+0	0.00000E+0	1.26746E+2	1.29123E+2	0.00000E+0	0.00000E+0	1.95200E+1	1.35000E+1	1.95198E+1	1.35028E+1
49	11/05/2023	14:18:30.340	0.00000E+0	0.00000E+0	1.23100E+2	1.22845E+2	0.00000E+0	0.00000E+0	1.95200E+1	1.35000E+1	1.95186E+1	1.34994E+1
50	11/05/2023	14:18:31.778	0.00000E+0	0.00000E+0	-4.38598E+1	-5.04846E+1	0.00000E+0	0.00000E+0	1.95200E+1	1.35000E+1	1.95160E+1	1.35022E+1
51	11/05/2023	14:18:33.184	0.00000E+0	0.00000E+0	-1.35529E+2	-1.38850E+2	0.00000E+0	0.00000E+0	1.95200E+1	1.35000E+1	1.95192E+1	1.34991E+1
52	11/05/2023	14:18:34.605	0.00000E+0	0.00000E+0	-1.12223E+2	-1.15627E+2	0.00000E+0	0.00000E+0	1.95200E+1	1.35000E+1	1.95221E+1	1.35002E+1
53	11/05/2023	14:18:36.027	0.00000E+0	0.00000E+0	1.12979E+2	1.19438E+2	0.00000E+0	0.00000E+0	1.95200E+1	1.35000E+1	1.95198E+1	1.35011E+1
54	11/05/2023	14:18:37.452	0.00000E+0	0.00000E+0	1.17921E+2	1.20808E+2	0.00000E+0	0.00000E+0	1.95200E+1	1.35000E+1	1.95229E+1	1.35002E+1
55	11/05/2023	14:18:38.922	0.00000E+0	0.00000E+0	7.25439E+1	6.72492E+1	0.00000E+0	0.00000E+0	1.95200E+1	1.35000E+1	1.95182E+1	1.34989E+1
56	11/05/2023	14:18:40.344	0.00000E+0	0.00000E+0	-1.28875E+2	-1.33811E+2	0.00000E+0	0.00000E+0	1.95200E+1	1.35000E+1	1.95196E+1	1.34979E+1
57	11/05/2023	14:18:41.770	0.00000E+0	0.00000E+0	-1.38102E+2	-1.33674E+2	0.00000E+0	0.00000E+0	1.95200E+1	1.35000E+1	1.95169E+1	1.35011E+1
58	11/05/2023	14:18:43.190	0.00000E+0	0.00000E+0	6.52033E+1	7.28574E+1	0.00000E+0	0.00000E+0	1.95200E+1	1.35000E+1	1.95195E+1	1.35026E+1
59	11/05/2023	14:18:44.617	0.00000E+0	0.00000E+0	1.29482E+2	1.30778E+2	0.00000E+0	0.00000E+0	1.95200E+1	1.35000E+1	1.95206E+1	1.34984E+1
60	11/05/2023	14:18:46.022	0.00000E+0	0.00000E+0	7.52314E+1	7.19504E+1	0.00000E+0	0.00000E+0	1.95200E+1	1.35000E+1	1.95189E+1	1.35013E+1
61	11/05/2023	14:18:47.515	0.00000E+0	0.00000E+0	-1.02503E+2	-1.04709E+2	0.00000E+0	0.00000E+0	1.95200E+1	1.35000E+1	1.95186E+1	1.34965E+1
62	11/05/2023	14:18:48.949	0.00000E+0	0.00000E+0	-1.39230E+2	-1.41001E+2	0.00000E+0	0.00000E+0	1.95200E+1	1.35000E+1	1.95188E+1	1.35006E+1
63	11/05/2023	14:18:50.358	0.00000E+0	0.00000E+0	-2.46791E+0	6.31604E+0	0.00000E+0	0.00000E+0	1.95200E+1	1.35000E+1	1.95203E+1	1.35011E+1
64	11/05/2023	14:18:51.799	0.00000E+0	0.00000E+0	1.48673E+2	1.50855E+2	0.00000E+0	0.00000E+0	1.95200E+1	1.35000E+1	1.95218E+1	1.34988E+1
65	11/05/2023	14:18:53.284	0.00000E+0	0.00000E+0	1.21102E+2	1.13548E+2	0.00000E+0	0.00000E+0	1.95200E+1	1.35000E+1	1.95202E+1	1.35012E+1
66	11/05/2023	14:18:54.701	0.00000E+0	0.00000E+0	-1.15052E+2	-1.20577E+2	0.00000E+0	0.00000E+0	1.95200E+1	1.35000E+1	1.95185E+1	1.35005E+1
67	11/05/2023	14:18:56.122	0.00000E+0	0.00000E+0	-1.50528E+2	-1.50115E+2	0.00000E+0	0.00000E+0	1.95200E+1	1.35000E+1	1.95214E+1	1.35006E+1
68	11/05/2023	14:18:57.537	0.00000E+0	0.00000E+0	2.39339E+1	3.10995E+1	0.00000E+0	0.00000E+0	1.95200E+1	1.35000E+1	1.95188E+1	1.35003E+1
69	11/05/2023	14:18:58.970	0.00000E+0	0.00000E+0	1.35005E+2	1.39671E+2	0.00000E+0	0.00000E+0	1.95200E+1	1.35000E+1	1.95203E+1	1.35003E+1
70	11/05/2023	14:19:00.431	0.00000E+0	0.00000E+0	1.14095E+2	1.17199E+2	0.00000E+0	0.00000E+0	1.95200E+1	1.35000E+1	1.95180E+1	1.35015E+1
71	11/05/2023	14:19:01.855	0.00000E+0	0.00000E+0	-9.94706E+1	-1.03559E+2	0.00000E+0	0.00000E+0	1.95200E+1	1.35000E+1	1.95185E+1	1.35019E+1
72	11/05/2023	14:19:03.246	0.00000E+0	0.00000E+0	-1.45824E+2	-1.49354E+2	0.00000E+0	0.00000E+0	1.95200E+1	1.35000E+1	1.95224E+1	1.35027E+1
73	11/05/2023	14:19:04.642	0.00000E+0	0.00000E+0	-3.87771E+1	-2.89209E+1	0.00000E+0	0.00000E+0	1.95200E+1	1.35000E+1	1.95223E+1	1.35024E+1
74	11/05/2023	14:19:06.098	0.00000E+0	0.00000E+0	1.34426E+2	1.38369E+2	0.00000E+0	0.00000E+0	1.95200E+1	1.35000E+1	1.95204E+1	1.35000E+1
75	11/05/2023	14:19:07.509	0.00000E+0	0.00000E+0	1.19095E+2	1.19118E+2	0.00000E+0	0.00000E+0	1.95200E+1	1.35000E+1	1.95213E+1	1.35012E+1
76	11/05/2023	14:19:08.920	0.00000E+0	0.00000E+0	-6.00058E+1	-6.89493E+1	0.00000E+0	0.00000E+0	1.95200E+1	1.35000E+1	1.95232E+1	1.34985E+1
77	11/05/2023	14:19:10.346	0.00000E+0	0.00000E+0	-1.43877E+2	-1.46593E+2	0.00000E+0	0.00000E+0	1.95200E+1	1.35000E+1	1.95198E+1	1.35003E+1
78	11/05/2023	14:19:11.798	0.00000E+0	0.00000E+0	-8.49888E+1	-8.08411E+1	0.00000E+0	0.00000E+0	1.95200E+1	1.35000E+1	1.95224E+1	1.34999E+1
79	11/05/2023	14:19:13.216	0.00000E+0	0.00000E+0	1.04775E+2	1.10431E+2	0.00000E+0	0.00000E+0	1.95200E+1	1.35000E+1	1.95202E+1	1.35007E+1
80	11/05/2023	14:19:14.657	0.00000E+0	0.00000E+0	1.34494E+2	1.33795E+2	0.00000E+0	0.00000E+0	1.95200E+1	1.35000E+1	1.95178E+1	1.35021E+1
81	11/05/2023	14:19:16.076	0.00000E+0	0.00000E+0	6.00971E+1	6.17846E+1	0.00000E+0	0.00000E+0	1.95200E+1	1.35000E+1	1.95191E+1	1.35010E+1
82	11/05/2023	14:19:17.513	0.00000E+0	0.00000E+0	-1.07873E+2	-1.12444E+2	0.00000E+0	0.00000E+0	1.95200E+1	1.35000E+1	1.95234E+1	1.35007E+1
83	11/05/2023	14:19:18.945	0.00000E+0	0.00000E+0	-1.55570E+2	-1.56862E+2	0.00000E+0	0.00000E+0	1.95200E+1	1.35000E+1	1.95209E+1	1.35026E+1
84	11/05/2023	14:19:20.354	0.00000E+0	0.00000E+0	-2.64803E+1	-1.62886E+1	0.00000E+0	0.00000E+0	1.95200E+1	1.35000E+1	1.95202E+1	1.34991E+1
85	11/05/2023	14:19:21.765	0.00000E+0	0.00000E+0	1.04920E+2	1.06957E+2	0.00000E+0	0.00000E+0	1.95200E+1	1.35000E+1	1.95207E+1	1.35012E+1
86	11/05/2023	14:19:23.200	0.00000E+0	0.00000E+0	4.15519E+1	4.18373E+1	0.00000E+0	0.00000E+0	1.95200E+1	1.35000E+1	1.95207E+1	1.34996E+1
87	11/05/2023	14:19:24.611	0.00000E+0	0.00000E+0	3.38388E+1	3.50632E+1	0.00000E+0	0.00000E+0	1.95200E+1	1.35000E+1	1.95208E+1	1.34992E+1
88	11/05/2023	14:19:26.023	0.00000E+0	0.00000E+0	3.50531E+1	3.66190E+1	0.00000E+0	0.00000E+0	1.95200E+1	1.35000E+1	1.95176E+1	1.35018E+1
89	11/05/2023	14:19:27.437	0.00000E+0	0.00000E+0	3.94210E+1	3.87700E+1	0.00000E+0	0.00000E+0	1.95200E+1	1.35000E+1	1.95205E+1	1.34996E+1
90	11/05/2023	14:19:28.863	0.00000E+0	0.00000E+0	3.04839E+1	3.08340E+1	0.00000E+0	0.00000E+0	1.95200E+1	1.35000E+1	1.95225E+1	1.35008E+1
91	11/05/2023	14:19:30.289	0.00000E+0	0.00000E+0	-2.92192E+1	-3.09145E+1	0.00000E+0	0.00000E+0	1.95200E+1	1.35000E+1	1.95190E+1	1.35018E+1
92	11/05/2023	14:19:31.718	0.00000E+0	0.00000E+0	-5.20014E+1	-5.08470E+1	0.00000E+0	0.00000E+0	1.95200E+1	1.35000E+1	1.95208E+1	1.34993E+1
93	11/05/2023	14:19:33.142	0.00000E+0	0.00000E+0	-5.92992E+1	-5.94819E+1	0.00000E+0	0.00000E+0	1.95200E+1	1.35000E+1	1.95210E+1	1.34996E+1
94	11/05/2023	14:19:34.611	0.00000E+0	0.00000E+0	-4.54665E+1	-4.61394E+1	0.00000E+0	0.00000E+0	1.95200E+1	1.35000E+1	1.95228E+1	1.34984E+1
95	11/05/2023	14:19:36.043	0.00000E+0	0.00000E+0	-3.13802E+1	-3.11464E+1	0.00000E+0	0.00000E+0	1.95200E+1	1.35000E+1	1.95201E+1	1.34993E+1
96	11/05/2023	14:19:37.467	0.00000E+0	0.00000E+0	-1.83858E+1	-1.82108E+1	0.00000E+0	0.00000E+0	1.95200E+1	1.35000E+1	1.95218E+1	1.34981E+1
97	11/05/2023	14:19:38.873	0.00000E+0	0.00000E+0	-3.76821E+1	-3.72310E+1	0.00000E+0	0.00000E+0	1.95200E+1	1.35000E+1	1.95193E+1	1.34988E+1
98	11/05/2023	14:19:40.301	0.00000E+0	0.00000E+0	-3.25549E+1	-3.54804E+1	0.00000E+0	0.00000E+0	1.95200E+1	1.35000E+1	1.95199E+1	1.34991E+1
99	11/05/2023	14:19:41.741	0.00000E+0	0.00000E+0	7.69543E+1	8.12900E+1	0.00000E+0	0.00000E+0	1.95200E+1	1.35000E+1	1.95181E+1	1.34982E+1
100	11/05/2023	14:19:43.165	0.00000E+0	0.00000E+0	1.47117E+2	1.47224E+2	0.00000E+0	0.00000E+0	1.95200E+1	1.35000E+1	1.95193E+1	1.35019E+1
101	11/05/2023	14:19:44.617	0.00000E+0	0.00000E+0	8.44897E+1	8.22115E+1	0.00000E+0	0.00000E+0	1.95200E+1	1.35000E+1	1.95189E+1	1.35017E+1
102	11/05/2023	14:19:46.066	0.00000E+0	0.00000E+0	-1.27328E+2	-1.33628E+2	0.00000E+0	0.00000E+0	1.95200E+1	1.35000E+1	1.95184E+1	1.34983E+1
103	11/05/2023	14:19:47.520	0.00000E+0	0.00000E+0	-1.39287E+2	-1.37514E+2	0.00000E+0	0.00000E+0	1.95200E+1	1.35000E+1	1.95209E+1	1.35004E+1
104	11/05/2023	14:19:48.972	0.00000E+0	0.00000E+0	7.07977E+1	8.61894E+1	0.00000E+0	0.00000E+0	1.95200E+1	1.35000E+1	1.95209E+1	1.34988E+1
105	11/05/2023	14:19:50.406	0.00000E+0	0.00000E+0	1.64040E+2	1.69067E+2	0.00000E+0	0.00000E+0	1.95200E+1	1.35000E+1	1.95201E+1	1.34998E+1
106	11/05/2023	14:19:51.849	0.00000E+0	0.00000E+0	-1.88901E+1	-3.13933E+1	0.00000E+0	0.00000E+0	1.95200E+1	1.35000E+1	1.95190E+1	1.35024E+1
107	11/05/2023	14:19:53.324	0.00000E+0	0.00000E+0	-1.41644E+2	-1.44441E+2	0.00000E+0	0.00000E+0	1.95200E+1	1.35000E+1	1.95201E+1	1.35031E+1
108	11/05/2023	14:19:54.767	0.00000E+0	0.00000E+0	5.92719E+1	7.29126E+1	0.00000E+0	0.00000E+0	1.95200E+1	1.35000E+1	1.95211E+1	1.35012E+1
109	11/05/2023	14:19:56.195	0.00000E+0	0.00000E+0	1.24574E+2	1.27035E+2	0.00000E+0	0.00000E+0	1.95200E+1	1.35000E+1	1.95204E+1	1.35009E+1
110	11/05/2023	14:19:57.623	0.00000E+0	0.00000E+0	7.00703E+1	6.45988E+1	0.00000E+0	0.00000E+0	1.95200E+1	1.35000E+1	1.95219E+1	1.35017E+1
111	11/05/2023	14:19:59.044	0.00000E+0	0.00000E+0	-1.21523E+2	-1.26344E+2	0.00000E+0	0.00000E+0	1.95200E+1	1.35000E+1	1.95216E+1	1.34982E+1
112	11/05/2023	14:20:00.484	0.00000E+0	0.00000E+0	-1.48782E+2	-1.52359E+2	0.00000E+0	0.00000E+0	1.95200E+1	1.35000E+1	1.95192E+1	1.35003E+1
113	11/05/2023	14:20:01.891	0.00000E+0	0.00000E+0	6.89506E+1	8.08528E+1	0.00000E+0	0.00000E+0	1.95200E+1	1.35000E+1	1.95214E+1	1.35018E+1
114	11/05/2023	14:20:03.325	0.00000E+0	0.00000E+0	1.27648E+2	1.30209E+2	0.00000E+0	0.00000E+0	1.95200E+1	1.35000E+1	1.95192E+1	1.35020E+1
115	11/05/2023	14:20:04.743	0.00000E+0	0.00000E+0	8.03807E+1	7.98846E+1	0.00000E+0	0.00000E+0	1.95200E+1	1.35000E+1	1.95194E+1	1.35003E+1
116	11/05/2023	14:20:06.205	0.00000E+0	0.00000E+0	-1.23631E+2	-1.27153E+2	0.00000E+0	0.00000E+0	1.95200E+1	1.35000E+1	1.95191E+1	1.35005E+1
117	11/05/2023	14:20:07.626	0.00000E+0	0.00000E+0	-1.40365E+2	-1.40318E+2	0.00000E+0	0.00000E+0	1.95200E+1	1.35000E+1	1.95230E+1	1.34999E+1
118	11/05/2023	14:20:09.077	0.00000E+0	0.00000E+0	1.10111E+2	1.12171E+2	0.00000E+0	0.00000E+0	1.95200E+1	1.35000E+1	1.95204E+1	1.34993E+1
119	11/05/2023	14:20:10.506	0.00000E+0	0.00000E+0	1.41480E+2	1.43807E+2	0.00000E+0	0.00000E+0	1.95200E+1	1.35000E+1	1.95199E+1	1.34988E+1
120	11/05/2023	14:20:11.918	0.00000E+0	0.00000E+0	3.17230E+1	2.88392E+1	0.00000E+0	0.00000E+0	1.95200E+1	1.35000E+1	1.95196E+1	1.34975E+1
121	11/05/2023	14:20:13.352	0.00000E+0	0.00000E+0	-7.12056E+1	-8.12074E+1	0.00000E+0	0.00000E+0	1.95200E+1	1.35000E+1	1.95216E+1	1.35012E+1
122	11/05/2023	14:20:14.757	0.00000E+0	0.00000E+0	-1.31102E+2	-1.34037E+2	0.00000E+0	0.00000E+0	1.95200E+1	1.35000E+1	1.95205E+1	1.35004E+1
123	11/05/2023	14:20:16.175	0.00000E+0	0.00000E+0	-1.00139E+2	-8.51299E+1	0.00000E+0	0.00000E+0	1.95200E+1	1.35000E+1	1.95205E+1	1.35011E+1
124	11/05/2023	14:20:17.586	0.00000E+0	0.00000E+0	1.77474E+2	1.82413E+2	0.00000E+0	0.00000E+0	1.95200E+1	1.35000E+1	1.95185E+1	1.34999E+1
125	11/05/2023	14:20:19.008	0.00000E+0	0.00000E+0	1.06329E+2	1.01250E+2	0.00000E+0	0.00000E+0	1.95200E+1	1.35000E+1	1.95184E+1	1.35001E+1
126	11/05/2023	14:20:20.413	0.00000E+0	0.00000E+0	-1.69370E+2	-1.77633E+2	0.00000E+0	0.00000E+0	1.95200E+1	1.35000E+1	1.95199E+1	1.35004E+1
127	11/05/2023	14:20:21.824	0.00000E+0	0.00000E+0	-9.73998E+1	-8.55494E+1	0.00000E+0	0.00000E+0	1.95200E+1	1.35000E+1	1.95207E+1	1.35011E+1
128	11/05/2023	14:20:23.281	0.00000E+0	0.00000E+0	1.68883E+2	1.73470E+2	0.00000E+0	0.00000E+0	1.95200E+1	1.35000E+1	1.95196E+1	1.35002E+1
129	11/05/2023	14:20:24.705	0.00000E+0	0.00000E+0	1.10535E+2	1.01382E+2	0.00000E+0	0.00000E+0	1.95200E+1	1.35000E+1	1.95190E+1	1.35011E+1
130	11/05/2023	14:20:26.132	0.00000E+0	0.00000E+0	-1.51897E+2	-1.55815E+2	0.00000E+0	0.00000E+0	1.95200E+1	1.35000E+1	1.95209E+1	1.34990E+1
131	11/05/2023	14:20:27.545	0.00000E+0	0.00000E+0	-1.49388E+2	-1.46010E+2	0.00000E+0	0.00000E+0	1.95200E+1	1.35000E+1	1.95195E+1	1.35012E+1
132	11/05/2023	14:20:28.961	0.00000E+0	0.00000E+0	1.35555E+2	1.39717E+2	0.00000E+0	0.00000E+0	1.95200E+1	1.35000E+1	1.95213E+1	1.34997E+1
133	11/05/2023	14:20:30.421	0.00000E+0	0.00000E+0	1.69546E+2	1.72799E+2	0.00000E+0	0.00000E+0	1.95200E+1	1.35000E+1	1.95205E+1	1.34983E+1
134	11/05/2023	14:20:31.862	0.00000E+0	0.00000E+0	-1.57204E+2	-1.63088E+2	0.00000E+0	0.00000E+0	1.95200E+1	1.35000E+1	1.95220E+1	1.35009E+1
135	11/05/2023	14:20:33.274	0.00000E+0	0.00000E+0	-1.56067E+2	-1.50383E+2	0.00000E+0	0.00000E+0	1.95200E+1	1.35000E+1	1.95198E+1	1.35020E+1
136	11/05/2023	14:20:34.687	0.00000E+0	0.00000E+0	1.38729E+2	1.45886E+2	0.00000E+0	0.00000E+0	1.95200E+1	1.35000E+1	1.95204E+1	1.35016E+1
137	11/05/2023	14:20:36.217	0.00000E+0	0.00000E+0	1.36842E+2	1.33091E+2	0.00000E+0	0.00000E+0	1.95200E+1	1.35000E+1	1.95201E+1	1.35004E+1
138	11/05/2023	14:20:37.649	0.00000E+0	0.00000E+0	-1.11912E+2	-1.21686E+2	0.00000E+0	0.00000E+0	1.95200E+1	1.35000E+1	1.95207E+1	1.34983E+1
139	11/05/2023	14:20:39.062	0.00000E+0	0.00000E+0	-1.95857E+2	-1.96594E+2	0.00000E+0	0.00000E+0	1.95200E+1	1.35000E+1	1.95187E+1	1.34995E+1
140	11/05/2023	14:20:40.484	0.00000E+0	0.00000E+0	9.79110E+1	1.06267E+2	0.00000E+0	0.00000E+0	1.95200E+1	1.35000E+1	1.95205E+1	1.34993E+1
141	11/05/2023	14:20:41.956	0.00000E+0	0.00000E+0	1.74736E+2	1.77200E+2	0.00000E+0	0.00000E+0	1.95200E+1	1.35000E+1	1.95217E+1	1.34997E+1
142	11/05/2023	14:20:43.404	0.00000E+0	0.00000E+0	-4.63236E+1	-5.87557E+1	0.00000E+0	0.00000E+0	1.95200E+1	1.35000E+1	1.95212E+1	1.35015E+1
143	11/05/2023	14:20:44.827	0.00000E+0	0.00000E+0	-1.86955E+2	-1.88162E+2	0.00000E+0	0.00000E+0	1.95200E+1	1.35000E+1	1.95208E+1	1.34987E+1
144	11/05/2023	14:20:46.244	0.00000E+0	0.00000E+0	7.47263E+0	1.91768E+1	0.00000E+0	0.00000E+0	1.95200E+1	1.35000E+1	1.95187E+1	1.34994E+1
145	11/05/2023	14:20:47.680	0.00000E+0	0.00000E+0	1.80847E+2	1.85900E+2	0.00000E+0	0.00000E+0	1.95200E+1	1.35000E+1	1.95213E+1	1.35006E+1
146	11/05/2023	14:20:49.083	0.00000E+0	0.00000E+0	7.29111E+1	6.21284E+1	0.00000E+0	0.00000E+0	1.95200E+1	1.35000E+1	1.95207E+1	1.34999E+1
147	11/05/2023	14:20:50.524	0.00000E+0	0.00000E+0	-1.87536E+2	-1.90240E+2	0.00000E+0	0.00000E+0	1.95200E+1	1.35000E+1	1.95207E+1	1.35000E+1
148	11/05/2023	14:20:51.947	0.00000E+0	0.00000E+0	-7.12884E+1	-6.11056E+1	0.00000E+0	0.00000E+0	1.95200E+1	1.35000E+1	1.95196E+1	1.34985E+1
149	11/05/2023	14:20:53.444	0.00000E+0	0.00000E+0	1.77241E+2	1.83155E+2	0.00000E+0	0.00000E+0	1.95200E+1	1.35000E+1	1.95194E+1	1.34989E+1
150	11/05/2023	14:20:54.866	0.00000E+0	0.00000E+0	9.19751E+1	8.50534E+1	0.00000E+0	0.00000E+0	1.95200E+1	1.35000E+1	1.95204E+1	1.34979E+1
151	11/05/2023	14:20:56.290	0.00000E+0	0.00000E+0	-1.79110E+2	-1.82971E+2	0.00000E+0	0.00000E+0	1.95200E+1	1.35000E+1	1.95182E+1	1.35007E+1
152	11/05/2023	14:20:57.704	0.00000E+0	0.00000E+0	-8.89651E+1	-7.80628E+1	0.00000E+0	0.00000E+0	1.95200E+1	1.35000E+1	1.95182E+1	1.34991E+1
153	11/05/2023	14:20:59.129	0.00000E+0	0.00000E+0	1.71328E+2	1.77414E+2	0.00000E+0	0.00000E+0	1.95200E+1	1.35000E+1	1.95221E+1	1.34991E+1
154	11/05/2023	14:21:00.554	0.00000E+0	0.00000E+0	1.15268E+2	1.11062E+2	0.00000E+0	0.00000E+0	1.95200E+1	1.35000E+1	1.95206E+1	1.34984E+1
155	11/05/2023	14:21:02.001	0.00000E+0	0.00000E+0	-1.68941E+2	-1.76010E+2	0.00000E+0	0.00000E+0	1.95200E+1	1.35000E+1	1.95210E+1	1.35006E+1
156	11/05/2023	14:21:03.433	0.00000E+0	0.00000E+0	-1.33683E+2	-1.34890E+2	0.00000E+0	0.00000E+0	1.95200E+1	1.35000E+1	1.95213E+1	1.35005E+1
157	11/05/2023	14:21:04.882	0.00000E+0	0.00000E+0	1.47830E+2	1.54422E+2	0.00000E+0	0.00000E+0	1.95200E+1	1.35000E+1	1.95195E+1	1.35004E+1
158	11/05/2023	14:21:06.290	0.00000E+0	0.00000E+0	1.32476E+2	1.30608E+2	0.00000E+0	0.00000E+0	1.95200E+1	1.35000E+1	1.95184E+1	1.35023E+1
159	11/05/2023	14:21:07.709	0.00000E+0	0.00000E+0	-8.70806E+1	-9.49209E+1	0.00000E+0	0.00000E+0	1.95200E+1	1.35000E+1	1.95195E+1	1.34993E+1
160	11/05/2023	14:21:09.131	0.00000E+0	0.00000E+0	-1.79211E+2	-1.79421E+2	0.00000E+0	0.00000E+0	1.95200E+1	1.35000E+1	1.95203E+1	1.35007E+1
161	11/05/2023	14:21:10.546	0.00000E+0	0.00000E+0	5.03310E+1	5.80231E+1	0.00000E+0	0.00000E+0	1.95200E+1	1.35000E+1	1.95196E+1	1.35020E+1
162	11/05/2023	14:21:11.957	0.00000E+0	0.00000E+0	1.88786E+2	1.91296E+2	0.00000E+0	0.00000E+0	1.95200E+1	1.35000E+1	1.95200E+1	1.35019E+1
163	11/05/2023	14:21:13.405	0.00000E+0	0.00000E+0	-3.24080E-1	-1.36584E+1	0.00000E+0	0.00000E+0	1.95200E+1	1.35000E+1	1.95184E+1	1.35003E+1
164	11/05/2023	14:21:14.813	0.00000E+0	0.00000E+0	-1.86603E+2	-1.93181E+2	0.00000E+0	0.00000E+0	1.95200E+1	1.35000E+1	1.95209E+1	1.34996E+1
165	11/05/2023	14:21:16.218	0.00000E+0	0.00000E+0	-4.17292E+1	-2.56835E+1	0.00000E+0	0.00000E+0	1.95200E+1	1.35000E+1	1.95195E+1	1.35011E+1
166	11/05/2023	14:21:17.658	0.00000E+0	0.00000E+0	1.93029E+2	1.97913E+2	0.00000E+0	0.00000E+0	1.95200E+1	1.35000E+1	1.95201E+1	1.35002E+1
167	11/05/2023	14:21:19.088	0.00000E+0	0.00000E+0	3.06506E+1	1.54679E+1	0.00000E+0	0.00000E+0	1.95200E+1	1.35000E+1	1.95204E+1	1.34990E+1
168	11/05/2023	14:21:20.515	0.00000E+0	0.00000E+0	-1.71163E+2	-1.72023E+2	0.00000E+0	0.00000E+0	1.95200E+1	1.35000E+1	1.95218E+1	1.35012E+1
169	11/05/2023	14:21:21.934	0.00000E+0	0.00000E+0	-8.39666E+1	-8.15663E+1	0.00000E+0	0.00000E+0	1.95200E+1	1.35000E+1	1.95202E+1	1.34989E+1
170	11/05/2023	14:21:23.357	0.00000E+0	0.00000E+0	1.64769E+2	1.68354E+2	0.00000E+0	0.00000E+0	1.95200E+1	1.35000E+1	1.95218E+1	1.35002E+1
171	11/05/2023	14:21:24.822	0.00000E+0	0.00000E+0	1.04719E+2	1.00573E+2	0.00000E+0	0.00000E+0	1.95200E+1	1.35000E+1	1.95209E+1	1.35026E+1
172	11/05/2023	14:21:26.265	0.00000E+0	0.00000E+0	-1.06743E+2	-1.16676E+2	0.00000E+0	0.00000E+0	1.95200E+1	1.35000E+1	1.95194E+1	1.34986E+1
173	11/05/2023	14:21:27.702	0.00000E+0	0.00000E+0	-1.48362E+2	-1.47787E+2	0.00000E+0	0.00000E+0	1.95200E+1	1.35000E+1	1.95211E+1	1.35004E+1
174	11/05/2023	14:21:29.126	0.00000E+0	0.00000E+0	4.40421E+1	4.90136E+1	0.00000E+0	0.00000E+0	1.95200E+1	1.35000E+1	1.95192E+1	1.35004E+1
175	11/05/2023	14:21:30.548	0.00000E+0	0.00000E+0	1.29374E+2	1.31483E+2	0.00000E+0	0.00000E+0	1.95200E+1	1.35000E+1	1.95207E+1	1.34998E+1
176	11/05/2023	14:21:32.000	0.00000E+0	0.00000E+0	7.90409E+1	7.50808E+1	0.00000E+0	0.00000E+0	1.95200E+1	1.35000E+1	1.95194E+1	1.35006E+1
177	11/05/2023	14:21:33.424	0.00000E+0	0.00000E+0	-4.40807E+1	-4.76562E+1	0.00000E+0	0.00000E+0	1.95200E+1	1.35000E+1	1.95198E+1	1.35000E+1
178	11/05/2023	14:21:34.870	0.00000E+0	0.00000E+0	-8.86665E+1	-9.02165E+1	0.00000E+0	0.00000E+0	1.95200E+1	1.35000E+1	1.95213E+1	1.35003E+1
179	11/05/2023	14:21:36.293	0.00000E+0	0.00000E+0	-8.39483E+1	-8.36931E+1	0.00000E+0	0.00000E+0	1.95200E+1	1.35000E+1	1.95201E+1	1.35003E+1
180	11/05/2023	14:21:37.711	0.00000E+0	0.00000E+0	-6.76440E+1	-6.65479E+1	0.00000E+0	0.00000E+0	1.95200E+1	1.35000E+1	1.95200E+1	1.35011E+1
181	11/05/2023	14:21:39.125	0.00000E+0	0.00000E+0	1.76337E+1	2.80275E+1	0.00000E+0	0.00000E+0	1.95200E+1	1.35000E+1	1.95220E+1	1.35000E+1
182	11/05/2023	14:21:40.539	0.00000E+0	0.00000E+0	6.02712E+1	6.00865E+1	0.00000E+0	0.00000E+0	1.95200E+1	1.35000E+1	1.95198E+1	1.35002E+1
183	11/05/2023	14:21:41.965	0.00000E+0	0.00000E+0	5.71310E+1	5.97957E+1	0.00000E+0	0.00000E+0	1.95200E+1	1.35000E+1	1.95225E+1	1.34994E+1
184	11/05/2023	14:21:43.409	0.00000E+0	0.00000E+0	4.23638E+1	4.28494E+1	0.00000E+0	0.00000E+0	1.95200E+1	1.35000E+1	1.95174E+1	1.35012E+1
185	11/05/2023	14:21:44.825	0.00000E+0	0.00000E+0	-4.40256E+1	-4.62142E+1	0.00000E+0	0.00000E+0	1.95200E+1	1.35000E+1	1.95232E+1	1.34999E+1
186	11/05/2023	14:21:46.228	0.00000E+0	0.00000E+0	-5.87271E+1	-5.86247E+1	0.00000E+0	0.00000E+0	1.95200E+1	1.35000E+1	1.95193E+1	1.34999E+1
187	11/05/2023	14:21:47.648	0.00000E+0	0.00000E+0	-2.56218E+1	-2.50327E+1	0.00000E+0	0.00000E+0	1.95200E+1	1.35000E+1	1.95201E+1	1.35037E+1
188	11/05/2023	14:21:49.082	0.00000E+0	0.00000E+0	9.63764E+0	1.44320E+1	0.00000E+0	0.00000E+0	1.95200E+1	1.35000E+1	1.95184E+1	1.35002E+1
189	11/05/2023	14:21:50.499	0.00000E+0	0.00000E+0	3.32196E+1	3.20143E+1	0.00000E+0	0.00000E+0	1.95200E+1	1.35000E+1	1.95193E+1	1.35002E+1
190	11/05/2023	14:21:51.922	0.00000E+0	0.00000E+0	2.92856E+1	2.85413E+1	0.00000E+0	0.00000E+0	1.95200E+1	1.35000E+1	1.95203E+1	1.35008E+1
191	11/05/2023	14:21:53.381	0.00000E+0	0.00000E+0	3.80130E+1	4.09287E+1	0.00000E+0	0.00000E+0	1.95200E+1	1.35000E+1	1.95194E+1	1.35009E+1
192	11/05/2023	14:21:54.974	0.00000E+0	0.00000E+0	3.45128E+1	3.70222E+1	0.00000E+0	0.00000E+0	1.95200E+1	1.35000E+1	1.95193E+1	1.34995E+1
193	11/05/2023	14:21:56.406	0.00000E+0	0.00000E+0	3.82480E+1	3.65944E+1	0.00000E+0	0.00000E+0	1.95200E+1	1.35000E+1	1.95210E+1	1.34982E+1
194	11/05/2023	14:21:57.847	0.00000E+0	0.00000E+0	-3.03060E+1	-3.20537E+1	0.00000E+0	0.00000E+0	1.95200E+1	1.35000E+1	1.95201E+1	1.35008E+1
195	11/05/2023	14:21:59.278	0.00000E+0	0.00000E+0	-4.13830E+1	-4.11734E+1	0.00000E+0	0.00000E+0	1.95200E+1	1.35000E+1	1.95199E+1	1.35004E+1
196	11/05/2023	14:22:00.708	0.00000E+0	0.00000E+0	-1.64365E+1	-1.60298E+1	0.00000E+0	0.00000E+0	1.95200E+1	1.35000E+1	1.95205E+1	1.34992E+1
197	11/05/2023	14:22:02.123	0.00000E+0	0.00000E+0	-3.09544E+1	-3.07794E+1	0.00000E+0	0.00000E+0	1.95200E+1	1.35000E+1	1.95186E+1	1.35008E+1
198	11/05/2023	14:22:03.574	0.00000E+0	0.00000E+0	-2.96434E+1	-3.08604E+1	0.00000E+0	0.00000E+0	1.95200E+1	1.35000E+1	1.95208E+1	1.35004E+1
199	11/05/2023	14:22:04.988	0.00000E+0	0.00000E+0	-1.12516E+1	-8.71391E+0	0.00000E+0	0.00000E+0	1.95200E+1	1.35000E+1	1.95193E+1	1.34995E+1
200	11/05/2023	14:22:06.409	0.00000E+0	0.00000E+0	4.46405E+1	4.82581E+1	0.00000E+0	0.00000E+0	1.95200E+1	1.35000E+1	1.95208E+1	1.34997E+1
201	11/05/2023	14:22:07.841	0.00000E+0	0.00000E+0	2.64759E+1	2.54812E+1	0.00000E+0	0.00000E+0	1.95200E+1	1.35000E+1	1.95218E+1	1.34990E+1
202	11/05/2023	14:22:09.268	0.00000E+0	0.00000E+0	5.00256E+1	5.01242E+1	0.00000E+0	0.00000E+0	1.95200E+1	1.35000E+1	1.95201E+1	1.35013E+1
203	11/05/2023	14:22:10.683	0.00000E+0	0.00000E+0	3.85971E+1	4.10169E+1	0.00000E+0	0.00000E+0	1.95200E+1	1.35000E+1	1.95193E+1	1.35017E+1
204	11/05/2023	14:22:12.129	0.00000E+0	0.00000E+0	4.74649E+1	4.85292E+1	0.00000E+0	0.00000E+0	1.95200E+1	1.35000E+1	1.95232E+1	1.34981E+1
205	11/05/2023	14:22:13.578	0.00000E+0	0.00000E+0	1.93207E+1	2.01706E+1	0.00000E+0	0.00000E+0	1.95200E+1	1.35000E+1	1.95230E+1	1.34999E+1
206	11/05/2023	14:22:15.010	0.00000E+0	0.00000E+0	-2.82717E+1	-2.95073E+1	0.00000E+0	0.00000E+0	1.95200E+1	1.35000E+1	1.95194E+1	1.34984E+1
207	11/05/2023	14:22:16.433	0.00000E+0	0.00000E+0	-3.98582E+1	-3.98292E+1	0.00000E+0	0.00000E+0	1.95200E+1	1.35000E+1	1.95193E+1	1.35002E+1
208	11/05/2023	14:22:17.849	0.00000E+0	0.00000E+0	-3.29691E+1	-3.47002E+1	0.00000E+0	0.00000E+0	1.95200E+1	1.35000E+1	1.95193E+1	1.34996E+1
209	11/05/2023	14:22:19.274	0.00000E+0	0.00000E+0	-2.66725E+1	-2.83486E+1	0.00000E+0	0.00000E+0	1.95200E+1	1.35000E+1	1.95201E+1	1.34986E+1
210	11/05/2023	14:22:20.782	0.00000E+0	0.00000E+0	-2.74971E+1	-2.79293E+1	0.00000E+0	0.00000E+0	1.95200E+1	1.35000E+1	1.95193E+1	1.35008E+1
211	11/05/2023	14:22:22.230	0.00000E+0	0.00000E+0	-1.18064E+1	-1.22526E+1	0.00000E+0	0.00000E+0	1.95200E+1	1.35000E+1	1.95182E+1	1.34997E+1
212	11/05/2023	14:22:23.645	0.00000E+0	0.00000E+0	-2.96640E+1	-2.97855E+1	0.00000E+0	0.00000E+0	1.95200E+1	1.35000E+1	1.95216E+1	1.35006E+1
213	11/05/2023	14:22:25.061	0.00000E+0	0.00000E+0	-1.64829E+1	-1.85994E+1	0.00000E+0	0.00000E+0	1.95200E+1	1.35000E+1	1.95223E+1	1.35004E+1
214	11/05/2023	14:22:26.501	0.00000E+0	0.00000E+0	-7.51390E+0	-7.06571E+0	0.00000E+0	0.00000E+0	1.95200E+1	1.35000E+1	1.95195E+1	1.35003E+1
215	11/05/2023	14:22:27.920	0.00000E+0	0.00000E+0	-2.41995E+1	-2.35284E+1	0.00000E+0	0.00000E+0	1.95200E+1	1.35000E+1	1.95180E+1	1.35014E+1
216	11/05/2023	14:22:29.334	0.00000E+0	0.00000E+0	2.25507E+1	2.23369E+1	0.00000E+0	0.00000E+0	1.95200E+1	1.35000E+1	1.95197E+1	1.34992E+1
217	11/05/2023	14:22:30.752	0.00000E+0	0.00000E+0	3.26479E+1	3.33855E+1	0.00000E+0	0.00000E+0	1.95200E+1	1.35000E+1	1.95196E+1	1.34983E+1
218	11/05/2023	14:22:32.205	0.00000E+0	0.00000E+0	1.79590E+1	1.73110E+1	0.00000E+0	0.00000E+0	1.95200E+1	1.35000E+1	1.95169E+1	1.34963E+1
219	11/05/2023	14:22:33.627	0.00000E+0	0.00000E+0	2.42844E+1	2.55383E+1	0.00000E+0	0.00000E+0	1.95200E+1	1.35000E+1	1.95181E+1	1.35026E+1
220	11/05/2023	14:22:35.067	0.00000E+0	0.00000E+0	1.74392E+1	1.94404E+1	0.00000E+0	0.00000E+0	1.95200E+1	1.35000E+1	1.95193E+1	1.34996E+1
221	11/05/2023	14:22:36.479	0.00000E+0	0.00000E+0	2.73202E+1	2.77241E+1	0.00000E+0	0.00000E+0	1.95200E+1	1.35000E+1	1.95196E+1	1.34990E+1
222	11/05/2023	14:22:37.913	0.00000E+0	0.00000E+0	1.70086E+1	1.81930E+1	0.00000E+0	0.00000E+0	1.95200E+1	1.35000E+1	1.95190E+1	1.34995E+1
223	11/05/2023	14:22:39.338	0.00000E+0	0.00000E+0	2.56230E+1	2.40487E+1	0.00000E+0	0.00000E+0	1.95200E+1	1.35000E+1	1.95205E+1	1.34977E+1
224	11/05/2023	14:22:40.758	0.00000E+0	0.00000E+0	2.77686E+1	2.90551E+1	0.00000E+0	0.00000E+0	1.95200E+1	1.35000E+1	1.95197E+1	1.34999E+1
225	11/05/2023	14:22:42.181	0.00000E+0	0.00000E+0	4.00174E+1	4.28423E+1	0.00000E+0	0.00000E+0	1.95200E+1	1.35000E+1	1.95183E+1	1.35005E+1
226	11/05/2023	14:22:43.638	0.00000E+0	0.00000E+0	1.67556E+1	1.83131E+1	0.00000E+0	0.00000E+0	1.95200E+1	1.35000E+1	1.95210E+1	1.34999E+1
227	11/05/2023	14:22:45.037	0.00000E+0	0.00000E+0	-6.56701E+1	-6.47848E+1	0.00000E+0	0.00000E+0	1.95200E+1	1.35000E+1	1.95197E+1	1.35002E+1
228	11/05/2023	14:22:46.463	0.00000E+0	0.00000E+0	-7.53511E+1	-7.52218E+1	0.00000E+0	0.00000E+0	1.95200E+1	1.35000E+1	1.95177E+1	1.34994E+1
229	11/05/2023	14:22:47.888	0.00000E+0	0.00000E+0	-7.19939E+1	-7.10909E+1	0.00000E+0	0.00000E+0	1.95200E+1	1.35000E+1	1.95204E+1	1.34994E+1
230	11/05/2023	14:22:49.383	0.00000E+0	0.00000E+0	-4.58164E+1	-4.54346E+1	0.00000E+0	0.00000E+0	1.95200E+1	1.35000E+1	1.95191E+1	1.34987E+1
231	11/05/2023	14:22:50.782	0.00000E+0	0.00000E+0	-7.09068E+1	-7.10830E+1	0.00000E+0	0.00000E+0	1.95200E+1	1.35000E+1	1.95190E+1	1.34997E+1
232	11/05/2023	14:22:52.198	0.00000E+0	0.00000E+0	-6.19893E+1	-5.92656E+1	0.00000E+0	0.00000E+0	1.95200E+1	1.35000E+1	1.95191E+1	1.35013E+1
233	11/05/2023	14:22:53.638	0.00000E+0	0.00000E+0	5.91176E+1	6.34499E+1	0.00000E+0	0.00000E+0	1.95200E+1	1.35000E+1	1.95190E+1	1.34998E+1
234	11/05/2023	14:22:55.068	0.00000E+0	0.00000E+0	5.10002E+1	4.76465E+1	0.00000E+0	0.00000E+0	1.95200E+1	1.35000E+1	1.95217E+1	1.34998E+1
235	11/05/2023	14:22:56.496	0.00000E+0	0.00000E+0	7.72875E+1	8.14780E+1	0.00000E+0	0.00000E+0	1.95200E+1	1.35000E+1	1.95226E+1	1.34990E+1
236	11/05/2023	14:22:57.926	0.00000E+0	0.00000E+0	2.77726E+1	3.05014E+1	0.00000E+0	0.00000E+0	1.95200E+1	1.35000E+1	1.95188E+1	1.35009E+1
237	11/05/2023	14:22:59.362	0.00000E+0	0.00000E+0	6.47565E+1	5.92160E+1	0.00000E+0	0.00000E+0	1.95200E+1	1.35000E+1	1.95201E+1	1.34987E+1
238	11/05/2023	14:23:00.781	0.00000E+0	0.00000E+0	-5.67744E+1	-5.97720E+1	0.00000E+0	0.00000E+0	1.95200E+1	1.35000E+1	1.95204E+1	1.34994E+1
239	11/05/2023	14:23:02.239	0.00000E+0	0.00000E+0	-1.33048E+2	-1.38090E+2	0.00000E+0	0.00000E+0	1.95200E+1	1.35000E+1	1.95211E+1	1.35006E+1
240	11/05/2023	14:23:03.660	0.00000E+0	0.00000E+0	-1.07520E+2	-1.02507E+2	0.00000E+0	0.00000E+0	1.95200E+1	1.35000E+1	1.95207E+1	1.35007E+1
241	11/05/2023	14:23:05.104	0.00000E+0	0.00000E+0	7.70473E+1	8.05921E+1	0.00000E+0	0.00000E+0	1.95200E+1	1.35000E+1	1.95190E+1	1.34985E+1
242	11/05/2023	14:23:06.525	0.00000E+0	0.00000E+0	1.00225E+2	1.01987E+2	0.00000E+0	0.00000E+0	1.95200E+1	1.35000E+1	1.95192E+1	1.35007E+1
243	11/05/2023	14:23:07.949	0.00000E+0	0.00000E+0	1.02721E+2	1.05971E+2	0.00000E+0	0.00000E+0	1.95200E+1	1.35000E+1	1.95193E+1	1.34992E+1
244	11/05/2023	14:23:09.382	0.00000E+0	0.00000E+0	-5.60746E+1	-6.14031E+1	0.00000E+0	0.00000E+0	1.95200E+1	1.35000E+1	1.95200E+1	1.35014E+1
245	11/05/2023	14:23:10.791	0.00000E+0	0.00000E+0	-1.30563E+2	-1.32327E+2	0.00000E+0	0.00000E+0	1.95200E+1	1.35000E+1	1.95221E+1	1.34992E+1
246	11/05/2023	14:23:12.212	0.00000E+0	0.00000E+0	-1.22625E+2	-1.23586E+2	0.00000E+0	0.00000E+0	1.95200E+1	1.35000E+1	1.95180E+1	1.35008E+1
247	11/05/2023	14:23:13.670	0.00000E+0	0.00000E+0	7.84183E+1	8.44959E+1	0.00000E+0	0.00000E+0	1.95200E+1	1.35000E+1	1.95190E+1	1.34992E+1
248	11/05/2023	14:23:15.066	0.00000E+0	0.00000E+0	1.19215E+2	1.23897E+2	0.00000E+0	0.00000E+0	1.95200E+1	1.35000E+1	1.95211E+1	1.35000E+1
249	11/05/2023	14:23:16.462	0.00000E+0	0.00000E+0	8.75060E+1	8.98675E+1	0.00000E+0	0.00000E+0	1.95200E+1	1.35000E+1	1.95204E+1	1.34989E+1
250	11/05/2023	14:23:17.878	0.00000E+0	0.00000E+0	-6.66018E+0	-1.16949E+1	0.00000E+0	0.00000E+0	1.95200E+1	1.35000E+1	1.95194E+1	1.34991E+1
251	11/05/2023	14:23:19.309	0.00000E+0	0.00000E+0	-9.36260E+1	-9.81202E+1	0.00000E+0	0.00000E+0	1.95200E+1	1.35000E+1	1.95201E+1	1.34997E+1
252	11/05/2023	14:23:20.738	0.00000E+0	0.00000E+0	-1.24962E+2	-1.29303E+2	0.00000E+0	0.00000E+0	1.95200E+1	1.35000E+1	1.95194E+1	1.35021E+1
253	11/05/2023	14:23:22.184	0.00000E+0	0.00000E+0	-8.11200E+1	-7.49982E+1	0.00000E+0	0.00000E+0	1.95200E+1	1.35000E+1	1.95213E+1	1.35023E+1
254	11/05/2023	14:23:23.580	0.00000E+0	0.00000E+0	8.01774E+1	8.53556E+1	0.00000E+0	0.00000E+0	1.95200E+1	1.35000E+1	1.95209E+1	1.35010E+1
255	11/05/2023	14:23:25.034	0.00000E+0	0.00000E+0	1.17449E+2	1.20777E+2	0.00000E+0	0.00000E+0	1.95200E+1	1.35000E+1	1.95210E+1	1.34982E+1
256	11/05/2023	14:23:26.560	0.00000E+0	0.00000E+0	1.02428E+2	1.03861E+2	0.00000E+0	0.00000E+0	1.95200E+1	1.35000E+1	1.95210E+1	1.34984E+1
257	11/05/2023	14:23:28.060	0.00000E+0	0.00000E+0	-4.47340E+1	-4.81600E+1	0.00000E+0	0.00000E+0	1.95200E+1	1.35000E+1	1.95202E+1	1.34989E+1
258	11/05/2023	14:23:29.496	0.00000E+0	0.00000E+0	-1.17557E+2	-1.19841E+2	0.00000E+0	0.00000E+0	1.95200E+1	1.35000E+1	1.95221E+1	1.35009E+1
259	11/05/2023	14:23:30.926	0.00000E+0	0.00000E+0	-1.07329E+2	-1.05905E+2	0.00000E+0	0.00000E+0	1.95200E+1	1.35000E+1	1.95196E+1	1.35019E+1
260	11/05/2023	14:23:32.337	0.00000E+0	0.00000E+0	7.30286E+1	8.56375E+1	0.00000E+0	0.00000E+0	1.95200E+1	1.35000E+1	1.95200E+1	1.34996E+1
261	11/05/2023	14:23:33.786	0.00000E+0	0.00000E+0	1.74439E+2	1.74635E+2	0.00000E+0	0.00000E+0	1.95200E+1	1.35000E+1	1.95199E+1	1.35023E+1
262	11/05/2023	14:23:35.286	0.00000E+0	0.00000E+0	-5.34131E+1	-6.36192E+1	0.00000E+0	0.00000E+0	1.95200E+1	1.35000E+1	1.95206E+1	1.35017E+1
263	11/05/2023	14:23:36.727	0.00000E+0	0.00000E+0	-1.63914E+2	-1.65670E+2	0.00000E+0	0.00000E+0	1.95200E+1	1.35000E+1	1.95207E+1	1.34996E+1
264	11/05/2023	14:23:38.148	0.00000E+0	0.00000E+0	-8.44655E+1	-7.26218E+1	0.00000E+0	0.00000E+0	1.95200E+1	1.35000E+1	1.95183E+1	1.34999E+1
265	11/05/2023	14:23:39.553	0.00000E+0	0.00000E+0	1.69385E+2	1.74838E+2	0.00000E+0	0.00000E+0	1.95200E+1	1.35000E+1	1.95195E+1	1.35018E+1
266	11/05/2023	14:23:40.965	0.00000E+0	0.00000E+0	1.25255E+2	1.24890E+2	0.00000E+0	0.00000E+0	1.95200E+1	1.35000E+1	1.95205E+1	1.34994E+1
267	11/05/2023	14:23:42.401	0.00000E+0	0.00000E+0	-1.08228E+2	-1.18669E+2	0.00000E+0	0.00000E+0	1.95200E+1	1.35000E+1	1.95222E+1	1.34990E+1
268	11/05/2023	14:23:43.832	0.00000E+0	0.00000E+0	-1.68945E+2	-1.69254E+2	0.00000E+0	0.00000E+0	1.95200E+1	1.35000E+1	1.95206E+1	1.34996E+1
269	11/05/2023	14:23:45.260	0.00000E+0	0.00000E+0	7.23888E+1	8.21460E+1	0.00000E+0	0.00000E+0	1.95200E+1	1.35000E+1	1.95221E+1	1.35003E+1
270	11/05/2023	14:23:46.682	0.00000E+0	0.00000E+0	1.64576E+2	1.65892E+2	0.00000E+0	0.00000E+0	1.95200E+1	1.35000E+1	1.95183E+1	1.35012E+1
271	11/05/2023	14:23:48.091	0.00000E+0	0.00000E+0	4.17151E+1	3.15050E+1	0.00000E+0	0.00000E+0	1.95200E+1	1.35000E+1	1.95240E+1	1.34997E+1
272	11/05/2023	14:23:49.535	0.00000E+0	0.00000E+0	-1.90332E+2	-1.94403E+2	0.00000E+0	0.00000E+0	1.95200E+1	1.35000E+1	1.95197E+1	1.35003E+1
273	11/05/2023	14:23:50.955	0.00000E+0	0.00000E+0	-8.83919E+1	-7.88045E+1	0.00000E+0	0.00000E+0	1.95200E+1	1.35000E+1	1.95183E+1	1.34978E+1
274	11/05/2023	14:23:52.412	0.00000E+0	0.00000E+0	1.54506E+2	1.57421E+2	0.00000E+0	0.00000E+0	1.95200E+1	1.35000E+1	1.95213E+1	1.34994E+1
275	11/05/2023	14:23:53.830	0.00000E+0	0.00000E+0	1.56186E+2	1.52366E+2	0.00000E+0	0.00000E+0	1.95200E+1	1.35000E+1	1.95219E+1	1.34971E+1
276	11/05/2023	14:23:55.251	0.00000E+0	0.00000E+0	-1.24004E+2	-1.28498E+2	0.00000E+0	0.00000E+0	1.95200E+1	1.35000E+1	1.95182E+1	1.34999E+1
277	11/05/2023	14:23:56.693	0.00000E+0	0.00000E+0	-1.68209E+2	-1.71806E+2	0.00000E+0	0.00000E+0	1.95200E+1	1.35000E+1	1.95204E+1	1.35013E+1
278	11/05/2023	14:23:58.110	0.00000E+0	0.00000E+0	2.40614E+1	3.61375E+1	0.00000E+0	0.00000E+0	1.95200E+1	1.35000E+1	1.95218E+1	1.35020E+1
279	11/05/2023	14:23:59.537	0.00000E+0	0.00000E+0	1.84113E+2	1.86190E+2	0.00000E+0	0.00000E+0	1.95200E+1	1.35000E+1	1.95191E+1	1.35001E+1
280	11/05/2023	14:24:00.940	0.00000E+0	0.00000E+0	1.29852E+2	1.25195E+2	0.00000E+0	0.00000E+0	1.95200E+1	1.35000E+1	1.95209E+1	1.34994E+1
281	11/05/2023	14:24:02.367	0.00000E+0	0.00000E+0	-1.47192E+2	-1.52023E+2	0.00000E+0	0.00000E+0	1.95200E+1	1.35000E+1	1.95224E+1	1.34992E+1
282	11/05/2023	14:24:03.780	0.00000E+0	0.00000E+0	-1.67874E+2	-1.60249E+2	0.00000E+0	0.00000E+0	1.95200E+1	1.35000E+1	1.95200E+1	1.35019E+1
283	11/05/2023	14:24:05.173	0.00000E+0	0.00000E+0	1.09567E+2	1.23731E+2	0.00000E+0	0.00000E+0	1.95200E+1	1.35000E+1	1.95197E+1	1.34942E+1
284	11/05/2023	14:24:06.586	0.00000E+0	0.00000E+0	1.66045E+2	1.67296E+2	0.00000E+0	0.00000E+0	1.95200E+1	1.35000E+1	1.95198E+1	1.35025E+1
285	11/05/2023	14:24:08.083	0.00000E+0	0.00000E+0	-8.85387E+1	-9.76536E+1	0.00000E+0	0.00000E+0	1.95200E+1	1.35000E+1	1.95184E+1	1.34998E+1
286	11/05/2023	14:24:09.526	0.00000E+0	0.00000E+0	-1.60840E+2	-1.66362E+2	0.00000E+0	0.00000E+0	1.95200E+1	1.35000E+1	1.95207E+1	1.35001E+1
287	11/05/2023	14:24:10.953	0.00000E+0	0.00000E+0	1.18473E+1	3.08619E+1	0.00000E+0	0.00000E+0	1.95200E+1	1.35000E+1	1.95201E+1	1.34995E+1
288	11/05/2023	14:24:12.407	0.00000E+0	0.00000E+0	1.72553E+2	1.74150E+2	0.00000E+0	0.00000E+0	1.95200E+1	1.35000E+1	1.95198E+1	1.35007E+1
289	11/05/2023	14:24:13.818	0.00000E+0	0.00000E+0	1.07133E+2	1.03943E+2	0.00000E+0	0.00000E+0	1.95200E+1	1.35000E+1	1.95194E+1	1.35001E+1
290	11/05/2023	14:24:15.255	0.00000E+0	0.00000E+0	-1.44882E+2	-1.51638E+2	0.00000E+0	0.00000E+0	1.95200E+1	1.35000E+1	1.95193E+1	1.34988E+1
291	11/05/2023	14:24:16.669	0.00000E+0	0.00000E+0	-1.61727E+2	-1.64599E+2	0.00000E+0	0.00000E+0	1.95200E+1	1.35000E+1	1.95188E+1	1.35014E+1
292	11/05/2023	14:24:18.089	0.00000E+0	0.00000E+0	1.20760E+2	1.29446E+2	0.00000E+0	0.00000E+0	1.95200E+1	1.35000E+1	1.95192E+1	1.34993E+1
293	11/05/2023	14:24:19.499	0.00000E+0	0.00000E+0	1.67525E+2	1.70601E+2	0.00000E+0	0.00000E+0	1.95200E+1	1.35000E+1	1.95193E+1	1.35001E+1
294	11/05/2023	14:24:20.971	0.00000E+0	0.00000E+0	-6.65475E+1	-7.70323E+1	0.00000E+0	0.00000E+0	1.95200E+1	1.35000E+1	1.95168E+1	1.35009E+1
295	11/05/2023	14:24:22.380	0.00000E+0	0.00000E+0	-1.97588E+2	-2.01021E+2	0.00000E+0	0.00000E+0	1.95200E+1	1.35000E+1	1.95201E+1	1.34985E+1
296	11/05/2023	14:24:23.810	0.00000E+0	0.00000E+0	4.96167E+1	6.30316E+1	0.00000E+0	0.00000E+0	1.95200E+1	1.35000E+1	1.95199E+1	1.35008E+1
297	11/05/2023	14:24:25.269	0.00000E+0	0.00000E+0	1.99870E+2	2.02048E+2	0.00000E+0	0.00000E+0	1.95200E+1	1.35000E+1	1.95220E+1	1.35001E+1
298	11/05/2023	14:24:26.746	0.00000E+0	0.00000E+0	-5.72581E+1	-7.09872E+1	0.00000E+0	0.00000E+0	1.95200E+1	1.35000E+1	1.95184E+1	1.35020E+1
299	11/05/2023	14:24:28.169	0.00000E+0	0.00000E+0	-1.71022E+2	-1.73555E+2	0.00000E+0	0.00000E+0	1.95200E+1	1.35000E+1	1.95197E+1	1.35020E+1
300	11/05/2023	14:24:29.584	0.00000E+0	0.00000E+0	6.04199E+0	1.78834E+1	0.00000E+0	0.00000E+0	1.95200E+1	1.35000E+1	1.95196E+1	1.35001E+1
301	11/05/2023	14:24:31.003	0.00000E+0	0.00000E+0	1.43539E+2	1.43543E+2	0.00000E+0	0.00000E+0	1.95200E+1	1.35000E+1	1.95219E+1	1.35015E+1
302	11/05/2023	14:24:32.420	0.00000E+0	0.00000E+0	5.92456E+0	-7.09187E+0	0.00000E+0	0.00000E+0	1.95200E+1	1.35000E+1	1.95183E+1	1.35007E+1
303	11/05/2023	14:24:33.840	0.00000E+0	0.00000E+0	-1.25494E+2	-1.29003E+2	0.00000E+0	0.00000E+0	1.95200E+1	1.35000E+1	1.95198E+1	1.34995E+1
304	11/05/2023	14:24:35.245	0.00000E+0	0.00000E+0	3.92309E+1	4.73441E+1	0.00000E+0	0.00000E+0	1.95200E+1	1.35000E+1	1.95208E+1	1.35026E+1
305	11/05/2023	14:24:36.653	0.00000E+0	0.00000E+0	1.31205E+2	1.33321E+2	0.00000E+0	0.00000E+0	1.95200E+1	1.35000E+1	1.95216E+1	1.35000E+1
306	11/05/2023	14:24:38.122	0.00000E+0	0.00000E+0	-1.69649E+1	-2.85615E+1	0.00000E+0	0.00000E+0	1.95200E+1	1.35000E+1	1.95177E+1	1.34999E+1
307	11/05/2023	14:24:39.545	0.00000E+0	0.00000E+0	-1.90713E+2	-1.89546E+2	0.00000E+0	0.00000E+0	1.95200E+1	1.35000E+1	1.95195E+1	1.34997E+1
308	11/05/2023	14:24:40.959	0.00000E+0	0.00000E+0	7.71843E+0	2.24518E+1	0.00000E+0	0.00000E+0	1.95200E+1	1.35000E+1	1.95212E+1	1.34991E+1
309	11/05/2023	14:24:42.379	0.00000E+0	0.00000E+0	1.30433E+2	1.33935E+2	0.00000E+0	0.00000E+0	1.95200E+1	1.35000E+1	1.95213E+1	1.34986E+1
310	11/05/2023	14:24:43.829	0.00000E+0	0.00000E+0	7.55775E+1	7.02325E+1	0.00000E+0	0.00000E+0	1.95200E+1	1.35000E+1	1.95215E+1	1.34988E+1
311	11/05/2023	14:24:45.246	0.00000E+0	0.00000E+0	-2.10255E+1	-2.29795E+1	0.00000E+0	0.00000E+0	1.95200E+1	1.35000E+1	1.95203E+1	1.34997E+1
312	11/05/2023	14:24:46.670	0.00000E+0	0.00000E+0	-7.77928E+1	-8.17410E+1	0.00000E+0	0.00000E+0	1.95200E+1	1.35000E+1	1.95201E+1	1.35014E+1
313	11/05/2023	14:24:48.082	0.00000E+0	0.00000E+0	-1.30942E+2	-1.32112E+2	0.00000E+0	0.00000E+0	1.95200E+1	1.35000E+1	1.95210E+1	1.35001E+1
314	11/05/2023	14:24:49.534	0.00000E+0	0.00000E+0	1.23420E+2	1.36102E+2	0.00000E+0	0.00000E+0	1.95200E+1	1.35000E+1	1.95209E+1	1.35009E+1
315	11/05/2023	14:24:50.952	0.00000E+0	0.00000E+0	1.78964E+2	1.81380E+2	0.00000E+0	0.00000E+0	1.95200E+1	1.35000E+1	1.95226E+1	1.34987E+1
316	11/05/2023	14:24:52.361	0.00000E+0	0.00000E+0	-1.05244E+2	-1.14418E+2	0.00000E+0	0.00000E+0	1.95200E+1	1.35000E+1	1.95181E+1	1.35013E+1
317	11/05/2023	14:24:53.814	0.00000E+0	0.00000E+0	-1.99045E+2	-2.01541E+2	0.00000E+0	0.00000E+0	1.95200E+1	1.35000E+1	1.95201E+1	1.35013E+1
318	11/05/2023	14:24:55.243	0.00000E+0	0.00000E+0	1.15082E+2	1.26749E+2	0.00000E+0	0.00000E+0	1.95200E+1	1.35000E+1	1.95204E+1	1.35022E+1
319	11/05/2023	14:24:56.660	0.00000E+0	0.00000E+0	1.60660E+2	1.62609E+2	0.00000E+0	0.00000E+0	1.95200E+1	1.35000E+1	1.95192E+1	1.34983E+1
320	11/05/2023	14:24:58.094	0.00000E+0	0.00000E+0	-3.58474E+1	-4.90480E+1	0.00000E+0	0.00000E+0	1.95200E+1	1.35000E+1	1.95190E+1	1.34994E+1
321	11/05/2023	14:24:59.522	0.00000E+0	0.00000E+0	-1.81352E+2	-1.85613E+2	0.00000E+0	0.00000E+0	1.95200E+1	1.35000E+1	1.95196E+1	1.34999E+1
322	11/05/2023	14:25:00.956	0.00000E+0	0.00000E+0	-5.99341E+0	1.05932E+1	0.00000E+0	0.00000E+0	1.95200E+1	1.35000E+1	1.95173E+1	1.35007E+1
323	11/05/2023	14:25:02.380	0.00000E+0	0.00000E+0	2.00091E+2	2.01911E+2	0.00000E+0	0.00000E+0	1.95200E+1	1.35000E+1	1.95208E+1	1.35001E+1
324	11/05/2023	14:25:03.777	0.00000E+0	0.00000E+0	7.33036E+1	6.44541E+1	0.00000E+0	0.00000E+0	1.95200E+1	1.35000E+1	1.95198E+1	1.35019E+1
325	11/05/2023	14:25:05.205	0.00000E+0	0.00000E+0	-1.92340E+2	-1.98771E+2	0.00000E+0	0.00000E+0	1.95200E+1	1.35000E+1	1.95199E+1	1.35009E+1
326	11/05/2023	14:25:06.696	0.00000E+0	0.00000E+0	-8.27595E+1	-6.86204E+1	0.00000E+0	0.00000E+0	1.95200E+1	1.35000E+1	1.95194E+1	1.35028E+1
327	11/05/2023	14:25:08.121	0.00000E+0	0.00000E+0	1.59948E+2	1.62929E+2	0.00000E+0	0.00000E+0	1.95200E+1	1.35000E+1	1.95196E+1	1.34988E+1
328	11/05/2023	14:25:09.545	0.00000E+0	0.00000E+0	1.39308E+2	1.31356E+2	0.00000E+0	0.00000E+0	1.95200E+1	1.35000E+1	1.95193E+1	1.34983E+1
329	11/05/2023	14:25:10.960	0.00000E+0	0.00000E+0	-1.57906E+2	-1.64408E+2	0.00000E+0	0.00000E+0	1.95200E+1	1.35000E+1	1.95192E+1	1.34979E+1
330	11/05/2023	14:25:12.370	0.00000E+0	0.00000E+0	-1.40211E+2	-1.36189E+2	0.00000E+0	0.00000E+0	1.95200E+1	1.35000E+1	1.95184E+1	1.34999E+1
331	11/05/2023	14:25:13.800	0.00000E+0	0.00000E+0	1.42447E+2	1.48607E+2	0.00000E+0	0.00000E+0	1.95200E+1	1.35000E+1	1.95197E+1	1.34988E+1
332	11/05/2023	14:25:15.226	0.00000E+0	0.00000E+0	1.59674E+2	1.59497E+2	0.00000E+0	0.00000E+0	1.95200E+1	1.35000E+1	1.95216E+1	1.35003E+1
333	11/05/2023	14:25:16.635	0.00000E+0	0.00000E+0	-1.16526E+2	-1.24914E+2	0.00000E+0	0.00000E+0	1.95200E+1	1.35000E+1	1.95200E+1	1.35006E+1
334	11/05/2023	14:25:18.045	0.00000E+0	0.00000E+0	-1.84359E+2	-1.86999E+2	0.00000E+0	0.00000E+0	1.95200E+1	1.35000E+1	1.95204E+1	1.35008E+1
335	11/05/2023	14:25:19.460	0.00000E+0	0.00000E+0	8.14444E+1	9.02923E+1	0.00000E+0	0.00000E+0	1.95200E+1	1.35000E+1	1.95185E+1	1.35010E+1
336	11/05/2023	14:25:20.898	0.00000E+0	0.00000E+0	1.99178E+2	1.99298E+2	0.00000E+0	0.00000E+0	1.95200E+1	1.35000E+1	1.95183E+1	1.34999E+1
337	11/05/2023	14:25:22.318	0.00000E+0	0.00000E+0	-4.26507E+1	-5.47689E+1	0.00000E+0	0.00000E+0	1.95200E+1	1.35000E+1	1.95223E+1	1.35012E+1
338	11/05/2023	14:25:23.736	0.00000E+0	0.00000E+0	-1.92025E+2	-1.96296E+2	0.00000E+0	0.00000E+0	1.95200E+1	1.35000E+1	1.95207E+1	1.35008E+1
339	11/05/2023	14:25:25.147	0.00000E+0	0.00000E+0	-3.66080E+1	-2.38441E+1	0.00000E+0	0.00000E+0	1.95200E+1	1.35000E+1	1.95177E+1	1.35017E+1
340	11/05/2023	14:25:26.582	0.00000E+0	0.00000E+0	1.75145E+2	1.77874E+2	0.00000E+0	0.00000E+0	1.95200E+1	1.35000E+1	1.95183E+1	1.34990E+1
341	11/05/2023	14:25:28.011	0.00000E+0	0.00000E+0	1.26565E+2	1.26611E+2	0.00000E+0	0.00000E+0	1.95200E+1	1.35000E+1	1.95220E+1	1.35012E+1
342	11/05/2023	14:25:29.429	0.00000E+0	0.00000E+0	-1.38422E+2	-1.45051E+2	0.00000E+0	0.00000E+0	1.95200E+1	1.35000E+1	1.95214E+1	1.34994E+1
343	11/05/2023	14:25:30.857	0.00000E+0	0.00000E+0	-1.63216E+2	-1.66982E+2	0.00000E+0	0.00000E+0	1.95200E+1	1.35000E+1	1.95193E+1	1.35001E+1
344	11/05/2023	14:25:32.321	0.00000E+0	0.00000E+0	8.64710E+1	9.27996E+1	0.00000E+0	0.00000E+0	1.95200E+1	1.35000E+1	1.95221E+1	1.35013E+1
345	11/05/2023	14:25:33.761	0.00000E+0	0.00000E+0	1.81053E+2	1.79676E+2	0.00000E+0	0.00000E+0	1.95200E+1	1.35000E+1	1.95176E+1	1.34994E+1
346	11/05/2023	14:25:35.190	0.00000E+0	0.00000E+0	-6.69462E+0	-2.00761E+1	0.00000E+0	0.00000E+0	1.95200E+1	1.35000E+1	1.95192E+1	1.35009E+1
347	11/05/2023	14:25:36.598	0.00000E+0	0.00000E+0	-1.76463E+2	-1.79205E+2	0.00000E+0	0.00000E+0	1.95200E+1	1.35000E+1	1.95208E+1	1.34966E+1
348	11/05/2023	14:25:38.030	0.00000E+0	0.00000E+0	-9.40429E+1	-8.35867E+1	0.00000E+0	0.00000E+0	1.95200E+1	1.35000E+1	1.95196E+1	1.35013E+1
349	11/05/2023	14:25:39.515	0.00000E+0	0.00000E+0	1.52573E+2	1.59353E+2	0.00000E+0	0.00000E+0	1.95200E+1	1.35000E+1	1.95184E+1	1.35019E+1
350	11/05/2023	14:25:40.936	0.00000E+0	0.00000E+0	1.40559E+2	1.37690E+2	0.00000E+0	0.00000E+0	1.95200E+1	1.35000E+1	1.95194E+1	1.35013E+1
351	11/05/2023	14:25:42.345	0.00000E+0	0.00000E+0	-1.05635E+2	-1.18092E+2	0.00000E+0	0.00000E+0	1.95200E+1	1.35000E+1	1.95174E+1	1.34989E+1
352	11/05/2023	14:25:43.834	0.00000E+0	0.00000E+0	-1.77098E+2	-1.75284E+2	0.00000E+0	0.00000E+0	1.95200E+1	1.35000E+1	1.95200E+1	1.34994E+1
353	11/05/2023	14:25:45.281	0.00000E+0	0.00000E+0	6.48133E+1	7.72303E+1	0.00000E+0	0.00000E+0	1.95200E+1	1.35000E+1	1.95201E+1	1.34986E+1
354	11/05/2023	14:25:46.728	0.00000E+0	0.00000E+0	1.95116E+2	1.99765E+2	0.00000E+0	0.00000E+0	1.95200E+1	1.35000E+1	1.95222E+1	1.34979E+1
355	11/05/2023	14:25:48.131	0.00000E+0	0.00000E+0	1.73304E+1	3.93547E+0	0.00000E+0	0.00000E+0	1.95200E+1	1.35000E+1	1.95210E+1	1.34997E+1
356	11/05/2023	14:25:49.569	0.00000E+0	0.00000E+0	-1.96270E+2	-1.97458E+2	0.00000E+0	0.00000E+0	1.95200E+1	1.35000E+1	1.95230E+1	1.34987E+1
357	11/05/2023	14:25:50.978	0.00000E+0	0.00000E+0	-6.76570E+1	-4.93149E+1	0.00000E+0	0.00000E+0	1.95200E+1	1.35000E+1	1.95221E+1	1.35011E+1
358	11/05/2023	14:25:52.408	0.00000E+0	0.00000E+0	1.76698E+2	1.79932E+2	0.00000E+0	0.00000E+0	1.95200E+1	1.35000E+1	1.95223E+1	1.34988E+1
359	11/05/2023	14:25:53.828	0.00000E+0	0.00000E+0	1.24281E+2	1.23183E+2	0.00000E+0	0.00000E+0	1.95200E+1	1.35000E+1	1.95200E+1	1.34996E+1
360	11/05/2023	14:25:55.249	0.00000E+0	0.00000E+0	-1.44986E+2	-1.50025E+2	0.00000E+0	0.00000E+0	1.95200E+1	1.35000E+1	1.95198E+1	1.34997E+1
361	11/05/2023	14:25:56.677	0.00000E+0	0.00000E+0	-1.62581E+2	-1.65393E+2	0.00000E+0	0.00000E+0	1.95200E+1	1.35000E+1	1.95207E+1	1.34990E+1
362	11/05/2023	14:25:58.086	0.00000E+0	0.00000E+0	6.68532E+1	7.87638E+1	0.00000E+0	0.00000E+0	1.95200E+1	1.35000E+1	1.95162E+1	1.35001E+1
363	11/05/2023	14:25:59.502	0.00000E+0	0.00000E+0	2.02323E+2	2.04616E+2	0.00000E+0	0.00000E+0	1.95200E+1	1.35000E+1	1.95216E+1	1.34969E+1
364	11/05/2023	14:26:00.908	0.00000E+0	0.00000E+0	-7.02093E+1	-8.31135E+1	0.00000E+0	0.00000E+0	1.95200E+1	1.35000E+1	1.95209E+1	1.34984E+1
365	11/05/2023	14:26:02.351	0.00000E+0	0.00000E+0	-1.91735E+2	-1.93297E+2	0.00000E+0	0.00000E+0	1.95200E+1	1.35000E+1	1.95196E+1	1.35025E+1
366	11/05/2023	14:26:03.789	0.00000E+0	0.00000E+0	6.19043E+1	7.64341E+1	0.00000E+0	0.00000E+0	1.95200E+1	1.35000E+1	1.95200E+1	1.35008E+1
367	11/05/2023	14:26:05.200	0.00000E+0	0.00000E+0	1.74903E+2	1.79826E+2	0.00000E+0	0.00000E+0	1.95200E+1	1.35000E+1	1.95170E+1	1.34992E+1
368	11/05/2023	14:26:06.624	0.00000E+0	0.00000E+0	2.26203E+1	1.01939E+1	0.00000E+0	0.00000E+0	1.95200E+1	1.35000E+1	1.95225E+1	1.35015E+1
369	11/05/2023	14:26:08.044	0.00000E+0	0.00000E+0	-1.85117E+2	-1.86057E+2	0.00000E+0	0.00000E+0	1.95200E+1	1.35000E+1	1.95190E+1	1.34997E+1
370	11/05/2023	14:26:09.451	0.00000E+0	0.00000E+0	-6.52299E+1	-5.51545E+1	0.00000E+0	0.00000E+0	1.95200E+1	1.35000E+1	1.95168E+1	1.35006E+1
371	11/05/2023	14:26:10.854	0.00000E+0	0.00000E+0	1.94815E+2	1.99200E+2	0.00000E+0	0.00000E+0	1.95200E+1	1.35000E+1	1.95212E+1	1.34999E+1
372	11/05/2023	14:26:12.304	0.00000E+0	0.00000E+0	5.22663E+1	3.67646E+1	0.00000E+0	0.00000E+0	1.95200E+1	1.35000E+1	1.95211E+1	1.35023E+1
373	11/05/2023	14:26:13.740	0.00000E+0	0.00000E+0	-1.81590E+2	-1.87252E+2	0.00000E+0	0.00000E+0	1.95200E+1	1.35000E+1	1.95206E+1	1.35005E+1
374	11/05/2023	14:26:15.159	0.00000E+0	0.00000E+0	-1.02750E+2	-9.28653E+1	0.00000E+0	0.00000E+0	1.95200E+1	1.35000E+1	1.95207E+1	1.35001E+1
375	11/05/2023	14:26:16.581	0.00000E+0	0.00000E+0	1.79642E+2	1.84167E+2	0.00000E+0	0.00000E+0	1.95200E+1	1.35000E+1	1.95221E+1	1.34985E+1
376	11/05/2023	14:26:18.037	0.00000E+0	0.00000E+0	1.08144E+2	9.89618E+1	0.00000E+0	0.00000E+0	1.95200E+1	1.35000E+1	1.95209E+1	1.34993E+1
377	11/05/2023	14:26:19.481	0.00000E+0	0.00000E+0	-1.72220E+2	-1.77983E+2	0.00000E+0	0.00000E+0	1.95200E+1	1.35000E+1	1.95194E+1	1.34983E+1
378	11/05/2023	14:26:20.893	0.00000E+0	0.00000E+0	-1.29525E+2	-1.28070E+2	0.00000E+0	0.00000E+0	1.95200E+1	1.35000E+1	1.95203E+1	1.34988E+1
379	11/05/2023	14:26:22.315	0.00000E+0	0.00000E+0	1.60314E+2	1.66873E+2	0.00000E+0	0.00000E+0	1.95200E+1	1.35000E+1	1.95181E+1	1.35001E+1
380	11/05/2023	14:26:23.733	0.00000E+0	0.00000E+0	1.47749E+2	1.42194E+2	0.00000E+0	0.00000E+0	1.95200E+1	1.35000E+1	1.95194E+1	1.34999E+1
381	11/05/2023	14:26:25.164	0.00000E+0	0.00000E+0	-9.15408E+1	-1.00936E+2	0.00000E+0	0.00000E+0	1.95200E+1	1.35000E+1	1.95213E+1	1.34995E+1
382	11/05/2023	14:26:26.590	0.00000E+0	0.00000E+0	-1.82751E+2	-1.86376E+2	0.00000E+0	0.00000E+0	1.95200E+1	1.35000E+1	1.95169E+1	1.34996E+1
383	11/05/2023	14:26:28.012	0.00000E+0	0.00000E+0	5.09150E+1	5.92951E+1	0.00000E+0	0.00000E+0	1.95200E+1	1.35000E+1	1.95218E+1	1.35009E+1
384	11/05/2023	14:26:29.433	0.00000E+0	0.00000E+0	1.78110E+2	1.76710E+2	0.00000E+0	0.00000E+0	1.95200E+1	1.35000E+1	1.95170E+1	1.35000E+1
385	11/05/2023	14:26:30.858	0.00000E+0	0.00000E+0	6.80663E+1	6.52016E+1	0.00000E+0	0.00000E+0	1.95200E+1	1.35000E+1	1.95209E+1	1.34998E+1
386	11/05/2023	14:26:32.313	0.00000E+0	0.00000E+0	-1.71151E+2	-1.72331E+2	0.00000E+0	0.00000E+0	1.95200E+1	1.35000E+1	1.95176E+1	1.35008E+1
387	11/05/2023	14:26:33.738	0.00000E+0	0.00000E+0	-9.30833E+1	-8.13823E+1	0.00000E+0	0.00000E+0	1.95200E+1	1.35000E+1	1.95184E+1	1.34975E+1
388	11/05/2023	14:26:35.152	0.00000E+0	0.00000E+0	8.54120E+1	8.47095E+1	0.00000E+0	0.00000E+0	1.95200E+1	1.35000E+1	1.95221E+1	1.34977E+1
389	11/05/2023	14:26:36.774	0.00000E+0	0.00000E+0	6.55783E+1	6.79139E+1	0.00000E+0	0.00000E+0	1.95200E+1	1.35000E+1	1.95198E+1	1.34990E+1
390	11/05/2023	14:26:38.190	0.00000E+0	0.00000E+0	6.52405E+1	6.52660E+1	0.00000E+0	0.00000E+0	1.95200E+1	1.35000E+1	1.95182E+1	1.34990E+1
391	11/05/2023	14:26:39.623	0.00000E+0	0.00000E+0	-9.11628E+1	-1.02155E+2	0.00000E+0	0.00000E+0	1.95200E+1	1.35000E+1	1.95210E+1	1.35021E+1
392	11/05/2023	14:26:41.053	0.00000E+0	0.00000E+0	-1.50962E+2	-1.50202E+2	0.00000E+0	0.00000E+0	1.95200E+1	1.35000E+1	1.95193E+1	1.34987E+1
393	11/05/2023	14:26:42.457	0.00000E+0	0.00000E+0	4.09719E+1	4.69338E+1	0.00000E+0	0.00000E+0	1.95200E+1	1.35000E+1	1.95214E+1	1.35032E+1
394	11/05/2023	14:26:43.888	0.00000E+0	0.00000E+0	9.88174E+1	1.00233E+2	0.00000E+0	0.00000E+0	1.95200E+1	1.35000E+1	1.95199E+1	1.34993E+1
395	11/05/2023	14:26:45.342	0.00000E+0	0.00000E+0	1.10459E+2	1.11272E+2	0.00000E+0	0.00000E+0	1.95200E+1	1.35000E+1	1.95233E+1	1.34978E+1
396	11/05/2023	14:26:46.751	0.00000E+0	0.00000E+0	-4.80668E+1	-5.09393E+1	0.00000E+0	0.00000E+0	1.95200E+1	1.35000E+1	1.95195E+1	1.34979E+1
397	11/05/2023	14:26:48.154	0.00000E+0	0.00000E+0	-6.55625E+1	-6.69593E+1	0.00000E+0	0.00000E+0	1.95200E+1	1.35000E+1	1.95208E+1	1.35007E+1
398	11/05/2023	14:26:49.569	0.00000E+0	0.00000E+0	-5.05886E+1	-4.97956E+1	0.00000E+0	0.00000E+0	1.95200E+1	1.35000E+1	1.95200E+1	1.35001E+1
399	11/05/2023	14:26:51.007	0.00000E+0	0.00000E+0	-1.98398E+1	-1.92776E+1	0.00000E+0	0.00000E+0	1.95200E+1	1.35000E+1	1.95196E+1	1.34973E+1
400	11/05/2023	14:26:52.457	0.00000E+0	0.00000E+0	-3.48131E+1	-3.69388E+1	0.00000E+0	0.00000E+0	1.95200E+1	1.35000E+1	1.95214E+1	1.34996E+1
401	11/05/2023	14:26:53.885	0.00000E+0	0.00000E+0	-2.62604E+1	-2.31420E+1	0.00000E+0	0.00000E+0	1.95200E+1	1.35000E+1	1.95190E+1	1.34994E+1
402	11/05/2023	14:26:55.292	0.00000E+0	0.00000E+0	3.24431E+1	3.26476E+1	0.00000E+0	0.00000E+0	1.95200E+1	1.35000E+1	1.95222E+1	1.34999E+1
403	11/05/2023	14:26:56.716	0.00000E+0	0.00000E+0	1.10424E+1	1.10938E+1	0.00000E+0	0.00000E+0	1.95200E+1	1.35000E+1	1.95214E+1	1.35000E+1
404	11/05/2023	14:26:58.165	0.00000E+0	0.00000E+0	1.88653E+1	1.84584E+1	0.00000E+0	0.00000E+0	1.95200E+1	1.35000E+1	1.95207E+1	1.34995E+1
405	11/05/2023	14:26:59.571	0.00000E+0	0.00000E+0	2.43453E+1	2.38294E+1	0.00000E+0	0.00000E+0	1.95200E+1	1.35000E+1	1.95200E+1	1.34986E+1
406	11/05/2023	14:27:00.973	0.00000E+0	0.00000E+0	5.64210E+1	5.66104E+1	0.00000E+0	0.00000E+0	1.95200E+1	1.35000E+1	1.95202E+1	1.35011E+1
407	11/05/2023	14:27:02.469	0.00000E+0	0.00000E+0	5.00743E+1	4.93528E+1	0.00000E+0	0.00000E+0	1.95200E+1	1.35000E+1	1.95188E+1	1.34995E+1
408	11/05/2023	14:27:03.920	0.00000E+0	0.00000E+0	4.22555E+1	4.17402E+1	0.00000E+0	0.00000E+0	1.95200E+1	1.35000E+1	1.95209E+1	1.35015E+1
409	11/05/2023	14:27:05.336	0.00000E+0	0.00000E+0	2.58312E+1	2.71193E+1	0.00000E+0	0.00000E+0	1.95200E+1	1.35000E+1	1.95198E+1	1.35004E+1
410	11/05/2023	14:27:06.761	0.00000E+0	0.00000E+0	-4.49281E+1	-4.67173E+1	0.00000E+0	0.00000E+0	1.95200E+1	1.35000E+1	1.95179E+1	1.35010E+1
411	11/05/2023	14:27:08.179	0.00000E+0	0.00000E+0	-5.56917E+1	-5.73019E+1	0.00000E+0	0.00000E+0	1.95200E+1	1.35000E+1	1.95191E+1	1.35010E+1
412	11/05/2023	14:27:09.612	0.00000E+0	0.00000E+0	-5.09701E+1	-5.24022E+1	0.00000E+0	0.00000E+0	1.95200E+1	1.35000E+1	1.95207E+1	1.34995E+1
413	11/05/2023	14:27:11.034	0.00000E+0	0.00000E+0	-5.21288E+1	-5.41060E+1	0.00000E+0	0.00000E+0	1.95200E+1	1.35000E+1	1.95205E+1	1.34984E+1
414	11/05/2023	14:27:12.442	0.00000E+0	0.00000E+0	-4.49523E+1	-4.63265E+1	0.00000E+0	0.00000E+0	1.95200E+1	1.35000E+1	1.95208E+1	1.34998E+1
415	11/05/2023	14:27:13.841	0.00000E+0	0.00000E+0	-4.35427E+1	-4.26572E+1	0.00000E+0	0.00000E+0	1.95200E+1	1.35000E+1	1.95191E+1	1.35016E+1
416	11/05/2023	14:27:15.276	0.00000E+0	0.00000E+0	3.01036E+1	3.29380E+1	0.00000E+0	0.00000E+0	1.95200E+1	1.35000E+1	1.95180E+1	1.35014E+1
417	11/05/2023	14:27:16.693	0.00000E+0	0.00000E+0	4.17489E+1	4.10548E+1	0.00000E+0	0.00000E+0	1.95200E+1	1.35000E+1	1.95209E+1	1.34989E+1
418	11/05/2023	14:27:18.095	0.00000E+0	0.00000E+0	4.99317E+1	5.15288E+1	0.00000E+0	0.00000E+0	1.95200E+1	1.35000E+1	1.95205E+1	1.35000E+1
419	11/05/2023	14:27:19.519	0.00000E+0	0.00000E+0	5.95158E+1	5.94860E+1	0.00000E+0	0.00000E+0	1.95200E+1	1.35000E+1	1.95170E+1	1.34996E+1
420	11/05/2023	14:27:20.946	0.00000E+0	0.00000E+0	6.93748E+1	6.97604E+1	0.00000E+0	0.00000E+0	1.95200E+1	1.35000E+1	1.95211E+1	1.34986E+1
421	11/05/2023	14:27:22.355	0.00000E+0	0.00000E+0	6.88829E+1	6.91552E+1	0.00000E+0	0.00000E+0	1.95200E+1	1.35000E+1	1.95204E+1	1.35004E+1
422	11/05/2023	14:27:23.761	0.00000E+0	0.00000E+0	-3.96156E+1	-4.57899E+1	0.00000E+0	0.00000E+0	1.95200E+1	1.35000E+1	1.95208E+1	1.34983E+1
423	11/05/2023	14:27:25.205	0.00000E+0	0.00000E+0	-1.29567E+2	-1.29220E+2	0.00000E+0	0.00000E+0	1.95200E+1	1.35000E+1	1.95209E+1	1.35012E+1
424	11/05/2023	14:27:26.622	0.00000E+0	0.00000E+0	-8.38712E+1	-8.33538E+1	0.00000E+0	0.00000E+0	1.95200E+1	1.35000E+1	1.95192E+1	1.34973E+1
425	11/05/2023	14:27:28.031	0.00000E+0	0.00000E+0	-4.32238E+1	-4.27095E+1	0.00000E+0	0.00000E+0	1.95200E+1	1.35000E+1	1.95219E+1	1.35001E+1
426	11/05/2023	14:27:29.488	0.00000E+0	0.00000E+0	3.97769E+1	4.18926E+1	0.00000E+0	0.00000E+0	1.95200E+1	1.35000E+1	1.95201E+1	1.35006E+1
427	11/05/2023	14:27:30.902	0.00000E+0	0.00000E+0	5.53279E+1	5.77275E+1	0.00000E+0	0.00000E+0	1.95200E+1	1.35000E+1	1.95202E+1	1.35001E+1
428	11/05/2023	14:27:32.312	0.00000E+0	0.00000E+0	1.46606E+1	1.55890E+1	0.00000E+0	0.00000E+0	1.95200E+1	1.35000E+1	1.95205E+1	1.34998E+1
429	11/05/2023	14:27:33.728	0.00000E+0	0.00000E+0	3.51238E+1	3.60665E+1	0.00000E+0	0.00000E+0	1.95200E+1	1.35000E+1	1.95197E+1	1.34998E+1
430	11/05/2023	14:27:35.145	0.00000E+0	0.00000E+0	1.22569E+1	8.22423E+0	0.00000E+0	0.00000E+0	1.95200E+1	1.35000E+1	1.95187E+1	1.34990E+1
431	11/05/2023	14:27:36.558	0.00000E+0	0.00000E+0	-3.23623E+1	-3.27110E+1	0.00000E+0	0.00000E+0	1.95200E+1	1.35000E+1	1.95190E+1	1.35020E+1
432	11/05/2023	14:27:38.013	0.00000E+0	0.00000E+0	-2.28561E+1	-2.14557E+1	0.00000E+0	0.00000E+0	1.95200E+1	1.35000E+1	1.95206E+1	1.35008E+1
433	11/05/2023	14:27:39.445	0.00000E+0	0.00000E+0	-2.04333E+1	-2.16348E+1	0.00000E+0	0.00000E+0	1.95200E+1	1.35000E+1	1.95222E+1	1.34999E+1
434	11/05/2023	14:27:40.871	0.00000E+0	0.00000E+0	-1.88700E+1	-1.88088E+1	0.00000E+0	0.00000E+0	1.95200E+1	1.35000E+1	1.95233E+1	1.34992E+1
435	11/05/2023	14:27:42.301	0.00000E+0	0.00000E+0	-1.41741E+1	-1.63158E+1	0.00000E+0	0.00000E+0	1.95200E+1	1.35000E+1	1.95169E+1	1.35009E+1
436	11/05/2023	14:27:43.762	0.00000E+0	0.00000E+0	-1.16439E+1	-8.84232E+0	0.00000E+0	0.00000E+0	1.95200E+1	1.35000E+1	1.95192E+1	1.35002E+1
437	11/05/2023	14:27:45.185	0.00000E+0	0.00000E+0	2.63369E+1	2.74433E+1	0.00000E+0	0.00000E+0	1.95200E+1	1.35000E+1	1.95204E+1	1.35018E+1
438	11/05/2023	14:27:46.614	0.00000E+0	0.00000E+0	1.09311E+1	1.16735E+1	0.00000E+0	0.00000E+0	1.95200E+1	1.35000E+1	1.95215E+1	1.34999E+1
439	11/05/2023	14:27:48.050	0.00000E+0	0.00000E+0	1.30307E+1	1.40028E+1	0.00000E+0	0.00000E+0	1.95200E+1	1.35000E+1	1.95186E+1	1.35007E+1
440	11/05/2023	14:27:49.475	0.00000E+0	0.00000E+0	9.71553E+0	1.07362E+1	0.00000E+0	0.00000E+0	1.95200E+1	1.35000E+1	1.95221E+1	1.35002E+1
441	11/05/2023	14:27:51.363	0.00000E+0	0.00000E+0	7.20901E+0	7.13857E+0	0.00000E+0	0.00000E+0	1.95200E+1	1.35000E+1	1.95196E+1	1.35016E+1
442	11/05/2023	14:27:52.774	0.00000E+0	0.00000E+0	1.59449E+1	1.59686E+1	0.00000E+0	0.00000E+0	1.95200E+1	1.35000E+1	1.95179E+1	1.35000E+1
443	11/05/2023	14:27:54.170	0.00000E+0	0.00000E+0	1.85621E+1	1.76670E+1	0.00000E+0	0.00000E+0	1.95200E+1	1.35000E+1	1.95190E+1	1.34997E+1
444	11/05/2023	14:27:55.591	0.00000E+0	0.00000E+0	1.27810E+0	2.80691E+0	0.00000E+0	0.00000E+0	1.95200E+1	1.35000E+1	1.95204E+1	1.35006E+1
445	11/05/2023	14:27:57.013	0.00000E+0	0.00000E+0	5.07540E+1	5.30951E+1	0.00000E+0	0.00000E+0	1.95200E+1	1.35000E+1	1.95193E+1	1.34981E+1
446	11/05/2023	14:27:58.433	0.00000E+0	0.00000E+0	-8.08115E+0	-1.35826E+1	0.00000E+0	0.00000E+0	1.95200E+1	1.35000E+1	1.95191E+1	1.35008E+1
447	11/05/2023	14:27:59.855	0.00000E+0	0.00000E+0	-4.22167E+1	-4.13693E+1	0.00000E+0	0.00000E+0	1.95200E+1	1.35000E+1	1.95211E+1	1.35008E+1
448	11/05/2023	14:28:01.274	0.00000E+0	0.00000E+0	-3.28862E+1	-3.34000E+1	0.00000E+0	0.00000E+0	1.95200E+1	1.35000E+1	1.95187E+1	1.34968E+1
449	11/05/2023	14:28:02.687	0.00000E+0	0.00000E+0	-2.53682E+1	-2.44670E+1	0.00000E+0	0.00000E+0	1.95200E+1	1.35000E+1	1.95168E+1	1.34987E+1
450	11/05/2023	14:28:04.162	0.00000E+0	0.00000E+0	-2.72977E+1	-2.82538E+1	0.00000E+0	0.00000E+0	1.95200E+1	1.35000E+1	1.95207E+1	1.34999E+1
451	11/05/2023	14:28:05.557	0.00000E+0	0.00000E+0	-2.46056E+1	-2.48588E+1	0.00000E+0	0.00000E+0	1.95200E+1	1.35000E+1	1.95202E+1	1.34996E+1
452	11/05/2023	14:28:06.975	0.00000E+0	0.00000E+0	-3.73762E+1	-3.54337E+1	0.00000E+0	0.00000E+0	1.95200E+1	1.35000E+1	1.95204E+1	1.34991E+1
453	11/05/2023	14:28:08.412	0.00000E+0	0.00000E+0	3.79453E-1	-6.40176E+0	0.00000E+0	0.00000E+0	1.95200E+1	1.35000E+1	1.95222E+1	1.34989E+1
454	11/05/2023	14:28:09.825	0.00000E+0	0.00000E+0	-2.10762E+1	-2.16750E+1	0.00000E+0	0.00000E+0	1.95200E+1	1.35000E+1	1.95210E+1	1.34989E+1
455	11/05/2023	14:28:11.266	0.00000E+0	0.00000E+0	1.57383E+1	1.90021E+1	0.00000E+0	0.00000E+0	1.95200E+1	1.35000E+1	1.95204E+1	1.35013E+1
456	11/05/2023	14:28:12.684	0.00000E+0	0.00000E+0	2.43095E+1	2.52231E+1	0.00000E+0	0.00000E+0	1.95200E+1	1.35000E+1	1.95169E+1	1.35018E+1
457	11/05/2023	14:28:14.100	0.00000E+0	0.00000E+0	2.67992E+1	2.81254E+1	0.00000E+0	0.00000E+0	1.95200E+1	1.35000E+1	1.95245E+1	1.34990E+1
458	11/05/2023	14:28:15.511	0.00000E+0	0.00000E+0	4.31739E-1	1.54332E+0	0.00000E+0	0.00000E+0	1.95200E+1	1.35000E+1	1.95222E+1	1.34981E+1
459	11/05/2023	14:28:16.946	0.00000E+0	0.00000E+0	3.08031E+1	3.03179E+1	0.00000E+0	0.00000E+0	1.95200E+1	1.35000E+1	1.95207E+1	1.35003E+1
460	11/05/2023	14:28:18.390	0.00000E+0	0.00000E+0	3.21633E+1	3.50526E+1	0.00000E+0	0.00000E+0	1.95200E+1	1.35000E+1	1.95216E+1	1.35003E+1
461	11/05/2023	14:28:19.802	0.00000E+0	0.00000E+0	-3.40685E+0	-3.68053E+0	0.00000E+0	0.00000E+0	1.95200E+1	1.35000E+1	1.95209E+1	1.35007E+1
462	11/05/2023	14:28:21.222	0.00000E+0	0.00000E+0	1.19607E+1	1.08359E+1	0.00000E+0	0.00000E+0	1.95200E+1	1.35000E+1	1.95208E+1	1.35009E+1
463	11/05/2023	14:28:22.670	0.00000E+0	0.00000E+0	-6.59976E+0	-1.29615E+1	0.00000E+0	0.00000E+0	1.95200E+1	1.35000E+1	1.95190E+1	1.35010E+1
464	11/05/2023	14:28:24.237	0.00000E+0	0.00000E+0	-2.15135E+1	-2.09597E+1	0.00000E+0	0.00000E+0	1.95200E+1	1.35000E+1	1.95208E+1	1.34994E+1
465	11/05/2023	14:28:25.654	0.00000E+0	0.00000E+0	-2.52852E+1	-2.85654E+1	0.00000E+0	0.00000E+0	1.95200E+1	1.35000E+1	1.95197E+1	1.35017E+1
466	11/05/2023	14:28:27.053	0.00000E+0	0.00000E+0	-1.91481E+1	-1.88940E+1	0.00000E+0	0.00000E+0	1.95200E+1	1.35000E+1	1.95209E+1	1.35000E+1
467	11/05/2023	14:28:28.482	0.00000E+0	0.00000E+0	-1.76172E+0	6.47195E-1	0.00000E+0	0.00000E+0	1.95200E+1	1.35000E+1	1.95195E+1	1.34990E+1
468	11/05/2023	14:28:29.907	0.00000E+0	0.00000E+0	-3.77312E+1	-4.03699E+1	0.00000E+0	0.00000E+0	1.95200E+1	1.35000E+1	1.95207E+1	1.35009E+1
469	11/05/2023	14:28:31.338	0.00000E+0	0.00000E+0	-1.29734E+1	-1.33277E+1	0.00000E+0	0.00000E+0	1.95200E+1	1.35000E+1	1.95202E+1	1.35016E+1
470	11/05/2023	14:28:32.749	0.00000E+0	0.00000E+0	-1.38093E+1	-1.60759E+1	0.00000E+0	0.00000E+0	1.95200E+1	1.35000E+1	1.95184E+1	1.35008E+1
471	11/05/2023	14:28:34.184	0.00000E+0	0.00000E+0	-1.59872E+1	-1.34254E+1	0.00000E+0	0.00000E+0	1.95200E+1	1.35000E+1	1.95210E+1	1.34987E+1
472	11/05/2023	14:28:35.599	0.00000E+0	0.00000E+0	-2.98601E+1	-3.11934E+1	0.00000E+0	0.00000E+0	1.95200E+1	1.35000E+1	1.95201E+1	1.35031E+1
473	11/05/2023	14:28:36.998	0.00000E+0	0.00000E+0	-6.31103E+0	-3.03004E+0	0.00000E+0	0.00000E+0	1.95200E+1	1.35000E+1	1.95170E+1	1.35021E+1
474	11/05/2023	14:28:38.417	0.00000E+0	0.00000E+0	3.29712E+1	3.30816E+1	0.00000E+0	0.00000E+0	1.95200E+1	1.35000E+1	1.95194E+1	1.34985E+1
475	11/05/2023	14:28:39.842	0.00000E+0	0.00000E+0	1.02751E+1	1.19331E+1	0.00000E+0	0.00000E+0	1.95200E+1	1.35000E+1	1.95199E+1	1.34978E+1
476	11/05/2023	14:28:41.283	0.00000E+0	0.00000E+0	2.23310E+1	2.14096E+1	0.00000E+0	0.00000E+0	1.95200E+1	1.35000E+1	1.95196E+1	1.34981E+1
477	11/05/2023	14:28:42.683	0.00000E+0	0.00000E+0	1.66987E+1	1.84594E+1	0.00000E+0	0.00000E+0	1.95200E+1	1.35000E+1	1.95197E+1	1.34998E+1
478	11/05/2023	14:28:44.102	0.00000E+0	0.00000E+0	1.68327E+0	1.19455E+0	0.00000E+0	0.00000E+0	1.95200E+1	1.35000E+1	1.95210E+1	1.34998E+1
479	11/05/2023	14:28:45.563	0.00000E+0	0.00000E+0	3.45976E+1	3.72798E+1	0.00000E+0	0.00000E+0	1.95200E+1	1.35000E+1	1.95209E+1	1.35011E+1
480	11/05/2023	14:28:46.989	0.00000E+0	0.00000E+0	4.77214E-1	1.87272E+0	0.00000E+0	0.00000E+0	1.95200E+1	1.35000E+1	1.95185E+1	1.35004E+1
481	11/05/2023	14:28:48.397	0.00000E+0	0.00000E+0	2.25808E+1	2.10008E+1	0.00000E+0	0.00000E+0	1.95200E+1	1.35000E+1	1.95184E+1	1.34993E+1
482	11/05/2023	14:28:49.813	0.00000E+0	0.00000E+0	-1.44368E+0	-3.12272E+0	0.00000E+0	0.00000E+0	1.95200E+1	1.35000E+1	1.95206E+1	1.35002E+1
483	11/05/2023	14:28:51.221	0.00000E+0	0.00000E+0	1.74262E+1	1.46455E+1	0.00000E+0	0.00000E+0	1.95200E+1	1.35000E+1	1.95194E+1	1.35000E+1
484	11/05/2023	14:28:52.630	0.00000E+0	0.00000E+0	-3.39855E+1	-3.21535E+1	0.00000E+0	0.00000E+0	1.95200E+1	1.35000E+1	1.95196E+1	1.35020E+1
485	11/05/2023	14:28:54.059	0.00000E+0	0.00000E+0	4.29620E+1	4.59105E+1	0.00000E+0	0.00000E+0	1.95200E+1	1.35000E+1	1.95210E+1	1.35006E+1
486	11/05/2023	14:28:55.475	0.00000E+0	0.00000E+0	1.61727E+1	1.56546E+1	0.00000E+0	0.00000E+0	1.95200E+1	1.35000E+1	1.95193E+1	1.34995E+1
487	11/05/2023	14:28:56.884	0.00000E+0	0.00000E+0	1.47252E+1	1.47409E+1	0.00000E+0	0.00000E+0	1.95200E+1	1.35000E+1	1.95183E+1	1.34999E+1
488	11/05/2023	14:28:58.296	0.00000E+0	0.00000E+0	2.63852E+1	2.71908E+1	0.00000E+0	0.00000E+0	1.95200E+1	1.35000E+1	1.95190E+1	1.35016E+1
489	11/05/2023	14:28:59.728	0.00000E+0	0.00000E+0	-2.74119E+1	-3.13724E+1	0.00000E+0	0.00000E+0	1.95200E+1	1.35000E+1	1.95171E+1	1.34986E+1
490	11/05/2023	14:29:01.146	0.00000E+0	0.00000E+0	-3.26671E+1	-3.41532E+1	0.00000E+0	0.00000E+0	1.95200E+1	1.35000E+1	1.95180E+1	1.34978E+1
491	11/05/2023	14:29:02.570	0.00000E+0	0.00000E+0	-9.93271E+0	-9.09344E+0	0.00000E+0	0.00000E+0	1.95200E+1	1.35000E+1	1.95206E+1	1.35000E+1
492	11/05/2023	14:29:04.010	0.00000E+0	0.00000E+0	-3.63470E+1	-3.66971E+1	0.00000E+0	0.00000E+0	1.95200E+1	1.35000E+1	1.95189E+1	1.34996E+1
493	11/05/2023	14:29:05.431	0.00000E+0	0.00000E+0	-2.25076E+1	-2.25996E+1	0.00000E+0	0.00000E+0	1.95200E+1	1.35000E+1	1.95213E+1	1.34974E+1
494	11/05/2023	14:29:06.860	0.00000E+0	0.00000E+0	-2.06521E+1	-2.12257E+1	0.00000E+0	0.00000E+0	1.95200E+1	1.35000E+1	1.95210E+1	1.34996E+1
495	11/05/2023	14:29:08.285	0.00000E+0	0.00000E+0	-2.87343E+0	-4.05218E+0	0.00000E+0	0.00000E+0	1.95200E+1	1.35000E+1	1.95194E+1	1.35011E+1
496	11/05/2023	14:29:09.690	0.00000E+0	0.00000E+0	-1.96493E+1	-2.15024E+1	0.00000E+0	0.00000E+0	1.95200E+1	1.35000E+1	1.95209E+1	1.35044E+1
497	11/05/2023	14:29:11.132	0.00000E+0	0.00000E+0	-3.85427E+1	-3.92525E+1	0.00000E+0	0.00000E+0	1.95200E+1	1.35000E+1	1.95208E+1	1.34998E+1
498	11/05/2023	14:29:12.541	0.00000E+0	0.00000E+0	1.38840E+1	1.54394E+1	0.00000E+0	0.00000E+0	1.95200E+1	1.35000E+1	1.95205E+1	1.35002E+1
499	11/05/2023	14:29:13.956	0.00000E+0	0.00000E+0	4.60703E+1	4.87824E+1	0.00000E+0	0.00000E+0	1.95200E+1	1.35000E+1	1.95196E+1	1.34989E+1
500	11/05/2023	14:29:15.377	0.00000E+0	0.00000E+0	-1.44240E+0	-1.05270E+0	0.00000E+0	0.00000E+0	1.95200E+1	1.35000E+1	1.95220E+1	1.34980E+1
