#Iteration	Date	Time	RTPhase	NFringe	AccelAxis	AccelMean	AccelTemp
1	11/05/2023	14:17:21.469	5.86709302E+0	-8.73000000E+2	2.00000000E+0	-9.43930799E+0	7.18222600E+6
2	11/05/2023	14:17:22.978	4.02516559E+0	-8.72000000E+2	2.00000000E+0	-9.43930799E+0	7.18222600E+6
3	11/05/2023	14:17:24.446	1.68891285E+0	-8.72000000E+2	2.00000000E+0	-9.43930799E+0	7.18222600E+6
4	11/05/2023	14:17:25.875	3.85182576E+0	-8.72000000E+2	2.00000000E+0	-9.43930799E+0	7.18222600E+6
5	11/05/2023	14:17:27.298	4.29092776E+0	-8.72000000E+2	2.00000000E+0	-9.43930799E+0	7.18222600E+6
6	11/05/2023	14:17:28.753	2.22005370E+0	-8.72000000E+2	2.00000000E+0	-9.43930799E+0	7.18222600E+6
7	11/05/2023	14:17:30.168	3.64320437E+0	-8.72000000E+2	2.00000000E+0	-9.43930799E+0	7.18222600E+6
8	11/05/2023	14:17:31.600	4.45391322E+0	-8.58000000E+2	2.00000000E+0	-9.43930799E+0	7.18222600E+6
9	11/05/2023	14:17:33.009	2.53030131E+0	-8.43000000E+2	2.00000000E+0	-9.43930799E+0	7.18222600E+6
10	11/05/2023	14:17:34.469	5.38312208E+0	-8.27000000E+2	2.00000000E+0	-9.43930799E+0	7.18222600E+6
11	11/05/2023	14:17:35.901	1.44385942E+0	-8.15000000E+2	2.00000000E+0	-9.43930799E+0	7.18222600E+6
12	11/05/2023	14:17:37.306	3.01964118E+0	-8.31000000E+2	2.00000000E+0	-9.43930799E+0	7.18222600E+6
13	11/05/2023	14:17:38.731	2.12916533E+0	-8.47000000E+2	2.00000000E+0	-9.43930799E+0	7.18222600E+6
14	11/05/2023	14:17:40.154	4.45813166E+0	-8.65000000E+2	2.00000000E+0	-9.43930799E+0	7.18222600E+6
15	11/05/2023	14:17:41.564	1.58536914E+0	-8.87000000E+2	2.00000000E+0	-9.43930799E+0	7.18222600E+6
16	11/05/2023	14:17:42.958	5.19137448E+0	-9.02000000E+2	2.00000000E+0	-9.43930799E+0	7.18222600E+6
17	11/05/2023	14:17:44.392	4.56435983E+0	-9.08000000E+2	2.00000000E+0	-9.43930799E+0	7.18222600E+6
18	11/05/2023	14:17:45.855	6.25020472E+0	-9.01000000E+2	2.00000000E+0	-9.43930799E+0	7.18222600E+6
19	11/05/2023	14:17:47.283	3.31378200E+0	-8.44000000E+2	2.00000000E+0	-9.43930799E+0	7.18222600E+6
20	11/05/2023	14:17:48.726	5.76853475E+0	-7.88000000E+2	2.00000000E+0	-9.43930799E+0	7.18222600E+6
21	11/05/2023	14:17:50.147	4.31623844E+0	-8.74000000E+2	2.00000000E+0	-9.43930799E+0	7.18222600E+6
22	11/05/2023	14:17:51.562	2.87314602E+0	-9.07000000E+2	2.00000000E+0	-9.43930799E+0	7.18222600E+6
23	11/05/2023	14:17:53.040	2.27489351E+0	-9.03000000E+2	2.00000000E+0	-9.43930799E+0	7.18222600E+6
24	11/05/2023	14:17:54.478	6.26554453E+0	-8.67000000E+2	2.00000000E+0	-9.43930799E+0	7.18222600E+6
25	11/05/2023	14:17:55.892	3.25970917E-1	-7.79000000E+2	2.00000000E+0	-9.43930799E+0	7.18222600E+6
26	11/05/2023	14:17:57.311	2.69136929E+0	-8.22000000E+2	2.00000000E+0	-9.43930799E+0	7.18222600E+6
27	11/05/2023	14:17:58.740	5.06903951E+0	-8.98000000E+2	2.00000000E+0	-9.43930799E+0	7.18222600E+6
28	11/05/2023	14:18:00.171	6.13285519E+0	-9.02000000E+2	2.00000000E+0	-9.43930799E+0	7.18222600E+6
29	11/05/2023	14:18:01.592	4.42860253E+0	-8.80000000E+2	2.00000000E+0	-9.43930799E+0	7.18222600E+6
30	11/05/2023	14:18:03.044	2.82214115E+0	-7.84000000E+2	2.00000000E+0	-9.43930799E+0	7.18222600E+6
31	11/05/2023	14:18:04.498	4.50760255E+0	-8.36000000E+2	2.00000000E+0	-9.43930799E+0	7.18222600E+6
32	11/05/2023	14:18:05.937	2.84093242E+0	-8.98000000E+2	2.00000000E+0	-9.43930799E+0	7.18222600E+6
33	11/05/2023	14:18:07.335	7.65456413E-1	-9.08000000E+2	2.00000000E+0	-9.43930799E+0	7.18222600E+6
34	11/05/2023	14:18:08.753	2.29790322E+0	-8.83000000E+2	2.00000000E+0	-9.43930799E+0	7.18222600E+6
35	11/05/2023	14:18:10.239	3.04495186E+0	-8.11000000E+2	2.00000000E+0	-9.43930799E+0	7.18222600E+6
36	11/05/2023	14:18:11.764	1.02393218E+0	-8.82000000E+2	2.00000000E+0	-9.43930799E+0	7.18222600E+6
37	11/05/2023	14:18:13.161	4.59427246E-1	-9.05000000E+2	2.00000000E+0	-9.43930799E+0	7.18222600E+6
38	11/05/2023	14:18:14.604	2.14757310E+0	-8.94000000E+2	2.00000000E+0	-9.43930799E+0	7.18222600E+6
39	11/05/2023	14:18:16.056	1.27090308E+0	-8.13000000E+2	2.00000000E+0	-9.43930799E+0	7.18222600E+6
40	11/05/2023	14:18:17.495	4.23953940E+0	-8.11000000E+2	2.00000000E+0	-9.43930799E+0	7.18222600E+6
41	11/05/2023	14:18:18.904	3.14772858E+0	-8.98000000E+2	2.00000000E+0	-9.43930799E+0	7.18222600E+6
42	11/05/2023	14:18:20.308	2.41678673E+0	-9.07000000E+2	2.00000000E+0	-9.43930799E+0	7.18222600E+6
43	11/05/2023	14:18:21.757	3.89439373E+0	-8.96000000E+2	2.00000000E+0	-9.43930799E+0	7.18222600E+6
44	11/05/2023	14:18:23.205	4.75534044E+0	-8.14000000E+2	2.00000000E+0	-9.43930799E+0	7.18222600E+6
45	11/05/2023	14:18:24.617	2.08889834E+0	-7.98000000E+2	2.00000000E+0	-9.43930799E+0	7.18222600E+6
46	11/05/2023	14:18:26.039	2.16981582E+0	-8.82000000E+2	2.00000000E+0	-9.43930799E+0	7.18222600E+6
47	11/05/2023	14:18:27.491	1.19727200E+0	-9.07000000E+2	2.00000000E+0	-9.43930799E+0	7.18222600E+6
48	11/05/2023	14:18:28.927	3.27734995E+0	-8.97000000E+2	2.00000000E+0	-9.43930799E+0	7.18222600E+6
49	11/05/2023	14:18:30.340	1.61950022E+0	-8.33000000E+2	2.00000000E+0	-9.43930799E+0	7.18222600E+6
50	11/05/2023	14:18:31.778	6.25288919E+0	-7.85000000E+2	2.00000000E+0	-9.43930799E+0	7.18222600E+6
51	11/05/2023	14:18:33.184	5.30949100E+0	-8.56000000E+2	2.00000000E+0	-9.43930799E+0	7.18222600E+6
52	11/05/2023	14:18:34.605	5.63201046E+0	-9.06000000E+2	2.00000000E+0	-9.43930799E+0	7.18222600E+6
53	11/05/2023	14:18:36.027	2.63307802E+0	-9.05000000E+2	2.00000000E+0	-9.43930799E+0	7.18222600E+6
54	11/05/2023	14:18:37.452	5.43182597E+0	-8.69000000E+2	2.00000000E+0	-9.43930799E+0	7.18222600E+6
55	11/05/2023	14:18:38.922	4.24337435E+0	-7.91000000E+2	2.00000000E+0	-9.43930799E+0	7.18222600E+6
56	11/05/2023	14:18:40.344	2.74659260E+0	-8.22000000E+2	2.00000000E+0	-9.43930799E+0	7.18222600E+6
57	11/05/2023	14:18:41.770	4.85850065E+0	-8.98000000E+2	2.00000000E+0	-9.43930799E+0	7.18222600E+6
58	11/05/2023	14:18:43.190	1.83272355E+0	-9.06000000E+2	2.00000000E+0	-9.43930799E+0	7.18222600E+6
59	11/05/2023	14:18:44.617	4.16399085E+0	-8.77000000E+2	2.00000000E+0	-9.43930799E+0	7.18222600E+6
60	11/05/2023	14:18:46.022	5.62970949E+0	-8.05000000E+2	2.00000000E+0	-9.43930799E+0	7.18222600E+6
61	11/05/2023	14:18:47.515	5.09051524E+0	-8.18000000E+2	2.00000000E+0	-9.43930799E+0	7.18222600E+6
62	11/05/2023	14:18:48.949	4.52447633E+0	-8.92000000E+2	2.00000000E+0	-9.43930799E+0	7.18222600E+6
63	11/05/2023	14:18:50.358	3.40121890E+0	-9.06000000E+2	2.00000000E+0	-9.43930799E+0	7.18222600E+6
64	11/05/2023	14:18:51.799	6.08760276E+0	-8.94000000E+2	2.00000000E+0	-9.43930799E+0	7.18222600E+6
65	11/05/2023	14:18:53.284	3.98911704E+0	-8.06000000E+2	2.00000000E+0	-9.43930799E+0	7.18222600E+6
66	11/05/2023	14:18:54.701	5.39884538E+0	-8.14000000E+2	2.00000000E+0	-9.43930799E+0	7.18222600E+6
67	11/05/2023	14:18:56.122	3.17150528E+0	-8.92000000E+2	2.00000000E+0	-9.43930799E+0	7.18222600E+6
68	11/05/2023	14:18:57.537	2.00567988E-1	-9.05000000E+2	2.00000000E+0	-9.43930799E+0	7.18222600E+6
69	11/05/2023	14:18:58.970	7.80796221E-1	-8.88000000E+2	2.00000000E+0	-9.43930799E+0	7.18222600E+6
70	11/05/2023	14:19:00.431	2.34699061E+0	-8.14000000E+2	2.00000000E+0	-9.43930799E+0	7.18222600E+6
71	11/05/2023	14:19:01.855	3.16575285E+0	-7.86000000E+2	2.00000000E+0	-9.43930799E+0	7.18222600E+6
72	11/05/2023	14:19:03.246	1.49946622E-1	-8.78000000E+2	2.00000000E+0	-9.43930799E+0	7.18222600E+6
73	11/05/2023	14:19:04.642	3.65317525E+0	-9.06000000E+2	2.00000000E+0	-9.43930799E+0	7.18222600E+6
74	11/05/2023	14:19:06.098	3.82996653E+0	-8.97000000E+2	2.00000000E+0	-9.43930799E+0	7.18222600E+6
75	11/05/2023	14:19:07.509	4.72619481E+0	-8.31000000E+2	2.00000000E+0	-9.43930799E+0	7.18222600E+6
76	11/05/2023	14:19:08.920	1.09756325E+0	-7.73000000E+2	2.00000000E+0	-9.43930799E+0	7.18222600E+6
77	11/05/2023	14:19:10.346	6.49640864E-1	-8.67000000E+2	2.00000000E+0	-9.43930799E+0	7.18222600E+6
78	11/05/2023	14:19:11.798	6.07418042E+0	-9.04000000E+2	2.00000000E+0	-9.43930799E+0	7.18222600E+6
79	11/05/2023	14:19:13.216	2.46318965E+0	-9.01000000E+2	2.00000000E+0	-9.43930799E+0	7.18222600E+6
80	11/05/2023	14:19:14.657	5.15187448E+0	-8.57000000E+2	2.00000000E+0	-9.43930799E+0	7.18222600E+6
81	11/05/2023	14:19:16.076	1.13629627E+0	-7.84000000E+2	2.00000000E+0	-9.43930799E+0	7.18222600E+6
82	11/05/2023	14:19:17.513	5.41571917E+0	-8.06000000E+2	2.00000000E+0	-9.43930799E+0	7.18222600E+6
83	11/05/2023	14:19:18.945	4.37337923E+0	-8.90000000E+2	2.00000000E+0	-9.43930799E+0	7.18222600E+6
84	11/05/2023	14:19:20.354	1.94508764E+0	-9.02000000E+2	2.00000000E+0	-9.43930799E+0	7.18222600E+6
85	11/05/2023	14:19:21.765	1.22258269E+0	-9.08000000E+2	2.00000000E+0	-9.43930799E+0	7.18222600E+6
86	11/05/2023	14:19:23.200	5.29798615E+0	-8.89000000E+2	2.00000000E+0	-9.43930799E+0	7.18222600E+6
87	11/05/2023	14:19:24.611	5.45943762E+0	-8.74000000E+2	2.00000000E+0	-9.43930799E+0	7.18222600E+6
88	11/05/2023	14:19:26.023	1.40512640E+0	-8.55000000E+2	2.00000000E+0	-9.43930799E+0	7.18222600E+6
89	11/05/2023	14:19:27.437	2.37460226E+0	-8.23000000E+2	2.00000000E+0	-9.43930799E+0	7.18222600E+6
90	11/05/2023	14:19:28.863	2.12648087E+0	-7.92000000E+2	2.00000000E+0	-9.43930799E+0	7.18222600E+6
91	11/05/2023	14:19:30.289	1.06189820E+0	-7.84000000E+2	2.00000000E+0	-9.43930799E+0	7.18222600E+6
92	11/05/2023	14:19:31.718	4.87805891E-1	-8.17000000E+2	2.00000000E+0	-9.43930799E+0	7.18222600E+6
93	11/05/2023	14:19:33.142	3.25127228E+0	-8.56000000E+2	2.00000000E+0	-9.43930799E+0	7.18222600E+6
94	11/05/2023	14:19:34.611	1.94432065E+0	-8.85000000E+2	2.00000000E+0	-9.43930799E+0	7.18222600E+6
95	11/05/2023	14:19:36.043	4.04510734E+0	-8.99000000E+2	2.00000000E+0	-9.43930799E+0	7.18222600E+6
96	11/05/2023	14:19:37.467	1.15853899E+0	-9.03000000E+2	2.00000000E+0	-9.43930799E+0	7.18222600E+6
97	11/05/2023	14:19:38.873	5.29913663E+0	-9.07000000E+2	2.00000000E+0	-9.43930799E+0	7.18222600E+6
98	11/05/2023	14:19:40.301	3.37245676E+0	-9.05000000E+2	2.00000000E+0	-9.43930799E+0	7.18222600E+6
99	11/05/2023	14:19:41.741	5.00959776E+0	-9.05000000E+2	2.00000000E+0	-9.43930799E+0	7.18222600E+6
100	11/05/2023	14:19:43.165	3.67848593E+0	-8.80000000E+2	2.00000000E+0	-9.43930799E+0	7.18222600E+6
101	11/05/2023	14:19:44.617	5.53000074E-1	-8.03000000E+2	2.00000000E+0	-9.43930799E+0	7.18222600E+6
102	11/05/2023	14:19:46.066	3.46449561E+0	-8.08000000E+2	2.00000000E+0	-9.43930799E+0	7.18222600E+6
103	11/05/2023	14:19:47.520	4.29514621E-2	-8.95000000E+2	2.00000000E+0	-9.43930799E+0	7.18222600E+6
104	11/05/2023	14:19:48.972	5.69873863E-1	-9.05000000E+2	2.00000000E+0	-9.43930799E+0	7.18222600E+6
105	11/05/2023	14:19:50.406	3.90858305E+0	-8.74000000E+2	2.00000000E+0	-9.43930799E+0	7.18222600E+6
106	11/05/2023	14:19:51.849	1.12977685E+0	-8.01000000E+2	2.00000000E+0	-9.43930799E+0	7.18222600E+6
107	11/05/2023	14:19:53.324	2.31247604E+0	-8.68000000E+2	2.00000000E+0	-9.43930799E+0	7.18222600E+6
108	11/05/2023	14:19:54.767	4.47193749E+0	-9.04000000E+2	2.00000000E+0	-9.43930799E+0	7.18222600E+6
109	11/05/2023	14:19:56.195	5.41955412E+0	-8.49000000E+2	2.00000000E+0	-9.43930799E+0	7.18222600E+6
110	11/05/2023	14:19:57.623	1.78095169E+0	-7.66000000E+2	2.00000000E+0	-9.43930799E+0	7.18222600E+6
111	11/05/2023	14:19:59.044	5.35014149E+0	-8.05000000E+2	2.00000000E+0	-9.43930799E+0	7.18222600E+6
112	11/05/2023	14:20:00.484	2.22427214E+0	-8.89000000E+2	2.00000000E+0	-9.43930799E+0	7.18222600E+6
113	11/05/2023	14:20:01.891	5.66844251E+0	-8.99000000E+2	2.00000000E+0	-9.43930799E+0	7.18222600E+6
114	11/05/2023	14:20:03.325	2.24191292E+0	-8.72000000E+2	2.00000000E+0	-9.43930799E+0	7.18222600E+6
115	11/05/2023	14:20:04.743	5.65540367E+0	-7.92000000E+2	2.00000000E+0	-9.43930799E+0	7.18222600E+6
116	11/05/2023	14:20:06.205	1.50560214E+0	-8.08000000E+2	2.00000000E+0	-9.43930799E+0	7.18222600E+6
117	11/05/2023	14:20:07.626	2.01756823E+0	-8.91000000E+2	2.00000000E+0	-9.43930799E+0	7.18222600E+6
118	11/05/2023	14:20:09.077	6.15471442E+0	-9.00000000E+2	2.00000000E+0	-9.43930799E+0	7.18222600E+6
119	11/05/2023	14:20:10.506	2.50038868E+0	-8.49000000E+2	2.00000000E+0	-9.43930799E+0	7.18222600E+6
120	11/05/2023	14:20:11.918	4.41518020E+0	-7.76000000E+2	2.00000000E+0	-9.43930799E+0	7.18222600E+6
121	11/05/2023	14:20:13.352	5.49433569E+0	-7.82000000E+2	2.00000000E+0	-9.43930799E+0	7.18222600E+6
122	11/05/2023	14:20:14.757	4.11145201E+0	-8.60000000E+2	2.00000000E+0	-9.43930799E+0	7.18222600E+6
123	11/05/2023	14:20:16.175	4.69359772E+0	-9.08000000E+2	2.00000000E+0	-9.43930799E+0	7.18222600E+6
124	11/05/2023	14:20:17.586	3.44340337E+0	-8.97000000E+2	2.00000000E+0	-9.43930799E+0	7.18222600E+6
125	11/05/2023	14:20:19.008	5.52501530E+0	-8.06000000E+2	2.00000000E+0	-9.43930799E+0	7.18222600E+6
126	11/05/2023	14:20:20.413	6.26055909E+0	-8.32000000E+2	2.00000000E+0	-9.43930799E+0	7.18222600E+6
127	11/05/2023	14:20:21.824	5.70679203E+0	-9.08000000E+2	2.00000000E+0	-9.43930799E+0	7.18222600E+6
128	11/05/2023	14:20:23.281	3.23094703E+0	-8.96000000E+2	2.00000000E+0	-9.43930799E+0	7.18222600E+6
129	11/05/2023	14:20:24.705	2.71437900E+0	-8.13000000E+2	2.00000000E+0	-9.43930799E+0	7.18222600E+6
130	11/05/2023	14:20:26.132	1.36217494E+0	-8.15000000E+2	2.00000000E+0	-9.43930799E+0	7.18222600E+6
131	11/05/2023	14:20:27.545	6.14512704E+0	-9.14000000E+2	2.00000000E+0	-9.43930799E+0	7.18222600E+6
132	11/05/2023	14:20:28.961	1.13936423E+0	-9.08000000E+2	2.00000000E+0	-9.43930799E+0	7.18222600E+6
133	11/05/2023	14:20:30.421	3.73409273E+0	-8.30000000E+2	2.00000000E+0	-9.43930799E+0	7.18222600E+6
134	11/05/2023	14:20:31.862	2.66912657E+0	-8.16000000E+2	2.00000000E+0	-9.43930799E+0	7.18222600E+6
135	11/05/2023	14:20:33.274	3.27198102E+0	-9.03000000E+2	2.00000000E+0	-9.43930799E+0	7.18222600E+6
136	11/05/2023	14:20:34.687	1.48335942E+0	-9.04000000E+2	2.00000000E+0	-9.43930799E+0	7.18222600E+6
137	11/05/2023	14:20:36.217	6.22259307E+0	-8.33000000E+2	2.00000000E+0	-9.43930799E+0	7.18222600E+6
138	11/05/2023	14:20:37.649	4.58315110E+0	-7.98000000E+2	2.00000000E+0	-9.43930799E+0	7.18222600E+6
139	11/05/2023	14:20:39.062	1.00974285E+0	-8.96000000E+2	2.00000000E+0	-9.43930799E+0	7.18222600E+6
140	11/05/2023	14:20:40.484	5.99364643E+0	-9.04000000E+2	2.00000000E+0	-9.43930799E+0	7.18222600E+6
141	11/05/2023	14:20:41.956	5.17450069E+0	-8.60000000E+2	2.00000000E+0	-9.43930799E+0	7.18222600E+6
142	11/05/2023	14:20:43.404	2.32589837E+0	-7.76000000E+2	2.00000000E+0	-9.43930799E+0	7.18222600E+6
143	11/05/2023	14:20:44.827	4.23723843E+0	-8.75000000E+2	2.00000000E+0	-9.43930799E+0	7.18222600E+6
144	11/05/2023	14:20:46.244	4.56282585E+0	-9.05000000E+2	2.00000000E+0	-9.43930799E+0	7.18222600E+6
145	11/05/2023	14:20:47.680	5.74590854E+0	-8.84000000E+2	2.00000000E+0	-9.43930799E+0	7.18222600E+6
146	11/05/2023	14:20:49.083	2.41141780E+0	-7.82000000E+2	2.00000000E+0	-9.43930799E+0	7.18222600E+6
147	11/05/2023	14:20:50.524	4.21499571E+0	-8.60000000E+2	2.00000000E+0	-9.43930799E+0	7.18222600E+6
148	11/05/2023	14:20:51.947	1.70770411E+0	-9.05000000E+2	2.00000000E+0	-9.43930799E+0	7.18222600E+6
149	11/05/2023	14:20:53.444	3.78126264E+0	-8.89000000E+2	2.00000000E+0	-9.43930799E+0	7.18222600E+6
150	11/05/2023	14:20:54.866	1.13706326E+0	-7.93000000E+2	2.00000000E+0	-9.43930799E+0	7.18222600E+6
151	11/05/2023	14:20:56.290	4.77106375E+0	-8.50000000E+2	2.00000000E+0	-9.43930799E+0	7.18222600E+6
152	11/05/2023	14:20:57.704	4.13407822E+0	-9.08000000E+2	2.00000000E+0	-9.43930799E+0	7.18222600E+6
153	11/05/2023	14:20:59.129	3.03344701E+0	-8.90000000E+2	2.00000000E+0	-9.43930799E+0	7.18222600E+6
154	11/05/2023	14:21:00.554	2.77113629E+0	-7.91000000E+2	2.00000000E+0	-9.43930799E+0	7.18222600E+6
155	11/05/2023	14:21:02.001	2.38342265E+0	-8.28000000E+2	2.00000000E+0	-9.43930799E+0	7.18222600E+6
156	11/05/2023	14:21:03.433	4.40597632E+0	-9.02000000E+2	2.00000000E+0	-9.43930799E+0	7.18222600E+6
157	11/05/2023	14:21:04.882	3.43074803E+0	-9.04000000E+2	2.00000000E+0	-9.43930799E+0	7.18222600E+6
158	11/05/2023	14:21:06.290	2.48888383E+0	-8.37000000E+2	2.00000000E+0	-9.43930799E+0	7.18222600E+6
159	11/05/2023	14:21:07.709	5.61053473E-1	-7.93000000E+2	2.00000000E+0	-9.43930799E+0	7.18222600E+6
160	11/05/2023	14:21:09.131	3.77244225E+0	-8.90000000E+2	2.00000000E+0	-9.43930799E+0	7.18222600E+6
161	11/05/2023	14:21:10.546	3.21944218E+0	-9.06000000E+2	2.00000000E+0	-9.43930799E+0	7.18222600E+6
162	11/05/2023	14:21:11.957	1.45536427E+0	-8.69000000E+2	2.00000000E+0	-9.43930799E+0	7.18222600E+6
163	11/05/2023	14:21:13.405	5.93919012E+0	-7.78000000E+2	2.00000000E+0	-9.43930799E+0	7.18222600E+6
164	11/05/2023	14:21:14.813	5.71676290E+0	-8.66000000E+2	2.00000000E+0	-9.43930799E+0	7.18222600E+6
165	11/05/2023	14:21:16.218	2.81217028E+0	-9.08000000E+2	2.00000000E+0	-9.43930799E+0	7.18222600E+6
166	11/05/2023	14:21:17.658	5.67956387E+0	-8.84000000E+2	2.00000000E+0	-9.43930799E+0	7.18222600E+6
167	11/05/2023	14:21:19.088	5.65233571E+0	-7.74000000E+2	2.00000000E+0	-9.43930799E+0	7.18222600E+6
168	11/05/2023	14:21:20.515	5.93497167E+0	-8.58000000E+2	2.00000000E+0	-9.43930799E+0	7.18222600E+6
169	11/05/2023	14:21:21.934	3.47830144E+0	-9.06000000E+2	2.00000000E+0	-9.43930799E+0	7.18222600E+6
170	11/05/2023	14:21:23.357	5.42453956E+0	-9.00000000E+2	2.00000000E+0	-9.43930799E+0	7.18222600E+6
171	11/05/2023	14:21:24.822	9.07733131E-1	-8.05000000E+2	2.00000000E+0	-9.43930799E+0	7.18222600E+6
172	11/05/2023	14:21:26.265	4.51488895E+0	-8.05000000E+2	2.00000000E+0	-9.43930799E+0	7.18222600E+6
173	11/05/2023	14:21:27.702	3.34024317E-1	-8.94000000E+2	2.00000000E+0	-9.43930799E+0	7.18222600E+6
174	11/05/2023	14:21:29.126	3.96035490E+0	-9.07000000E+2	2.00000000E+0	-9.43930799E+0	7.18222600E+6
175	11/05/2023	14:21:30.548	3.34101016E+0	-8.86000000E+2	2.00000000E+0	-9.43930799E+0	7.18222600E+6
176	11/05/2023	14:21:32.000	5.22320458E+0	-8.10000000E+2	2.00000000E+0	-9.43930799E+0	7.18222600E+6
177	11/05/2023	14:21:33.424	3.03536448E+0	-8.01000000E+2	2.00000000E+0	-9.43930799E+0	7.18222600E+6
178	11/05/2023	14:21:34.870	4.88266085E+0	-8.54000000E+2	2.00000000E+0	-9.43930799E+0	7.18222600E+6
179	11/05/2023	14:21:36.293	2.91724796E+0	-8.90000000E+2	2.00000000E+0	-9.43930799E+0	7.18222600E+6
180	11/05/2023	14:21:37.711	9.67174887E-1	-9.07000000E+2	2.00000000E+0	-9.43930799E+0	7.18222600E+6
181	11/05/2023	14:21:39.125	1.87950996E+0	-9.09000000E+2	2.00000000E+0	-9.43930799E+0	7.18222600E+6
182	11/05/2023	14:21:40.539	2.60278190E+0	-9.04000000E+2	2.00000000E+0	-9.43930799E+0	7.18222600E+6
183	11/05/2023	14:21:41.965	6.06075809E+0	-8.93000000E+2	2.00000000E+0	-9.43930799E+0	7.18222600E+6
184	11/05/2023	14:21:43.409	4.03245200E+0	-8.68000000E+2	2.00000000E+0	-9.43930799E+0	7.18222600E+6
185	11/05/2023	14:21:44.825	4.02516559E+0	-8.65000000E+2	2.00000000E+0	-9.43930799E+0	7.18222600E+6
186	11/05/2023	14:21:46.228	4.15938891E+0	-8.90000000E+2	2.00000000E+0	-9.43930799E+0	7.18222600E+6
187	11/05/2023	14:21:47.648	3.73831118E+0	-9.00000000E+2	2.00000000E+0	-9.43930799E+0	7.18222600E+6
188	11/05/2023	14:21:49.082	1.50828661E+0	-9.02000000E+2	2.00000000E+0	-9.43930799E+0	7.18222600E+6
189	11/05/2023	14:21:50.499	2.88733534E+0	-8.99000000E+2	2.00000000E+0	-9.43930799E+0	7.18222600E+6
190	11/05/2023	14:21:51.922	2.58322365E+0	-8.83000000E+2	2.00000000E+0	-9.43930799E+0	7.18222600E+6
191	11/05/2023	14:21:53.381	2.82866057E+0	-8.68000000E+2	2.00000000E+0	-9.43930799E+0	7.18222600E+6
192	11/05/2023	14:21:54.974	1.40359242E+0	-8.54000000E+2	2.00000000E+0	-9.43930799E+0	7.18222600E+6
193	11/05/2023	14:21:56.406	4.32544233E+0	-8.23000000E+2	2.00000000E+0	-9.43930799E+0	7.18222600E+6
194	11/05/2023	14:21:57.847	4.56090838E+0	-8.16000000E+2	2.00000000E+0	-9.43930799E+0	7.18222600E+6
195	11/05/2023	14:21:59.278	2.65033531E+0	-8.38000000E+2	2.00000000E+0	-9.43930799E+0	7.18222600E+6
196	11/05/2023	14:22:00.708	1.38825261E+0	-8.63000000E+2	2.00000000E+0	-9.43930799E+0	7.18222600E+6
197	11/05/2023	14:22:02.123	5.42223859E+0	-8.74000000E+2	2.00000000E+0	-9.43930799E+0	7.18222600E+6
198	11/05/2023	14:22:03.574	3.39968492E+0	-8.87000000E+2	2.00000000E+0	-9.43930799E+0	7.18222600E+6
199	11/05/2023	14:22:04.988	1.74528664E+0	-8.94000000E+2	2.00000000E+0	-9.43930799E+0	7.18222600E+6
200	11/05/2023	14:22:06.409	5.71906387E+0	-8.84000000E+2	2.00000000E+0	-9.43930799E+0	7.18222600E+6
201	11/05/2023	14:22:07.841	5.85520467E+0	-8.60000000E+2	2.00000000E+0	-9.43930799E+0	7.18222600E+6
202	11/05/2023	14:22:09.268	5.48858326E+0	-8.40000000E+2	2.00000000E+0	-9.43930799E+0	7.18222600E+6
203	11/05/2023	14:22:10.683	3.97301024E-1	-8.12000000E+2	2.00000000E+0	-9.43930799E+0	7.18222600E+6
204	11/05/2023	14:22:12.129	4.48229186E+0	-7.80000000E+2	2.00000000E+0	-9.43930799E+0	7.18222600E+6
205	11/05/2023	14:22:13.578	1.80319442E+0	-7.44000000E+2	2.00000000E+0	-9.43930799E+0	7.18222600E+6
206	11/05/2023	14:22:15.010	2.76500037E-1	-7.30000000E+2	2.00000000E+0	-9.43930799E+0	7.18222600E+6
207	11/05/2023	14:22:16.433	4.22995202E+0	-7.57000000E+2	2.00000000E+0	-9.43930799E+0	7.18222600E+6
208	11/05/2023	14:22:17.849	3.49594222E+0	-8.07000000E+2	2.00000000E+0	-9.43930799E+0	7.18222600E+6
209	11/05/2023	14:22:19.274	4.50606856E-1	-8.28000000E+2	2.00000000E+0	-9.43930799E+0	7.18222600E+6
210	11/05/2023	14:22:20.782	3.28080141E+0	-8.53000000E+2	2.00000000E+0	-9.43930799E+0	7.18222600E+6
211	11/05/2023	14:22:22.230	7.92684572E-1	-8.65000000E+2	2.00000000E+0	-9.43930799E+0	7.18222600E+6
212	11/05/2023	14:22:23.645	3.65240826E+0	-8.75000000E+2	2.00000000E+0	-9.43930799E+0	7.18222600E+6
213	11/05/2023	14:22:25.061	1.68776236E+0	-8.84000000E+2	2.00000000E+0	-9.43930799E+0	7.18222600E+6
214	11/05/2023	14:22:26.501	1.48067496E+0	-8.93000000E+2	2.00000000E+0	-9.43930799E+0	7.18222600E+6
215	11/05/2023	14:22:27.920	4.83395696E+0	-8.96000000E+2	2.00000000E+0	-9.43930799E+0	7.18222600E+6
216	11/05/2023	14:22:29.334	2.33433526E+0	-8.96000000E+2	2.00000000E+0	-9.43930799E+0	7.18222600E+6
217	11/05/2023	14:22:30.752	4.03973840E+0	-8.91000000E+2	2.00000000E+0	-9.43930799E+0	7.18222600E+6
218	11/05/2023	14:22:32.205	3.57455873E+0	-8.75000000E+2	2.00000000E+0	-9.43930799E+0	7.18222600E+6
219	11/05/2023	14:22:33.627	2.00913134E+0	-8.62000000E+2	2.00000000E+0	-9.43930799E+0	7.18222600E+6
220	11/05/2023	14:22:35.067	4.60884528E+0	-8.53000000E+2	2.00000000E+0	-9.43930799E+0	7.18222600E+6
221	11/05/2023	14:22:36.479	2.53682073E+0	-8.37000000E+2	2.00000000E+0	-9.43930799E+0	7.18222600E+6
222	11/05/2023	14:22:37.913	3.63016553E+0	-8.21000000E+2	2.00000000E+0	-9.43930799E+0	7.18222600E+6
223	11/05/2023	14:22:39.338	4.74575306E+0	-8.06000000E+2	2.00000000E+0	-9.43930799E+0	7.18222600E+6
224	11/05/2023	14:22:40.758	2.09273329E+0	-7.88000000E+2	2.00000000E+0	-9.43930799E+0	7.18222600E+6
225	11/05/2023	14:22:42.181	5.46864151E+0	-7.59000000E+2	2.00000000E+0	-9.43930799E+0	7.18222600E+6
226	11/05/2023	14:22:43.638	5.33058324E-1	-7.27000000E+2	2.00000000E+0	-9.43930799E+0	7.18222600E+6
227	11/05/2023	14:22:45.037	3.26124316E+0	-7.32000000E+2	2.00000000E+0	-9.43930799E+0	7.18222600E+6
228	11/05/2023	14:22:46.463	2.42675761E+0	-8.08000000E+2	2.00000000E+0	-9.43930799E+0	7.18222600E+6
229	11/05/2023	14:22:47.888	5.52654928E+0	-8.57000000E+2	2.00000000E+0	-9.43930799E+0	7.18222600E+6
230	11/05/2023	14:22:49.383	2.68216541E+0	-8.86000000E+2	2.00000000E+0	-9.43930799E+0	7.18222600E+6
231	11/05/2023	14:22:50.782	2.94409263E+0	-9.01000000E+2	2.00000000E+0	-9.43930799E+0	7.18222600E+6
232	11/05/2023	14:22:52.198	5.92039885E+0	-9.07000000E+2	2.00000000E+0	-9.43930799E+0	7.18222600E+6
233	11/05/2023	14:22:53.638	3.66698107E+0	-9.08000000E+2	2.00000000E+0	-9.43930799E+0	7.18222600E+6
234	11/05/2023	14:22:55.068	7.01029220E-1	-9.02000000E+2	2.00000000E+0	-9.43930799E+0	7.18222600E+6
235	11/05/2023	14:22:56.496	2.41717023E+0	-8.79000000E+2	2.00000000E+0	-9.43930799E+0	7.18222600E+6
236	11/05/2023	14:22:57.926	8.88941867E-1	-8.45000000E+2	2.00000000E+0	-9.43930799E+0	7.18222600E+6
237	11/05/2023	14:22:59.362	2.17288379E+0	-8.13000000E+2	2.00000000E+0	-9.43930799E+0	7.18222600E+6
238	11/05/2023	14:23:00.781	3.68155389E-1	-7.98000000E+2	2.00000000E+0	-9.43930799E+0	7.18222600E+6
239	11/05/2023	14:23:02.239	1.25978172E+0	-8.71000000E+2	2.00000000E+0	-9.43930799E+0	7.18222600E+6
240	11/05/2023	14:23:03.660	4.44049089E+0	-9.04000000E+2	2.00000000E+0	-9.43930799E+0	7.18222600E+6
241	11/05/2023	14:23:05.104	1.05154383E+0	-9.04000000E+2	2.00000000E+0	-9.43930799E+0	7.18222600E+6
242	11/05/2023	14:23:06.525	3.71108302E+0	-8.85000000E+2	2.00000000E+0	-9.43930799E+0	7.18222600E+6
243	11/05/2023	14:23:07.949	4.68861228E+0	-8.34000000E+2	2.00000000E+0	-9.43930799E+0	7.18222600E+6
244	11/05/2023	14:23:09.382	6.73034071E-1	-7.82000000E+2	2.00000000E+0	-9.43930799E+0	7.18222600E+6
245	11/05/2023	14:23:10.791	3.27274801E+0	-8.62000000E+2	2.00000000E+0	-9.43930799E+0	7.18222600E+6
246	11/05/2023	14:23:12.212	1.03888849E+0	-9.04000000E+2	2.00000000E+0	-9.43930799E+0	7.18222600E+6
247	11/05/2023	14:23:13.670	3.94348111E+0	-9.07000000E+2	2.00000000E+0	-9.43930799E+0	7.18222600E+6
248	11/05/2023	14:23:15.066	3.21829169E+0	-8.92000000E+2	2.00000000E+0	-9.43930799E+0	7.18222600E+6
249	11/05/2023	14:23:16.462	3.61635971E-1	-8.26000000E+2	2.00000000E+0	-9.43930799E+0	7.18222600E+6
250	11/05/2023	14:23:17.878	8.28349625E-2	-7.75000000E+2	2.00000000E+0	-9.43930799E+0	7.18222600E+6
251	11/05/2023	14:23:19.309	4.21039377E+0	-8.22000000E+2	2.00000000E+0	-9.43930799E+0	7.18222600E+6
252	11/05/2023	14:23:20.738	5.52309783E+0	-8.85000000E+2	2.00000000E+0	-9.43930799E+0	7.18222600E+6
253	11/05/2023	14:23:22.184	3.34906356E+0	-9.06000000E+2	2.00000000E+0	-9.43930799E+0	7.18222600E+6
254	11/05/2023	14:23:23.580	3.67004904E+0	-9.06000000E+2	2.00000000E+0	-9.43930799E+0	7.18222600E+6
255	11/05/2023	14:23:25.034	1.87759248E+0	-8.88000000E+2	2.00000000E+0	-9.43930799E+0	7.18222600E+6
256	11/05/2023	14:23:26.560	5.06443757E+0	-8.14000000E+2	2.00000000E+0	-9.43930799E+0	7.18222600E+6
257	11/05/2023	14:23:28.060	5.20939876E+0	-7.78000000E+2	2.00000000E+0	-9.43930799E+0	7.18222600E+6
258	11/05/2023	14:23:29.496	5.25733566E+0	-8.50000000E+2	2.00000000E+0	-9.43930799E+0	7.18222600E+6
259	11/05/2023	14:23:30.926	1.38326718E+0	-8.98000000E+2	2.00000000E+0	-9.43930799E+0	7.18222600E+6
260	11/05/2023	14:23:32.337	1.44769437E+0	-9.09000000E+2	2.00000000E+0	-9.43930799E+0	7.18222600E+6
261	11/05/2023	14:23:33.786	3.59680145E+0	-8.59000000E+2	2.00000000E+0	-9.43930799E+0	7.18222600E+6
262	11/05/2023	14:23:35.286	2.76576736E+0	-7.83000000E+2	2.00000000E+0	-9.43930799E+0	7.18222600E+6
263	11/05/2023	14:23:36.727	2.37038381E+0	-8.70000000E+2	2.00000000E+0	-9.43930799E+0	7.18222600E+6
264	11/05/2023	14:23:38.148	1.43695650E+0	-9.00000000E+2	2.00000000E+0	-9.43930799E+0	7.18222600E+6
265	11/05/2023	14:23:39.553	5.76623378E+0	-9.01000000E+2	2.00000000E+0	-9.43930799E+0	7.18222600E+6
266	11/05/2023	14:23:40.965	3.49555872E+0	-8.17000000E+2	2.00000000E+0	-9.43930799E+0	7.18222600E+6
267	11/05/2023	14:23:42.401	4.16820930E+0	-8.02000000E+2	2.00000000E+0	-9.43930799E+0	7.18222600E+6
268	11/05/2023	14:23:43.832	4.00062189E+0	-8.88000000E+2	2.00000000E+0	-9.43930799E+0	7.18222600E+6
269	11/05/2023	14:23:45.260	4.54135012E+0	-9.06000000E+2	2.00000000E+0	-9.43930799E+0	7.18222600E+6
270	11/05/2023	14:23:46.682	1.00552441E+0	-8.61000000E+2	2.00000000E+0	-9.43930799E+0	7.18222600E+6
271	11/05/2023	14:23:48.091	4.91525794E+0	-7.84000000E+2	2.00000000E+0	-9.43930799E+0	7.18222600E+6
272	11/05/2023	14:23:49.535	5.01266572E+0	-8.64000000E+2	2.00000000E+0	-9.43930799E+0	7.18222600E+6
273	11/05/2023	14:23:50.955	1.11712151E+0	-9.05000000E+2	2.00000000E+0	-9.43930799E+0	7.18222600E+6
274	11/05/2023	14:23:52.412	8.74752544E-1	-8.99000000E+2	2.00000000E+0	-9.43930799E+0	7.18222600E+6
275	11/05/2023	14:23:53.830	4.74882102E+0	-8.22000000E+2	2.00000000E+0	-9.43930799E+0	7.18222600E+6
276	11/05/2023	14:23:55.251	1.50138370E+0	-8.05000000E+2	2.00000000E+0	-9.43930799E+0	7.18222600E+6
277	11/05/2023	14:23:56.693	2.08621387E+0	-8.97000000E+2	2.00000000E+0	-9.43930799E+0	7.18222600E+6
278	11/05/2023	14:23:58.110	5.76700077E+0	-9.02000000E+2	2.00000000E+0	-9.43930799E+0	7.18222600E+6
279	11/05/2023	14:23:59.537	2.09580125E+0	-8.93000000E+2	2.00000000E+0	-9.43930799E+0	7.18222600E+6
280	11/05/2023	14:24:00.940	5.62165609E+0	-8.01000000E+2	2.00000000E+0	-9.43930799E+0	7.18222600E+6
281	11/05/2023	14:24:02.367	1.87299054E+0	-8.16000000E+2	2.00000000E+0	-9.43930799E+0	7.18222600E+6
282	11/05/2023	14:24:03.780	4.05968016E+0	-9.01000000E+2	2.00000000E+0	-9.43930799E+0	7.18222600E+6
283	11/05/2023	14:24:05.173	4.96741329E+0	-9.06000000E+2	2.00000000E+0	-9.43930799E+0	7.18222600E+6
284	11/05/2023	14:24:06.586	5.62970949E+0	-8.53000000E+2	2.00000000E+0	-9.43930799E+0	7.18222600E+6
285	11/05/2023	14:24:08.083	2.30518963E+0	-7.83000000E+2	2.00000000E+0	-9.43930799E+0	7.18222600E+6
286	11/05/2023	14:24:09.526	5.66345707E+0	-8.81000000E+2	2.00000000E+0	-9.43930799E+0	7.18222600E+6
287	11/05/2023	14:24:10.953	4.22995202E-1	-9.05000000E+2	2.00000000E+0	-9.43930799E+0	7.18222600E+6
288	11/05/2023	14:24:12.407	3.60063640E+0	-8.85000000E+2	2.00000000E+0	-9.43930799E+0	7.18222600E+6
289	11/05/2023	14:24:13.818	2.80871882E+0	-7.90000000E+2	2.00000000E+0	-9.43930799E+0	7.18222600E+6
290	11/05/2023	14:24:15.255	4.39638894E+0	-8.24000000E+2	2.00000000E+0	-9.43930799E+0	7.18222600E+6
291	11/05/2023	14:24:16.669	2.68945182E+0	-8.97000000E+2	2.00000000E+0	-9.43930799E+0	7.18222600E+6
292	11/05/2023	14:24:18.089	3.70226263E+0	-9.05000000E+2	2.00000000E+0	-9.43930799E+0	7.18222600E+6
293	11/05/2023	14:24:19.499	5.45330170E-1	-8.55000000E+2	2.00000000E+0	-9.43930799E+0	7.18222600E+6
294	11/05/2023	14:24:20.971	3.54771407E+0	-7.77000000E+2	2.00000000E+0	-9.43930799E+0	7.18222600E+6
295	11/05/2023	14:24:22.380	3.26316063E+0	-8.81000000E+2	2.00000000E+0	-9.43930799E+0	7.18222600E+6
296	11/05/2023	14:24:23.810	4.21844717E+0	-9.07000000E+2	2.00000000E+0	-9.43930799E+0	7.18222600E+6
297	11/05/2023	14:24:25.269	4.29744718E+0	-8.70000000E+2	2.00000000E+0	-9.43930799E+0	7.18222600E+6
298	11/05/2023	14:24:26.746	3.35328200E+0	-7.83000000E+2	2.00000000E+0	-9.43930799E+0	7.18222600E+6
299	11/05/2023	14:24:28.169	4.82245210E+0	-8.82000000E+2	2.00000000E+0	-9.43930799E+0	7.18222600E+6
300	11/05/2023	14:24:29.584	4.62955402E+0	-9.07000000E+2	2.00000000E+0	-9.43930799E+0	7.18222600E+6
301	11/05/2023	14:24:31.003	3.96879179E+0	-8.88000000E+2	2.00000000E+0	-9.43930799E+0	7.18222600E+6
302	11/05/2023	14:24:32.420	1.66743712E+0	-8.31000000E+2	2.00000000E+0	-9.43930799E+0	7.18222600E+6
303	11/05/2023	14:24:33.840	6.20111734E+0	-8.82000000E+2	2.00000000E+0	-9.43930799E+0	7.18222600E+6
304	11/05/2023	14:24:35.245	1.65900022E+0	-9.03000000E+2	2.00000000E+0	-9.43930799E+0	7.18222600E+6
305	11/05/2023	14:24:36.653	5.44371432E+0	-8.71000000E+2	2.00000000E+0	-9.43930799E+0	7.18222600E+6
306	11/05/2023	14:24:38.122	1.20685938E+0	-8.04000000E+2	2.00000000E+0	-9.43930799E+0	7.18222600E+6
307	11/05/2023	14:24:39.545	2.55024306E-1	-8.86000000E+2	2.00000000E+0	-9.43930799E+0	7.18222600E+6
308	11/05/2023	14:24:40.959	4.17741318E+0	-9.05000000E+2	2.00000000E+0	-9.43930799E+0	7.18222600E+6
309	11/05/2023	14:24:42.379	4.47232099E+0	-8.99000000E+2	2.00000000E+0	-9.43930799E+0	7.18222600E+6
310	11/05/2023	14:24:43.829	4.84277735E+0	-8.27000000E+2	2.00000000E+0	-9.43930799E+0	7.18222600E+6
311	11/05/2023	14:24:45.246	4.82436958E+0	-8.30000000E+2	2.00000000E+0	-9.43930799E+0	7.18222600E+6
312	11/05/2023	14:24:46.670	3.98106364E+0	-8.66000000E+2	2.00000000E+0	-9.43930799E+0	7.18222600E+6
313	11/05/2023	14:24:48.082	3.24283539E+0	-9.00000000E+2	2.00000000E+0	-9.43930799E+0	7.18222600E+6
314	11/05/2023	14:24:49.534	2.03252454E-1	-9.06000000E+2	2.00000000E+0	-9.43930799E+0	7.18222600E+6
315	11/05/2023	14:24:50.952	3.55001504E+0	-8.42000000E+2	2.00000000E+0	-9.43930799E+0	7.18222600E+6
316	11/05/2023	14:24:52.361	3.76362186E+0	-7.90000000E+2	2.00000000E+0	-9.43930799E+0	7.18222600E+6
317	11/05/2023	14:24:53.814	4.81823365E+0	-8.96000000E+2	2.00000000E+0	-9.43930799E+0	7.18222600E+6
318	11/05/2023	14:24:55.243	1.80204393E+0	-9.07000000E+2	2.00000000E+0	-9.43930799E+0	7.18222600E+6
319	11/05/2023	14:24:56.660	5.98329206E+0	-8.62000000E+2	2.00000000E+0	-9.43930799E+0	7.18222600E+6
320	11/05/2023	14:24:58.094	2.14143718E+0	-7.84000000E+2	2.00000000E+0	-9.43930799E+0	7.18222600E+6
321	11/05/2023	14:24:59.522	2.12916533E+0	-8.76000000E+2	2.00000000E+0	-9.43930799E+0	7.18222600E+6
322	11/05/2023	14:25:00.956	5.01726766E+0	-9.06000000E+2	2.00000000E+0	-9.43930799E+0	7.18222600E+6
323	11/05/2023	14:25:02.380	5.84293282E+0	-8.86000000E+2	2.00000000E+0	-9.43930799E+0	7.18222600E+6
324	11/05/2023	14:25:03.777	2.99854895E+0	-7.88000000E+2	2.00000000E+0	-9.43930799E+0	7.18222600E+6
325	11/05/2023	14:25:05.205	3.21368975E+0	-8.43000000E+2	2.00000000E+0	-9.43930799E+0	7.18222600E+6
326	11/05/2023	14:25:06.696	2.83517999E+0	-9.06000000E+2	2.00000000E+0	-9.43930799E+0	7.18222600E+6
327	11/05/2023	14:25:08.121	2.88465087E+0	-8.96000000E+2	2.00000000E+0	-9.43930799E+0	7.18222600E+6
328	11/05/2023	14:25:09.545	3.45414124E+0	-7.98000000E+2	2.00000000E+0	-9.43930799E+0	7.18222600E+6
329	11/05/2023	14:25:10.960	5.85750564E+0	-8.30000000E+2	2.00000000E+0	-9.43930799E+0	7.18222600E+6
330	11/05/2023	14:25:12.370	5.99863187E+0	-9.05000000E+2	2.00000000E+0	-9.43930799E+0	7.18222600E+6
331	11/05/2023	14:25:13.800	3.47254901E+0	-9.01000000E+2	2.00000000E+0	-9.43930799E+0	7.18222600E+6
332	11/05/2023	14:25:15.226	1.39783999E+0	-8.36000000E+2	2.00000000E+0	-9.43930799E+0	7.18222600E+6
333	11/05/2023	14:25:16.635	4.62993751E+0	-7.99000000E+2	2.00000000E+0	-9.43930799E+0	7.18222600E+6
334	11/05/2023	14:25:18.045	2.11612650E+0	-8.93000000E+2	2.00000000E+0	-9.43930799E+0	7.18222600E+6
335	11/05/2023	14:25:19.460	3.85796168E+0	-9.05000000E+2	2.00000000E+0	-9.43930799E+0	7.18222600E+6
336	11/05/2023	14:25:20.898	1.62525264E+0	-8.72000000E+2	2.00000000E+0	-9.43930799E+0	7.18222600E+6
337	11/05/2023	14:25:22.318	1.29467978E+0	-7.84000000E+2	2.00000000E+0	-9.43930799E+0	7.18222600E+6
338	11/05/2023	14:25:23.736	4.63108800E+0	-8.77000000E+2	2.00000000E+0	-9.43930799E+0	7.18222600E+6
339	11/05/2023	14:25:25.147	1.90098569E+0	-9.09000000E+2	2.00000000E+0	-9.43930799E+0	7.18222600E+6
340	11/05/2023	14:25:26.582	6.09757363E+0	-8.97000000E+2	2.00000000E+0	-9.43930799E+0	7.18222600E+6
341	11/05/2023	14:25:28.011	3.16115091E+0	-8.06000000E+2	2.00000000E+0	-9.43930799E+0	7.18222600E+6
342	11/05/2023	14:25:29.429	1.33111183E+0	-8.14000000E+2	2.00000000E+0	-9.43930799E+0	7.18222600E+6
343	11/05/2023	14:25:30.857	5.33365120E+0	-9.01000000E+2	2.00000000E+0	-9.43930799E+0	7.18222600E+6
344	11/05/2023	14:25:32.321	6.10907849E-1	-9.08000000E+2	2.00000000E+0	-9.43930799E+0	7.18222600E+6
345	11/05/2023	14:25:33.761	5.92883575E+0	-8.60000000E+2	2.00000000E+0	-9.43930799E+0	7.18222600E+6
346	11/05/2023	14:25:35.190	2.29445176E+0	-7.65000000E+2	2.00000000E+0	-9.43930799E+0	7.18222600E+6
347	11/05/2023	14:25:36.598	2.52838383E+0	-8.59000000E+2	2.00000000E+0	-9.43930799E+0	7.18222600E+6
348	11/05/2023	14:25:38.030	2.54410714E+0	-9.06000000E+2	2.00000000E+0	-9.43930799E+0	7.18222600E+6
349	11/05/2023	14:25:39.515	4.58660256E-1	-9.03000000E+2	2.00000000E+0	-9.43930799E+0	7.18222600E+6
350	11/05/2023	14:25:40.936	2.25993720E+0	-8.25000000E+2	2.00000000E+0	-9.43930799E+0	7.18222600E+6
351	11/05/2023	14:25:42.345	2.68178191E+0	-8.05000000E+2	2.00000000E+0	-9.43930799E+0	7.18222600E+6
352	11/05/2023	14:25:43.834	2.55944694E+0	-8.97000000E+2	2.00000000E+0	-9.43930799E+0	7.18222600E+6
353	11/05/2023	14:25:45.281	5.49932112E+0	-9.07000000E+2	2.00000000E+0	-9.43930799E+0	7.18222600E+6
354	11/05/2023	14:25:46.728	5.46672403E+0	-8.80000000E+2	2.00000000E+0	-9.43930799E+0	7.18222600E+6
355	11/05/2023	14:25:48.131	4.06313161E+0	-7.75000000E+2	2.00000000E+0	-9.43930799E+0	7.18222600E+6
356	11/05/2023	14:25:49.569	9.58737992E-2	-8.62000000E+2	2.00000000E+0	-9.43930799E+0	7.18222600E+6
357	11/05/2023	14:25:50.978	5.00039387E+0	-9.01000000E+2	2.00000000E+0	-9.43930799E+0	7.18222600E+6
358	11/05/2023	14:25:52.408	4.62878703E+0	-8.94000000E+2	2.00000000E+0	-9.43930799E+0	7.18222600E+6
359	11/05/2023	14:25:53.828	2.50959257E+0	-7.98000000E+2	2.00000000E+0	-9.43930799E+0	7.18222600E+6
360	11/05/2023	14:25:55.249	5.06252010E+0	-8.08000000E+2	2.00000000E+0	-9.43930799E+0	7.18222600E+6
361	11/05/2023	14:25:56.677	4.96242785E-1	-8.98000000E+2	2.00000000E+0	-9.43930799E+0	7.18222600E+6
362	11/05/2023	14:25:58.086	4.17971415E+0	-9.07000000E+2	2.00000000E+0	-9.43930799E+0	7.18222600E+6
363	11/05/2023	14:25:59.502	3.16498586E+0	-8.66000000E+2	2.00000000E+0	-9.43930799E+0	7.18222600E+6
364	11/05/2023	14:26:00.908	3.32682083E+0	-7.92000000E+2	2.00000000E+0	-9.43930799E+0	7.18222600E+6
365	11/05/2023	14:26:02.351	2.58053918E+0	-8.90000000E+2	2.00000000E+0	-9.43930799E+0	7.18222600E+6
366	11/05/2023	14:26:03.789	2.56826733E+0	-9.05000000E+2	2.00000000E+0	-9.43930799E+0	7.18222600E+6
367	11/05/2023	14:26:05.200	2.01143231E+0	-8.81000000E+2	2.00000000E+0	-9.43930799E+0	7.18222600E+6
368	11/05/2023	14:26:06.624	1.65286430E+0	-7.80000000E+2	2.00000000E+0	-9.43930799E+0	7.18222600E+6
369	11/05/2023	14:26:08.044	3.65317525E+0	-8.62000000E+2	2.00000000E+0	-9.43930799E+0	7.18222600E+6
370	11/05/2023	14:26:09.451	6.02777751E+0	-9.05000000E+2	2.00000000E+0	-9.43930799E+0	7.18222600E+6
371	11/05/2023	14:26:10.854	6.17810762E-1	-8.88000000E+2	2.00000000E+0	-9.43930799E+0	7.18222600E+6
372	11/05/2023	14:26:12.304	3.67810243E+0	-7.78000000E+2	2.00000000E+0	-9.43930799E+0	7.18222600E+6
373	11/05/2023	14:26:13.740	5.99671440E+0	-8.48000000E+2	2.00000000E+0	-9.43930799E+0	7.18222600E+6
374	11/05/2023	14:26:15.159	4.45468021E+0	-9.04000000E+2	2.00000000E+0	-9.43930799E+0	7.18222600E+6
375	11/05/2023	14:26:16.581	3.19604897E+0	-8.99000000E+2	2.00000000E+0	-9.43930799E+0	7.18222600E+6
376	11/05/2023	14:26:18.037	2.11229154E+0	-7.98000000E+2	2.00000000E+0	-9.43930799E+0	7.18222600E+6
377	11/05/2023	14:26:19.481	3.96610733E+0	-8.35000000E+2	2.00000000E+0	-9.43930799E+0	7.18222600E+6
378	11/05/2023	14:26:20.893	1.88871385E+0	-9.09000000E+2	2.00000000E+0	-9.43930799E+0	7.18222600E+6
379	11/05/2023	14:26:22.315	1.44002446E+0	-9.05000000E+2	2.00000000E+0	-9.43930799E+0	7.18222600E+6
380	11/05/2023	14:26:23.733	4.62533557E+0	-8.26000000E+2	2.00000000E+0	-9.43930799E+0	7.18222600E+6
381	11/05/2023	14:26:25.164	2.95866544E+0	-7.96000000E+2	2.00000000E+0	-9.43930799E+0	7.18222600E+6
382	11/05/2023	14:26:26.590	3.48443736E+0	-8.86000000E+2	2.00000000E+0	-9.43930799E+0	7.18222600E+6
383	11/05/2023	14:26:28.012	4.35420447E+0	-9.07000000E+2	2.00000000E+0	-9.43930799E+0	7.18222600E+6
384	11/05/2023	14:26:29.433	3.14274314E+0	-8.75000000E+2	2.00000000E+0	-9.43930799E+0	7.18222600E+6
385	11/05/2023	14:26:30.858	3.01120429E+0	-7.90000000E+2	2.00000000E+0	-9.43930799E+0	7.18222600E+6
386	11/05/2023	14:26:32.313	4.82206861E+0	-8.49000000E+2	2.00000000E+0	-9.43930799E+0	7.18222600E+6
387	11/05/2023	14:26:33.738	4.61574819E+0	-9.07000000E+2	2.00000000E+0	-9.43930799E+0	7.18222600E+6
388	11/05/2023	14:26:35.152	2.23961195E-1	-8.96000000E+2	2.00000000E+0	-9.43930799E+0	7.18222600E+6
389	11/05/2023	14:26:36.774	1.14089821E+0	-8.69000000E+2	2.00000000E+0	-9.43930799E+0	7.18222600E+6
390	11/05/2023	14:26:38.190	1.39592252E+0	-8.22000000E+2	2.00000000E+0	-9.43930799E+0	7.18222600E+6
391	11/05/2023	14:26:39.623	5.49241821E+0	-8.11000000E+2	2.00000000E+0	-9.43930799E+0	7.18222600E+6
392	11/05/2023	14:26:41.053	5.68838426E+0	-8.97000000E+2	2.00000000E+0	-9.43930799E+0	7.18222600E+6
393	11/05/2023	14:26:42.457	1.71959246E+0	-9.08000000E+2	2.00000000E+0	-9.43930799E+0	7.18222600E+6
394	11/05/2023	14:26:43.888	1.57501477E+0	-8.92000000E+2	2.00000000E+0	-9.43930799E+0	7.18222600E+6
395	11/05/2023	14:26:45.342	3.27543248E+0	-8.38000000E+2	2.00000000E+0	-9.43930799E+0	7.18222600E+6
396	11/05/2023	14:26:46.751	2.77151979E+0	-7.98000000E+2	2.00000000E+0	-9.43930799E+0	7.18222600E+6
397	11/05/2023	14:26:48.154	5.37660266E-1	-8.48000000E+2	2.00000000E+0	-9.43930799E+0	7.18222600E+6
398	11/05/2023	14:26:49.569	4.04318986E+0	-8.79000000E+2	2.00000000E+0	-9.43930799E+0	7.18222600E+6
399	11/05/2023	14:26:51.007	4.53674818E+0	-8.95000000E+2	2.00000000E+0	-9.43930799E+0	7.18222600E+6
400	11/05/2023	14:26:52.457	5.28801527E+0	-9.05000000E+2	2.00000000E+0	-9.43930799E+0	7.18222600E+6
401	11/05/2023	14:26:53.885	5.79116097E+0	-9.10000000E+2	2.00000000E+0	-9.43930799E+0	7.18222600E+6
402	11/05/2023	14:26:55.292	1.71575751E+0	-9.03000000E+2	2.00000000E+0	-9.43930799E+0	7.18222600E+6
403	11/05/2023	14:26:56.716	1.67587401E+0	-9.01000000E+2	2.00000000E+0	-9.43930799E+0	7.18222600E+6
404	11/05/2023	14:26:58.165	1.88142744E+0	-8.99000000E+2	2.00000000E+0	-9.43930799E+0	7.18222600E+6
405	11/05/2023	14:26:59.571	4.86118512E+0	-8.93000000E+2	2.00000000E+0	-9.43930799E+0	7.18222600E+6
406	11/05/2023	14:27:00.973	2.05898571E+0	-8.77000000E+2	2.00000000E+0	-9.43930799E+0	7.18222600E+6
407	11/05/2023	14:27:02.469	1.26860211E+0	-8.47000000E+2	2.00000000E+0	-9.43930799E+0	7.18222600E+6
408	11/05/2023	14:27:03.920	3.53735970E+0	-8.07000000E+2	2.00000000E+0	-9.43930799E+0	7.18222600E+6
409	11/05/2023	14:27:05.336	3.50821406E+0	-7.84000000E+2	2.00000000E+0	-9.43930799E+0	7.18222600E+6
410	11/05/2023	14:27:06.761	2.13530126E+0	-7.88000000E+2	2.00000000E+0	-9.43930799E+0	7.18222600E+6
411	11/05/2023	14:27:08.179	4.80941327E+0	-8.31000000E+2	2.00000000E+0	-9.43930799E+0	7.18222600E+6
412	11/05/2023	14:27:09.612	4.66713655E-1	-8.67000000E+2	2.00000000E+0	-9.43930799E+0	7.18222600E+6
413	11/05/2023	14:27:11.034	1.19727200E+0	-8.86000000E+2	2.00000000E+0	-9.43930799E+0	7.18222600E+6
414	11/05/2023	14:27:12.442	5.32674829E-1	-9.02000000E+2	2.00000000E+0	-9.43930799E+0	7.18222600E+6
415	11/05/2023	14:27:13.841	1.47185457E+0	-9.05000000E+2	2.00000000E+0	-9.43930799E+0	7.18222600E+6
416	11/05/2023	14:27:15.276	8.80121477E-1	-9.05000000E+2	2.00000000E+0	-9.43930799E+0	7.18222600E+6
417	11/05/2023	14:27:16.693	1.00475742E-1	-9.00000000E+2	2.00000000E+0	-9.43930799E+0	7.18222600E+6
418	11/05/2023	14:27:18.095	3.66122865E+0	-8.91000000E+2	2.00000000E+0	-9.43930799E+0	7.18222600E+6
419	11/05/2023	14:27:19.519	2.06090319E+0	-8.66000000E+2	2.00000000E+0	-9.43930799E+0	7.18222600E+6
420	11/05/2023	14:27:20.946	8.82805943E-1	-8.21000000E+2	2.00000000E+0	-9.43930799E+0	7.18222600E+6
421	11/05/2023	14:27:22.355	6.06727751E+0	-7.70000000E+2	2.00000000E+0	-9.43930799E+0	7.18222600E+6
422	11/05/2023	14:27:23.761	4.64029188E+0	-7.25000000E+2	2.00000000E+0	-9.43930799E+0	7.18222600E+6
423	11/05/2023	14:27:25.205	1.86838860E+0	-8.20000000E+2	2.00000000E+0	-9.43930799E+0	7.18222600E+6
424	11/05/2023	14:27:26.622	2.03099056E+0	-8.85000000E+2	2.00000000E+0	-9.43930799E+0	7.18222600E+6
425	11/05/2023	14:27:28.031	5.11160748E+0	-9.03000000E+2	2.00000000E+0	-9.43930799E+0	7.18222600E+6
426	11/05/2023	14:27:29.488	1.41893223E-1	-8.99000000E+2	2.00000000E+0	-9.43930799E+0	7.18222600E+6
427	11/05/2023	14:27:30.902	1.93204880E+0	-8.86000000E+2	2.00000000E+0	-9.43930799E+0	7.18222600E+6
428	11/05/2023	14:27:32.312	3.62134515E+0	-8.69000000E+2	2.00000000E+0	-9.43930799E+0	7.18222600E+6
429	11/05/2023	14:27:33.728	2.74544212E+0	-8.51000000E+2	2.00000000E+0	-9.43930799E+0	7.18222600E+6
430	11/05/2023	14:27:35.145	1.46686913E+0	-8.27000000E+2	2.00000000E+0	-9.43930799E+0	7.18222600E+6
431	11/05/2023	14:27:36.558	5.22358808E+0	-8.40000000E+2	2.00000000E+0	-9.43930799E+0	7.18222600E+6
432	11/05/2023	14:27:38.013	1.76829635E+0	-8.59000000E+2	2.00000000E+0	-9.43930799E+0	7.18222600E+6
433	11/05/2023	14:27:39.445	5.49471918E+0	-8.68000000E+2	2.00000000E+0	-9.43930799E+0	7.18222600E+6
434	11/05/2023	14:27:40.871	4.62303460E+0	-8.79000000E+2	2.00000000E+0	-9.43930799E+0	7.18222600E+6
435	11/05/2023	14:27:42.301	4.89071425E+0	-8.85000000E+2	2.00000000E+0	-9.43930799E+0	7.18222600E+6
436	11/05/2023	14:27:43.762	5.64466580E+0	-8.95000000E+2	2.00000000E+0	-9.43930799E+0	7.18222600E+6
437	11/05/2023	14:27:45.185	4.24720931E+0	-8.91000000E+2	2.00000000E+0	-9.43930799E+0	7.18222600E+6
438	11/05/2023	14:27:46.614	3.99640345E+0	-8.80000000E+2	2.00000000E+0	-9.43930799E+0	7.18222600E+6
439	11/05/2023	14:27:48.050	1.82467015E+0	-8.74000000E+2	2.00000000E+0	-9.43930799E+0	7.18222600E+6
440	11/05/2023	14:27:49.475	2.20739835E+0	-8.70000000E+2	2.00000000E+0	-9.43930799E+0	7.18222600E+6
441	11/05/2023	14:27:51.363	2.51151004E+0	-8.59000000E+2	2.00000000E+0	-9.43930799E+0	7.18222600E+6
442	11/05/2023	14:27:52.774	8.47140890E-1	-8.50000000E+2	2.00000000E+0	-9.43930799E+0	7.18222600E+6
443	11/05/2023	14:27:54.170	4.22496659E+0	-8.34000000E+2	2.00000000E+0	-9.43930799E+0	7.18222600E+6
444	11/05/2023	14:27:55.591	3.00813633E+0	-8.28000000E+2	2.00000000E+0	-9.43930799E+0	7.18222600E+6
445	11/05/2023	14:27:57.013	1.30541765E+0	-8.07000000E+2	2.00000000E+0	-9.43930799E+0	7.18222600E+6
446	11/05/2023	14:27:58.433	4.14366560E+0	-7.75000000E+2	2.00000000E+0	-9.43930799E+0	7.18222600E+6
447	11/05/2023	14:27:59.855	1.86378666E-1	-8.13000000E+2	2.00000000E+0	-9.43930799E+0	7.18222600E+6
448	11/05/2023	14:28:01.274	3.14159265E+0	-8.36000000E+2	2.00000000E+0	-9.43930799E+0	7.18222600E+6
449	11/05/2023	14:28:02.687	8.57111765E-1	-8.58000000E+2	2.00000000E+0	-9.43930799E+0	7.18222600E+6
450	11/05/2023	14:28:04.162	2.48313140E+0	-8.65000000E+2	2.00000000E+0	-9.43930799E+0	7.18222600E+6
451	11/05/2023	14:28:05.557	3.49325775E+0	-8.78000000E+2	2.00000000E+0	-9.43930799E+0	7.18222600E+6
452	11/05/2023	14:28:06.975	5.79652990E+0	-8.96000000E+2	2.00000000E+0	-9.43930799E+0	7.18222600E+6
453	11/05/2023	14:28:08.412	1.67664100E+0	-8.96000000E+2	2.00000000E+0	-9.43930799E+0	7.18222600E+6
454	11/05/2023	14:28:09.825	4.68592781E+0	-9.03000000E+2	2.00000000E+0	-9.43930799E+0	7.18222600E+6
455	11/05/2023	14:28:11.266	6.14129208E+0	-9.03000000E+2	2.00000000E+0	-9.43930799E+0	7.18222600E+6
456	11/05/2023	14:28:12.684	5.78694252E-1	-8.94000000E+2	2.00000000E+0	-9.43930799E+0	7.18222600E+6
457	11/05/2023	14:28:14.100	4.92484532E+0	-8.87000000E+2	2.00000000E+0	-9.43930799E+0	7.18222600E+6
458	11/05/2023	14:28:15.511	2.35082556E+0	-8.79000000E+2	2.00000000E+0	-9.43930799E+0	7.18222600E+6
459	11/05/2023	14:28:16.946	3.13200527E+0	-8.70000000E+2	2.00000000E+0	-9.43930799E+0	7.18222600E+6
460	11/05/2023	14:28:18.390	5.10892301E+0	-8.60000000E+2	2.00000000E+0	-9.43930799E+0	7.18222600E+6
461	11/05/2023	14:28:19.802	4.53981614E+0	-8.46000000E+2	2.00000000E+0	-9.43930799E+0	7.18222600E+6
462	11/05/2023	14:28:21.222	5.21591817E+0	-8.38000000E+2	2.00000000E+0	-9.43930799E+0	7.18222600E+6
463	11/05/2023	14:28:22.670	1.11213607E-1	-8.28000000E+2	2.00000000E+0	-9.43930799E+0	7.18222600E+6
464	11/05/2023	14:28:24.237	7.67373889E-1	-8.57000000E+2	2.00000000E+0	-9.43930799E+0	7.18222600E+6
465	11/05/2023	14:28:25.654	4.86463657E+0	-8.62000000E+2	2.00000000E+0	-9.43930799E+0	7.18222600E+6
466	11/05/2023	14:28:27.053	5.97523866E+0	-8.75000000E+2	2.00000000E+0	-9.43930799E+0	7.18222600E+6
467	11/05/2023	14:28:28.482	3.68922379E-1	-8.78000000E+2	2.00000000E+0	-9.43930799E+0	7.18222600E+6
468	11/05/2023	14:28:29.907	2.98014118E+0	-8.83000000E+2	2.00000000E+0	-9.43930799E+0	7.18222600E+6
469	11/05/2023	14:28:31.338	6.12403480E+0	-8.97000000E+2	2.00000000E+0	-9.43930799E+0	7.18222600E+6
470	11/05/2023	14:28:32.749	3.70456360E-1	-8.97000000E+2	2.00000000E+0	-9.43930799E+0	7.18222600E+6
471	11/05/2023	14:28:34.184	3.33257326E-1	-9.01000000E+2	2.00000000E+0	-9.43930799E+0	7.18222600E+6
472	11/05/2023	14:28:35.599	9.01213713E-2	-9.04000000E+2	2.00000000E+0	-9.43930799E+0	7.18222600E+6
473	11/05/2023	14:28:36.998	6.21070471E+0	-9.07000000E+2	2.00000000E+0	-9.43930799E+0	7.18222600E+6
474	11/05/2023	14:28:38.417	2.22350515E+0	-9.04000000E+2	2.00000000E+0	-9.43930799E+0	7.18222600E+6
475	11/05/2023	14:28:39.842	5.48014636E+0	-9.02000000E+2	2.00000000E+0	-9.43930799E+0	7.18222600E+6
476	11/05/2023	14:28:41.283	2.06167018E+0	-8.98000000E+2	2.00000000E+0	-9.43930799E+0	7.18222600E+6
477	11/05/2023	14:28:42.683	3.26622859E+0	-8.96000000E+2	2.00000000E+0	-9.43930799E+0	7.18222600E+6
478	11/05/2023	14:28:44.102	3.94348111E+0	-8.92000000E+2	2.00000000E+0	-9.43930799E+0	7.18222600E+6
479	11/05/2023	14:28:45.563	3.87867042E+0	-8.89000000E+2	2.00000000E+0	-9.43930799E+0	7.18222600E+6
480	11/05/2023	14:28:46.989	1.67203906E-1	-8.77000000E+2	2.00000000E+0	-9.43930799E+0	7.18222600E+6
481	11/05/2023	14:28:48.397	3.33218977E+0	-8.69000000E+2	2.00000000E+0	-9.43930799E+0	7.18222600E+6
482	11/05/2023	14:28:49.813	5.83104447E+0	-8.59000000E+2	2.00000000E+0	-9.43930799E+0	7.18222600E+6
483	11/05/2023	14:28:51.221	1.18116521E-1	-8.49000000E+2	2.00000000E+0	-9.43930799E+0	7.18222600E+6
484	11/05/2023	14:28:52.630	5.71637941E+0	-8.61000000E+2	2.00000000E+0	-9.43930799E+0	7.18222600E+6
485	11/05/2023	14:28:54.059	5.64428231E+0	-8.58000000E+2	2.00000000E+0	-9.43930799E+0	7.18222600E+6
486	11/05/2023	14:28:55.475	6.95276792E-1	-8.30000000E+2	2.00000000E+0	-9.43930799E+0	7.18222600E+6
487	11/05/2023	14:28:56.884	4.93788416E+0	-8.25000000E+2	2.00000000E+0	-9.43930799E+0	7.18222600E+6
488	11/05/2023	14:28:58.296	2.25878671E-1	-8.20000000E+2	2.00000000E+0	-9.43930799E+0	7.18222600E+6
489	11/05/2023	14:28:59.728	4.51910740E+0	-8.19000000E+2	2.00000000E+0	-9.43930799E+0	7.18222600E+6
490	11/05/2023	14:29:01.146	3.55269950E+0	-8.42000000E+2	2.00000000E+0	-9.43930799E+0	7.18222600E+6
491	11/05/2023	14:29:02.570	5.45406869E+0	-8.62000000E+2	2.00000000E+0	-9.43930799E+0	7.18222600E+6
492	11/05/2023	14:29:04.010	4.73501520E+0	-8.73000000E+2	2.00000000E+0	-9.43930799E+0	7.18222600E+6
493	11/05/2023	14:29:05.431	5.86364156E-1	-8.89000000E+2	2.00000000E+0	-9.43930799E+0	7.18222600E+6
494	11/05/2023	14:29:06.860	4.26830154E+0	-8.97000000E+2	2.00000000E+0	-9.43930799E+0	7.18222600E+6
495	11/05/2023	14:29:08.285	1.98612163E+0	-9.01000000E+2	2.00000000E+0	-9.43930799E+0	7.18222600E+6
496	11/05/2023	14:29:09.690	4.43090351E+0	-9.02000000E+2	2.00000000E+0	-9.43930799E+0	7.18222600E+6
497	11/05/2023	14:29:11.132	2.71898095E-1	-9.05000000E+2	2.00000000E+0	-9.43930799E+0	7.18222600E+6
498	11/05/2023	14:29:12.541	4.18124813E+0	-9.06000000E+2	2.00000000E+0	-9.43930799E+0	7.18222600E+6
499	11/05/2023	14:29:13.956	3.35519948E+0	-9.02000000E+2	2.00000000E+0	-9.43930799E+0	7.18222600E+6
500	11/05/2023	14:29:15.377	3.04495186E+0	-9.04000000E+2	2.00000000E+0	-9.43930799E+0	7.18222600E+6
