#Iteration	Date	Time	STSX	STSY	RotationRateX	RotationRateY	FrCntX	FrCntY	TiptiltCmd1	TiptiltCmd2	TiptiltMonitor1	TiptiltMonitor2
1	15/03/2023	17:45:13.830	0.00000E+0	0.00000E+0	-1.82412E-1	-2.11815E-1	0.00000E+0	0.00000E+0	2.12478E+1	1.37022E+1	2.12487E+1	1.37019E+1
2	15/03/2023	17:45:15.332	0.00000E+0	0.00000E+0	-1.29190E-1	-2.95972E-1	0.00000E+0	0.00000E+0	2.12470E+1	1.37016E+1	2.12485E+1	1.37032E+1
3	15/03/2023	17:45:16.819	0.00000E+0	0.00000E+0	-3.74118E-1	-1.46896E-1	0.00000E+0	0.00000E+0	2.12466E+1	1.37033E+1	2.12472E+1	1.37044E+1
4	15/03/2023	17:45:18.305	0.00000E+0	0.00000E+0	-2.15679E-1	-3.64138E-1	0.00000E+0	0.00000E+0	2.12407E+1	1.36987E+1	2.12401E+1	1.36990E+1
5	15/03/2023	17:45:19.775	0.00000E+0	0.00000E+0	7.54565E+1	1.67541E+0	0.00000E+0	0.00000E+0	2.22572E+1	1.27501E+1	2.22592E+1	1.27512E+1
6	15/03/2023	17:45:21.234	0.00000E+0	0.00000E+0	7.59162E+1	6.99103E-1	0.00000E+0	0.00000E+0	2.23276E+1	1.26201E+1	2.23279E+1	1.26216E+1
7	15/03/2023	17:45:22.742	0.00000E+0	0.00000E+0	-1.07276E+2	-1.71110E+0	0.00000E+0	0.00000E+0	1.97833E+1	1.52623E+1	1.97832E+1	1.52620E+1
8	15/03/2023	17:45:24.224	0.00000E+0	0.00000E+0	-1.02150E+2	-8.09433E-1	0.00000E+0	0.00000E+0	1.97896E+1	1.51481E+1	1.97893E+1	1.51480E+1
9	15/03/2023	17:45:25.706	0.00000E+0	0.00000E+0	-7.52755E+1	-9.39792E-2	0.00000E+0	0.00000E+0	2.01794E+1	1.47540E+1	2.01818E+1	1.47537E+1
10	15/03/2023	17:45:27.190	0.00000E+0	0.00000E+0	9.67640E+1	9.47253E-1	0.00000E+0	0.00000E+0	2.26446E+1	1.23196E+1	2.26406E+1	1.23219E+1
11	15/03/2023	17:45:28.656	0.00000E+0	0.00000E+0	7.39115E+1	5.36473E-1	0.00000E+0	0.00000E+0	2.22888E+1	1.26925E+1	2.22906E+1	1.26921E+1
12	15/03/2023	17:45:30.144	0.00000E+0	0.00000E+0	8.53323E+1	1.98913E-1	0.00000E+0	0.00000E+0	2.24881E+1	1.24949E+1	2.24840E+1	1.24944E+1
13	15/03/2023	17:45:31.613	0.00000E+0	0.00000E+0	-4.52797E+1	8.44920E-2	0.00000E+0	0.00000E+0	2.06338E+1	1.43090E+1	2.06330E+1	1.43100E+1
14	15/03/2023	17:45:33.110	0.00000E+0	0.00000E+0	-8.15120E+1	2.45121E-2	0.00000E+0	0.00000E+0	2.00851E+1	1.48535E+1	2.00857E+1	1.48537E+1
15	15/03/2023	17:45:34.614	0.00000E+0	0.00000E+0	-8.30096E+1	-1.72473E-1	0.00000E+0	0.00000E+0	2.00643E+1	1.48786E+1	2.00686E+1	1.48794E+1
16	15/03/2023	17:45:36.126	0.00000E+0	0.00000E+0	-3.09817E+1	-6.63727E-1	0.00000E+0	0.00000E+0	2.06788E+1	1.42691E+1	2.06787E+1	1.42693E+1
17	15/03/2023	17:45:37.597	0.00000E+0	0.00000E+0	8.70847E+1	9.65803E-1	0.00000E+0	0.00000E+0	2.25116E+1	1.24560E+1	2.25119E+1	1.24566E+1
18	15/03/2023	17:45:39.092	0.00000E+0	0.00000E+0	9.94179E+1	1.71514E+0	0.00000E+0	0.00000E+0	2.26547E+1	1.23200E+1	2.26536E+1	1.23209E+1
19	15/03/2023	17:45:40.548	0.00000E+0	0.00000E+0	4.81391E+1	7.27812E-1	0.00000E+0	0.00000E+0	2.19317E+1	1.29930E+1	2.19309E+1	1.29919E+1
20	15/03/2023	17:45:42.073	0.00000E+0	0.00000E+0	-6.74769E+1	-2.06915E+0	0.00000E+0	0.00000E+0	2.03179E+1	1.46199E+1	2.03174E+1	1.46208E+1
21	15/03/2023	17:45:43.575	0.00000E+0	0.00000E+0	-9.35234E+1	-1.58677E-1	0.00000E+0	0.00000E+0	1.99372E+1	1.49884E+1	1.99395E+1	1.49893E+1
22	15/03/2023	17:45:45.059	0.00000E+0	0.00000E+0	-6.63522E+1	-5.10040E-1	0.00000E+0	0.00000E+0	2.02539E+1	1.46594E+1	2.02553E+1	1.46585E+1
23	15/03/2023	17:45:46.536	0.00000E+0	0.00000E+0	5.15445E+0	6.35375E-1	0.00000E+0	0.00000E+0	2.11912E+1	1.38004E+1	2.11912E+1	1.37995E+1
24	15/03/2023	17:45:48.033	0.00000E+0	0.00000E+0	9.55561E+1	1.11661E+0	0.00000E+0	0.00000E+0	2.26254E+1	1.23697E+1	2.26241E+1	1.23686E+1
25	15/03/2023	17:45:49.509	0.00000E+0	0.00000E+0	1.03572E+2	2.70718E-1	0.00000E+0	0.00000E+0	2.27220E+1	1.22495E+1	2.27228E+1	1.22504E+1
26	15/03/2023	17:45:50.980	0.00000E+0	0.00000E+0	4.72811E+1	-8.00357E-2	0.00000E+0	0.00000E+0	2.19976E+1	1.29576E+1	2.19971E+1	1.29559E+1
27	15/03/2023	17:45:52.463	0.00000E+0	0.00000E+0	-7.18846E+1	5.82738E-1	0.00000E+0	0.00000E+0	2.01891E+1	1.46858E+1	2.01905E+1	1.46837E+1
28	15/03/2023	17:45:53.957	0.00000E+0	0.00000E+0	-8.98348E+1	-3.03123E-1	0.00000E+0	0.00000E+0	1.99874E+1	1.49759E+1	1.99849E+1	1.49760E+1
29	15/03/2023	17:45:55.431	0.00000E+0	0.00000E+0	-6.12259E+1	-1.05560E-1	0.00000E+0	0.00000E+0	2.03498E+1	1.46171E+1	2.03500E+1	1.46164E+1
30	15/03/2023	17:45:56.903	0.00000E+0	0.00000E+0	-7.46261E+0	-2.46053E-1	0.00000E+0	0.00000E+0	2.09813E+1	1.39420E+1	2.09799E+1	1.39422E+1
31	15/03/2023	17:45:58.369	0.00000E+0	0.00000E+0	1.17241E+2	7.57390E-1	0.00000E+0	0.00000E+0	2.29467E+1	1.20057E+1	2.29478E+1	1.20056E+1
32	15/03/2023	17:45:59.880	0.00000E+0	0.00000E+0	1.00050E+2	4.02677E-1	0.00000E+0	0.00000E+0	2.26966E+1	1.22796E+1	2.26955E+1	1.22810E+1
33	15/03/2023	17:46:01.368	0.00000E+0	0.00000E+0	-4.54572E+1	-3.28903E-1	0.00000E+0	0.00000E+0	2.06877E+1	1.42887E+1	2.06887E+1	1.42915E+1
34	15/03/2023	17:46:02.881	0.00000E+0	0.00000E+0	-8.35769E+1	-5.53854E-1	0.00000E+0	0.00000E+0	2.00737E+1	1.48838E+1	2.00715E+1	1.48841E+1
35	15/03/2023	17:46:04.344	0.00000E+0	0.00000E+0	-7.58136E+1	-1.26903E+0	0.00000E+0	0.00000E+0	2.01618E+1	1.47490E+1	2.01616E+1	1.47492E+1
36	15/03/2023	17:46:05.841	0.00000E+0	0.00000E+0	-5.14093E+1	4.80831E-1	0.00000E+0	0.00000E+0	2.04926E+1	1.44612E+1	2.04950E+1	1.44606E+1
37	15/03/2023	17:46:07.319	0.00000E+0	0.00000E+0	8.60267E+1	3.44137E-1	0.00000E+0	0.00000E+0	2.24852E+1	1.25032E+1	2.24849E+1	1.25029E+1
38	15/03/2023	17:46:08.801	0.00000E+0	0.00000E+0	5.65413E+1	1.23123E+0	0.00000E+0	0.00000E+0	2.20624E+1	1.29118E+1	2.20637E+1	1.29134E+1
39	15/03/2023	17:46:10.288	0.00000E+0	0.00000E+0	7.94515E+1	1.73807E+0	0.00000E+0	0.00000E+0	2.23630E+1	1.25944E+1	2.23619E+1	1.25940E+1
40	15/03/2023	17:46:11.788	0.00000E+0	0.00000E+0	2.18696E+1	3.58753E-1	0.00000E+0	0.00000E+0	2.16446E+1	1.32959E+1	2.16443E+1	1.32970E+1
41	15/03/2023	17:46:13.290	0.00000E+0	0.00000E+0	-7.28915E+1	-9.13451E-3	0.00000E+0	0.00000E+0	2.02122E+1	1.47148E+1	2.02121E+1	1.47139E+1
42	15/03/2023	17:46:14.771	0.00000E+0	0.00000E+0	-8.46688E+1	-8.94773E-1	0.00000E+0	0.00000E+0	2.00026E+1	1.49503E+1	2.00006E+1	1.49509E+1
43	15/03/2023	17:46:16.222	0.00000E+0	0.00000E+0	-5.95640E+1	1.03318E+0	0.00000E+0	0.00000E+0	2.04516E+1	1.45243E+1	2.04512E+1	1.45244E+1
44	15/03/2023	17:46:17.725	0.00000E+0	0.00000E+0	1.33834E+1	1.05670E-1	0.00000E+0	0.00000E+0	2.12871E+1	1.36413E+1	2.12877E+1	1.36427E+1
45	15/03/2023	17:46:19.179	0.00000E+0	0.00000E+0	7.34243E+1	-1.97563E-1	0.00000E+0	0.00000E+0	2.22843E+1	1.26738E+1	2.22842E+1	1.26730E+1
46	15/03/2023	17:46:20.674	0.00000E+0	0.00000E+0	7.93875E+1	8.01620E-1	0.00000E+0	0.00000E+0	2.23656E+1	1.26074E+1	2.23639E+1	1.26086E+1
47	15/03/2023	17:46:22.148	0.00000E+0	0.00000E+0	6.57746E+1	1.21655E+0	0.00000E+0	0.00000E+0	2.21830E+1	1.27683E+1	2.21835E+1	1.27684E+1
48	15/03/2023	17:46:23.615	0.00000E+0	0.00000E+0	-4.07864E+1	4.98156E-1	0.00000E+0	0.00000E+0	2.07409E+1	1.42014E+1	2.07409E+1	1.42034E+1
49	15/03/2023	17:46:25.130	0.00000E+0	0.00000E+0	-7.98274E+1	-5.55822E-1	0.00000E+0	0.00000E+0	2.00972E+1	1.48401E+1	2.00965E+1	1.48388E+1
50	15/03/2023	17:46:26.594	0.00000E+0	0.00000E+0	-6.75483E+1	-1.19351E+0	0.00000E+0	0.00000E+0	2.02354E+1	1.47143E+1	2.02353E+1	1.47142E+1
51	15/03/2023	17:46:28.052	0.00000E+0	0.00000E+0	-6.52868E+1	-7.47675E-1	0.00000E+0	0.00000E+0	2.03377E+1	1.46163E+1	2.03404E+1	1.46158E+1
52	15/03/2023	17:46:29.536	0.00000E+0	0.00000E+0	5.93872E+1	-7.99693E-1	0.00000E+0	0.00000E+0	2.20318E+1	1.28593E+1	2.20338E+1	1.28585E+1
53	15/03/2023	17:46:30.986	0.00000E+0	0.00000E+0	5.71900E+1	5.06307E-1	0.00000E+0	0.00000E+0	2.20476E+1	1.28983E+1	2.20466E+1	1.28968E+1
54	15/03/2023	17:46:32.493	0.00000E+0	0.00000E+0	8.08457E+1	2.20060E-1	0.00000E+0	0.00000E+0	2.23886E+1	1.25989E+1	2.23884E+1	1.25976E+1
55	15/03/2023	17:46:33.990	0.00000E+0	0.00000E+0	5.49231E+1	6.28138E-1	0.00000E+0	0.00000E+0	2.20446E+1	1.29265E+1	2.20421E+1	1.29259E+1
56	15/03/2023	17:46:35.458	0.00000E+0	0.00000E+0	-4.36658E+1	5.07129E-1	0.00000E+0	0.00000E+0	2.07062E+1	1.42475E+1	2.07054E+1	1.42454E+1
57	15/03/2023	17:46:36.929	0.00000E+0	0.00000E+0	-7.94759E+1	-8.41550E-1	0.00000E+0	0.00000E+0	2.00788E+1	1.48562E+1	2.00787E+1	1.48562E+1
58	15/03/2023	17:46:38.401	0.00000E+0	0.00000E+0	-7.71594E+1	1.05271E+0	0.00000E+0	0.00000E+0	2.01316E+1	1.48140E+1	2.01332E+1	1.48117E+1
59	15/03/2023	17:46:39.866	0.00000E+0	0.00000E+0	-5.76730E+1	-1.11567E+0	0.00000E+0	0.00000E+0	2.04364E+1	1.45071E+1	2.04367E+1	1.45082E+1
60	15/03/2023	17:46:41.312	0.00000E+0	0.00000E+0	7.75676E+1	1.28780E+0	0.00000E+0	0.00000E+0	2.22752E+1	1.26962E+1	2.22743E+1	1.26965E+1
61	15/03/2023	17:46:42.794	0.00000E+0	0.00000E+0	9.72947E+1	2.03163E+0	0.00000E+0	0.00000E+0	2.26358E+1	1.23482E+1	2.26369E+1	1.23460E+1
62	15/03/2023	17:46:44.257	0.00000E+0	0.00000E+0	8.96001E+1	3.87042E-1	0.00000E+0	0.00000E+0	2.25283E+1	1.24141E+1	2.25283E+1	1.24147E+1
63	15/03/2023	17:46:45.790	0.00000E+0	0.00000E+0	-4.57265E+1	-3.00296E-1	0.00000E+0	0.00000E+0	2.06408E+1	1.42938E+1	2.06437E+1	1.42950E+1
64	15/03/2023	17:46:47.266	0.00000E+0	0.00000E+0	-7.25394E+1	4.12407E-1	0.00000E+0	0.00000E+0	2.02018E+1	1.47308E+1	2.02020E+1	1.47310E+1
65	15/03/2023	17:46:48.745	0.00000E+0	0.00000E+0	-7.96347E+1	-7.73186E-1	0.00000E+0	0.00000E+0	2.00992E+1	1.48273E+1	2.00982E+1	1.48269E+1
66	15/03/2023	17:46:50.218	0.00000E+0	0.00000E+0	-6.27969E+1	-1.98463E-1	0.00000E+0	0.00000E+0	2.03489E+1	1.45897E+1	2.03487E+1	1.45924E+1
67	15/03/2023	17:46:51.726	0.00000E+0	0.00000E+0	5.45023E+1	1.93355E+0	0.00000E+0	0.00000E+0	2.19866E+1	1.29970E+1	2.19849E+1	1.29971E+1
68	15/03/2023	17:46:53.227	0.00000E+0	0.00000E+0	8.39070E+1	6.45153E-1	0.00000E+0	0.00000E+0	2.24631E+1	1.25405E+1	2.24633E+1	1.25405E+1
69	15/03/2023	17:46:54.694	0.00000E+0	0.00000E+0	7.31693E+1	1.58681E+0	0.00000E+0	0.00000E+0	2.23170E+1	1.26559E+1	2.23163E+1	1.26559E+1
70	15/03/2023	17:46:56.179	0.00000E+0	0.00000E+0	4.69291E+1	2.52417E-1	0.00000E+0	0.00000E+0	2.19525E+1	1.30427E+1	2.19539E+1	1.30413E+1
71	15/03/2023	17:46:57.673	0.00000E+0	0.00000E+0	-7.43724E+1	-2.90611E+0	0.00000E+0	0.00000E+0	2.02169E+1	1.47373E+1	2.02171E+1	1.47384E+1
72	15/03/2023	17:46:59.152	0.00000E+0	0.00000E+0	-6.96084E+1	-3.78031E-1	0.00000E+0	0.00000E+0	2.02850E+1	1.46615E+1	2.02860E+1	1.46607E+1
73	15/03/2023	17:47:00.601	0.00000E+0	0.00000E+0	-6.38156E+1	-1.20761E+0	0.00000E+0	0.00000E+0	2.03515E+1	1.45960E+1	2.03513E+1	1.45961E+1
74	15/03/2023	17:47:02.054	0.00000E+0	0.00000E+0	-6.73952E+1	-4.91299E-1	0.00000E+0	0.00000E+0	2.02923E+1	1.46530E+1	2.02934E+1	1.46542E+1
75	15/03/2023	17:47:03.528	0.00000E+0	0.00000E+0	8.69377E+1	8.47346E-1	0.00000E+0	0.00000E+0	2.23965E+1	1.25271E+1	2.23963E+1	1.25257E+1
76	15/03/2023	17:47:04.970	0.00000E+0	0.00000E+0	9.44181E+1	1.23647E+0	0.00000E+0	0.00000E+0	2.25957E+1	1.23772E+1	2.25969E+1	1.23771E+1
77	15/03/2023	17:47:06.452	0.00000E+0	0.00000E+0	8.04139E+1	-9.80439E-1	0.00000E+0	0.00000E+0	2.23872E+1	1.25410E+1	2.23876E+1	1.25370E+1
78	15/03/2023	17:47:07.933	0.00000E+0	0.00000E+0	-4.55155E+1	1.07857E+0	0.00000E+0	0.00000E+0	2.06600E+1	1.43062E+1	2.06580E+1	1.43077E+1
79	15/03/2023	17:47:09.459	0.00000E+0	0.00000E+0	-7.56154E+1	1.27072E+0	0.00000E+0	0.00000E+0	2.01186E+1	1.47457E+1	2.01183E+1	1.47464E+1
80	15/03/2023	17:47:10.910	0.00000E+0	0.00000E+0	-8.38095E+1	-1.36532E+0	0.00000E+0	0.00000E+0	2.00500E+1	1.49212E+1	2.00492E+1	1.49235E+1
81	15/03/2023	17:47:12.384	0.00000E+0	0.00000E+0	-7.98716E+1	-8.46589E-1	0.00000E+0	0.00000E+0	2.01054E+1	1.48358E+1	2.01058E+1	1.48358E+1
82	15/03/2023	17:47:13.853	0.00000E+0	0.00000E+0	4.58310E+1	1.73588E-2	0.00000E+0	0.00000E+0	2.18903E+1	1.30591E+1	2.18899E+1	1.30593E+1
83	15/03/2023	17:47:15.321	0.00000E+0	0.00000E+0	5.39221E+1	1.01985E+0	0.00000E+0	0.00000E+0	2.20600E+1	1.29385E+1	2.20598E+1	1.29380E+1
84	15/03/2023	17:47:16.803	0.00000E+0	0.00000E+0	8.36030E+1	7.44252E-1	0.00000E+0	0.00000E+0	2.24158E+1	1.25426E+1	2.24162E+1	1.25431E+1
85	15/03/2023	17:47:18.278	0.00000E+0	0.00000E+0	7.65764E+1	3.84683E-1	0.00000E+0	0.00000E+0	2.23592E+1	1.25980E+1	2.23591E+1	1.25969E+1
86	15/03/2023	17:47:19.759	0.00000E+0	0.00000E+0	-3.64344E+1	2.91696E-1	0.00000E+0	0.00000E+0	2.08057E+1	1.41438E+1	2.08052E+1	1.41463E+1
87	15/03/2023	17:47:21.250	0.00000E+0	0.00000E+0	-7.35955E+1	-1.00492E+0	0.00000E+0	0.00000E+0	2.02227E+1	1.47181E+1	2.02245E+1	1.47193E+1
88	15/03/2023	17:47:22.755	0.00000E+0	0.00000E+0	-7.87863E+1	-5.14819E-1	0.00000E+0	0.00000E+0	2.01172E+1	1.48092E+1	2.01177E+1	1.48108E+1
89	15/03/2023	17:47:24.238	0.00000E+0	0.00000E+0	-6.50657E+1	-8.50284E-1	0.00000E+0	0.00000E+0	2.03248E+1	1.46401E+1	2.03228E+1	1.46391E+1
90	15/03/2023	17:47:25.692	0.00000E+0	0.00000E+0	-5.08214E+0	3.46005E-1	0.00000E+0	0.00000E+0	2.10180E+1	1.39157E+1	2.10183E+1	1.39149E+1
91	15/03/2023	17:47:27.198	0.00000E+0	0.00000E+0	7.66463E+1	1.74161E+0	0.00000E+0	0.00000E+0	2.23492E+1	1.26070E+1	2.23490E+1	1.26050E+1
92	15/03/2023	17:47:28.674	0.00000E+0	0.00000E+0	6.05867E+1	1.20332E+0	0.00000E+0	0.00000E+0	2.20835E+1	1.28685E+1	2.20826E+1	1.28671E+1
93	15/03/2023	17:47:30.161	0.00000E+0	0.00000E+0	7.78646E+1	-1.97797E-1	0.00000E+0	0.00000E+0	2.23560E+1	1.26063E+1	2.23571E+1	1.26054E+1
94	15/03/2023	17:47:31.660	0.00000E+0	0.00000E+0	4.54352E+1	5.50139E-1	0.00000E+0	0.00000E+0	2.19606E+1	1.30035E+1	2.19593E+1	1.30022E+1
95	15/03/2023	17:47:33.127	0.00000E+0	0.00000E+0	-7.64495E+1	-9.09367E-2	0.00000E+0	0.00000E+0	2.01958E+1	1.47760E+1	2.01974E+1	1.47764E+1
96	15/03/2023	17:47:34.616	0.00000E+0	0.00000E+0	-7.24372E+1	-1.26961E+0	0.00000E+0	0.00000E+0	2.02263E+1	1.47134E+1	2.02276E+1	1.47114E+1
97	15/03/2023	17:47:36.107	0.00000E+0	0.00000E+0	-6.38916E+1	-6.51492E-1	0.00000E+0	0.00000E+0	2.03547E+1	1.45648E+1	2.03544E+1	1.45634E+1
98	15/03/2023	17:47:37.578	0.00000E+0	0.00000E+0	-7.85948E+1	3.88009E-1	0.00000E+0	0.00000E+0	2.01272E+1	1.48027E+1	2.01261E+1	1.48023E+1
99	15/03/2023	17:47:39.074	0.00000E+0	0.00000E+0	8.46589E+1	-1.13061E+0	0.00000E+0	0.00000E+0	2.23631E+1	1.25723E+1	2.23604E+1	1.25715E+1
100	15/03/2023	17:47:40.547	0.00000E+0	0.00000E+0	1.05314E+2	2.06330E+0	0.00000E+0	0.00000E+0	2.27968E+1	1.22092E+1	2.27965E+1	1.22098E+1
101	15/03/2023	17:47:42.050	0.00000E+0	0.00000E+0	1.00510E+2	1.69895E+0	0.00000E+0	0.00000E+0	2.26803E+1	1.22948E+1	2.26793E+1	1.22954E+1
102	15/03/2023	17:47:43.525	0.00000E+0	0.00000E+0	-5.77296E+1	-1.01565E+0	0.00000E+0	0.00000E+0	2.05287E+1	1.44590E+1	2.05304E+1	1.44618E+1
103	15/03/2023	17:47:45.010	0.00000E+0	0.00000E+0	-8.25613E+1	-2.36492E+0	0.00000E+0	0.00000E+0	2.00741E+1	1.48663E+1	2.00736E+1	1.48644E+1
104	15/03/2023	17:47:46.601	0.00000E+0	0.00000E+0	5.12930E-1	3.27245E-1	0.00000E+0	0.00000E+0	2.12114E+1	1.37418E+1	2.12126E+1	1.37438E+1
105	15/03/2023	17:47:48.112	0.00000E+0	0.00000E+0	2.80744E+1	3.94689E-1	0.00000E+0	0.00000E+0	2.16422E+1	1.33252E+1	2.16424E+1	1.33269E+1
106	15/03/2023	17:47:49.598	0.00000E+0	0.00000E+0	5.48830E+1	-8.98124E-1	0.00000E+0	0.00000E+0	2.20380E+1	1.29100E+1	2.20385E+1	1.29103E+1
107	15/03/2023	17:47:51.103	0.00000E+0	0.00000E+0	4.37959E+1	3.05572E+0	0.00000E+0	0.00000E+0	2.19017E+1	1.30558E+1	2.19027E+1	1.30567E+1
108	15/03/2023	17:47:52.582	0.00000E+0	0.00000E+0	-3.29605E+1	-8.22277E-2	0.00000E+0	0.00000E+0	2.08527E+1	1.41011E+1	2.08508E+1	1.41017E+1
109	15/03/2023	17:47:54.088	0.00000E+0	0.00000E+0	-7.40301E+1	9.67263E-1	0.00000E+0	0.00000E+0	2.01802E+1	1.47924E+1	2.01803E+1	1.47936E+1
110	15/03/2023	17:47:55.594	0.00000E+0	0.00000E+0	-6.53395E+1	-2.66910E-1	0.00000E+0	0.00000E+0	2.03632E+1	1.46512E+1	2.03631E+1	1.46518E+1
111	15/03/2023	17:47:57.078	0.00000E+0	0.00000E+0	-7.48673E+1	3.73769E-1	0.00000E+0	0.00000E+0	2.00640E+1	1.49057E+1	2.00639E+1	1.49058E+1
112	15/03/2023	17:47:58.556	0.00000E+0	0.00000E+0	1.23580E+2	1.77750E-1	0.00000E+0	0.00000E+0	2.30268E+1	1.19345E+1	2.30261E+1	1.19320E+1
113	15/03/2023	17:48:00.046	0.00000E+0	0.00000E+0	9.06863E+1	4.91960E-1	0.00000E+0	0.00000E+0	2.25722E+1	1.23945E+1	2.25731E+1	1.23930E+1
114	15/03/2023	17:48:01.502	0.00000E+0	0.00000E+0	2.21619E+1	7.33718E-3	0.00000E+0	0.00000E+0	2.16866E+1	1.32694E+1	2.16878E+1	1.32674E+1
115	15/03/2023	17:48:02.977	0.00000E+0	0.00000E+0	-8.02072E+1	-1.34437E+0	0.00000E+0	0.00000E+0	2.01378E+1	1.48248E+1	2.01377E+1	1.48272E+1
116	15/03/2023	17:48:04.471	0.00000E+0	0.00000E+0	-8.90815E+1	-1.10801E+0	0.00000E+0	0.00000E+0	1.99617E+1	1.49405E+1	1.99628E+1	1.49397E+1
117	15/03/2023	17:48:05.969	0.00000E+0	0.00000E+0	-6.27778E+1	-1.87945E-1	0.00000E+0	0.00000E+0	2.03914E+1	1.45449E+1	2.03923E+1	1.45433E+1
118	15/03/2023	17:48:07.470	0.00000E+0	0.00000E+0	8.28101E+1	1.44124E-1	0.00000E+0	0.00000E+0	2.23528E+1	1.26389E+1	2.23523E+1	1.26399E+1
119	15/03/2023	17:48:08.960	0.00000E+0	0.00000E+0	7.03393E+1	-9.55928E-1	0.00000E+0	0.00000E+0	2.22418E+1	1.27052E+1	2.22433E+1	1.27060E+1
120	15/03/2023	17:48:10.423	0.00000E+0	0.00000E+0	9.18904E+1	-1.36300E-1	0.00000E+0	0.00000E+0	2.25548E+1	1.24032E+1	2.25561E+1	1.24030E+1
121	15/03/2023	17:48:11.903	0.00000E+0	0.00000E+0	-2.22859E+1	4.41171E-1	0.00000E+0	0.00000E+0	2.09571E+1	1.39668E+1	2.09576E+1	1.39667E+1
122	15/03/2023	17:48:13.416	0.00000E+0	0.00000E+0	-8.16046E+1	-7.59439E-1	0.00000E+0	0.00000E+0	2.01059E+1	1.48279E+1	2.01071E+1	1.48258E+1
123	15/03/2023	17:48:14.900	0.00000E+0	0.00000E+0	-8.92080E+1	-5.81026E-1	0.00000E+0	0.00000E+0	1.99408E+1	1.49755E+1	1.99406E+1	1.49753E+1
124	15/03/2023	17:48:16.342	0.00000E+0	0.00000E+0	-6.25832E+1	-4.84366E-1	0.00000E+0	0.00000E+0	2.03794E+1	1.45617E+1	2.03773E+1	1.45628E+1
125	15/03/2023	17:48:17.848	0.00000E+0	0.00000E+0	9.56129E+1	-1.88385E+0	0.00000E+0	0.00000E+0	2.24705E+1	1.24357E+1	2.24703E+1	1.24373E+1
126	15/03/2023	17:48:19.352	0.00000E+0	0.00000E+0	9.03602E+1	1.10906E+0	0.00000E+0	0.00000E+0	2.25260E+1	1.24326E+1	2.25254E+1	1.24334E+1
127	15/03/2023	17:48:20.829	0.00000E+0	0.00000E+0	7.60490E+1	-1.83180E-1	0.00000E+0	0.00000E+0	2.23733E+1	1.26135E+1	2.23744E+1	1.26149E+1
128	15/03/2023	17:48:22.318	0.00000E+0	0.00000E+0	-3.16764E+1	-5.36822E-1	0.00000E+0	0.00000E+0	2.08435E+1	1.41156E+1	2.08427E+1	1.41165E+1
129	15/03/2023	17:48:23.859	0.00000E+0	0.00000E+0	-8.02646E+1	-1.26534E+0	0.00000E+0	0.00000E+0	2.01101E+1	1.48311E+1	2.01088E+1	1.48307E+1
130	15/03/2023	17:48:25.358	0.00000E+0	0.00000E+0	-7.19269E+1	-1.05801E+0	0.00000E+0	0.00000E+0	2.02482E+1	1.46873E+1	2.02505E+1	1.46864E+1
131	15/03/2023	17:48:26.837	0.00000E+0	0.00000E+0	-6.75405E+1	-3.87248E-1	0.00000E+0	0.00000E+0	2.02262E+1	1.46843E+1	2.02268E+1	1.46856E+1
132	15/03/2023	17:48:28.297	0.00000E+0	0.00000E+0	8.91841E+1	2.28545E-1	0.00000E+0	0.00000E+0	2.25196E+1	1.24420E+1	2.25210E+1	1.24426E+1
133	15/03/2023	17:48:29.792	0.00000E+0	0.00000E+0	7.79873E+1	1.93473E-1	0.00000E+0	0.00000E+0	2.22912E+1	1.26729E+1	2.22916E+1	1.26727E+1
134	15/03/2023	17:48:31.273	0.00000E+0	0.00000E+0	8.36789E+1	7.30220E-1	0.00000E+0	0.00000E+0	2.24405E+1	1.25078E+1	2.24405E+1	1.25064E+1
135	15/03/2023	17:48:32.800	0.00000E+0	0.00000E+0	-7.02221E+1	-1.39518E-1	0.00000E+0	0.00000E+0	2.03220E+1	1.46419E+1	2.03229E+1	1.46419E+1
136	15/03/2023	17:48:34.286	0.00000E+0	0.00000E+0	-1.03588E+2	9.73584E-2	0.00000E+0	0.00000E+0	1.98071E+1	1.51579E+1	1.98101E+1	1.51576E+1
137	15/03/2023	17:48:35.775	0.00000E+0	0.00000E+0	-6.62107E+1	3.75242E-1	0.00000E+0	0.00000E+0	2.03678E+1	1.45843E+1	2.03690E+1	1.45832E+1
138	15/03/2023	17:48:37.265	0.00000E+0	0.00000E+0	3.11147E+1	-1.38776E+0	0.00000E+0	0.00000E+0	2.16530E+1	1.32916E+1	2.16507E+1	1.32894E+1
139	15/03/2023	17:48:38.763	0.00000E+0	0.00000E+0	8.56008E+1	2.24940E-2	0.00000E+0	0.00000E+0	2.24926E+1	1.24782E+1	2.24929E+1	1.24761E+1
140	15/03/2023	17:48:40.225	0.00000E+0	0.00000E+0	9.69783E+1	5.18885E-1	0.00000E+0	0.00000E+0	2.26540E+1	1.23261E+1	2.26532E+1	1.23267E+1
141	15/03/2023	17:48:41.718	0.00000E+0	0.00000E+0	1.08656E+1	-9.66300E-2	0.00000E+0	0.00000E+0	2.15004E+1	1.34544E+1	2.15009E+1	1.34544E+1
142	15/03/2023	17:48:43.162	0.00000E+0	0.00000E+0	-8.73402E+1	3.51970E-1	0.00000E+0	0.00000E+0	2.00261E+1	1.49436E+1	2.00247E+1	1.49437E+1
143	15/03/2023	17:48:44.684	0.00000E+0	0.00000E+0	-8.18996E+1	2.26605E-1	0.00000E+0	0.00000E+0	2.00330E+1	1.48884E+1	2.00357E+1	1.48871E+1
144	15/03/2023	17:48:46.140	0.00000E+0	0.00000E+0	-6.49148E+1	-3.68236E-1	0.00000E+0	0.00000E+0	2.03723E+1	1.45709E+1	2.03712E+1	1.45703E+1
145	15/03/2023	17:48:47.601	0.00000E+0	0.00000E+0	6.60657E+1	-6.00607E-1	0.00000E+0	0.00000E+0	2.21318E+1	1.28400E+1	2.21308E+1	1.28405E+1
146	15/03/2023	17:48:49.095	0.00000E+0	0.00000E+0	8.73978E+1	2.04893E-1	0.00000E+0	0.00000E+0	2.24734E+1	1.24889E+1	2.24722E+1	1.24885E+1
147	15/03/2023	17:48:50.573	0.00000E+0	0.00000E+0	1.06072E+2	1.14699E+0	0.00000E+0	0.00000E+0	2.27784E+1	1.21481E+1	2.27770E+1	1.21477E+1
148	15/03/2023	17:48:52.005	0.00000E+0	0.00000E+0	-5.36206E+1	-1.85582E-2	0.00000E+0	0.00000E+0	2.05370E+1	1.44004E+1	2.05366E+1	1.43988E+1
149	15/03/2023	17:48:53.567	0.00000E+0	0.00000E+0	-7.63018E+1	-4.21675E-2	0.00000E+0	0.00000E+0	2.01574E+1	1.47947E+1	2.01593E+1	1.47942E+1
150	15/03/2023	17:48:55.059	0.00000E+0	0.00000E+0	-7.64759E+1	4.84332E-1	0.00000E+0	0.00000E+0	2.01418E+1	1.47968E+1	2.01441E+1	1.47961E+1
151	15/03/2023	17:48:56.558	0.00000E+0	0.00000E+0	-7.61902E+1	-5.37017E-1	0.00000E+0	0.00000E+0	2.01092E+1	1.48201E+1	2.01096E+1	1.48203E+1
152	15/03/2023	17:48:58.051	0.00000E+0	0.00000E+0	9.36400E+1	8.04410E-2	0.00000E+0	0.00000E+0	2.25658E+1	1.23854E+1	2.25657E+1	1.23857E+1
153	15/03/2023	17:48:59.517	0.00000E+0	0.00000E+0	8.52046E+1	1.80382E+0	0.00000E+0	0.00000E+0	2.24313E+1	1.25327E+1	2.24313E+1	1.25311E+1
154	15/03/2023	17:49:01.008	0.00000E+0	0.00000E+0	6.19528E+1	-1.59787E-1	0.00000E+0	0.00000E+0	2.21338E+1	1.27985E+1	2.21359E+1	1.27971E+1
155	15/03/2023	17:49:02.533	0.00000E+0	0.00000E+0	2.00808E+1	1.30174E+0	0.00000E+0	0.00000E+0	2.16841E+1	1.32934E+1	2.16859E+1	1.32929E+1
156	15/03/2023	17:49:04.046	0.00000E+0	0.00000E+0	-8.59983E+1	1.58974E-1	0.00000E+0	0.00000E+0	1.99958E+1	1.49569E+1	1.99958E+1	1.49597E+1
157	15/03/2023	17:49:05.518	0.00000E+0	0.00000E+0	-4.93055E+1	-8.12645E-1	0.00000E+0	0.00000E+0	2.05866E+1	1.43570E+1	2.05848E+1	1.43554E+1
158	15/03/2023	17:49:06.979	0.00000E+0	0.00000E+0	-8.19885E+1	-1.06950E+0	0.00000E+0	0.00000E+0	2.00756E+1	1.48534E+1	2.00733E+1	1.48540E+1
159	15/03/2023	17:49:08.462	0.00000E+0	0.00000E+0	-6.78418E+1	-7.11644E-1	0.00000E+0	0.00000E+0	2.02258E+1	1.47250E+1	2.02258E+1	1.47270E+1
160	15/03/2023	17:49:09.968	0.00000E+0	0.00000E+0	1.16450E+2	9.38524E-1	0.00000E+0	0.00000E+0	2.29105E+1	1.20380E+1	2.29092E+1	1.20394E+1
161	15/03/2023	17:49:11.433	0.00000E+0	0.00000E+0	1.21870E+2	8.21325E-1	0.00000E+0	0.00000E+0	2.29858E+1	1.19700E+1	2.29851E+1	1.19709E+1
162	15/03/2023	17:49:12.980	0.00000E+0	0.00000E+0	-5.16324E+0	9.81601E-1	0.00000E+0	0.00000E+0	2.12387E+1	1.36962E+1	2.12388E+1	1.36978E+1
163	15/03/2023	17:49:14.436	0.00000E+0	0.00000E+0	-7.57969E+1	-4.37123E-1	0.00000E+0	0.00000E+0	2.01824E+1	1.47386E+1	2.01836E+1	1.47381E+1
164	15/03/2023	17:49:15.923	0.00000E+0	0.00000E+0	-1.10955E+2	-1.57174E+0	0.00000E+0	0.00000E+0	1.96570E+1	1.52652E+1	1.96561E+1	1.52641E+1
165	15/03/2023	17:49:17.405	0.00000E+0	0.00000E+0	-8.88643E+1	-1.03254E+0	0.00000E+0	0.00000E+0	1.99604E+1	1.49535E+1	1.99582E+1	1.49545E+1
166	15/03/2023	17:49:18.892	0.00000E+0	0.00000E+0	5.18174E+1	6.15496E-1	0.00000E+0	0.00000E+0	2.19843E+1	1.29798E+1	2.19838E+1	1.29800E+1
167	15/03/2023	17:49:20.365	0.00000E+0	0.00000E+0	5.65536E+1	3.98334E-1	0.00000E+0	0.00000E+0	2.21213E+1	1.28484E+1	2.21209E+1	1.28472E+1
168	15/03/2023	17:49:21.899	0.00000E+0	0.00000E+0	8.73135E+1	8.92390E-1	0.00000E+0	0.00000E+0	2.24604E+1	1.25327E+1	2.24572E+1	1.25305E+1
169	15/03/2023	17:49:23.342	0.00000E+0	0.00000E+0	6.85497E+1	8.49642E-1	0.00000E+0	0.00000E+0	2.22454E+1	1.27145E+1	2.22447E+1	1.27145E+1
170	15/03/2023	17:49:24.827	0.00000E+0	0.00000E+0	-6.15055E+1	-6.09580E-2	0.00000E+0	0.00000E+0	2.04246E+1	1.45351E+1	2.04240E+1	1.45348E+1
171	15/03/2023	17:49:26.275	0.00000E+0	0.00000E+0	-8.26210E+1	-1.16870E+0	0.00000E+0	0.00000E+0	2.00821E+1	1.48480E+1	2.00828E+1	1.48471E+1
172	15/03/2023	17:49:27.761	0.00000E+0	0.00000E+0	-8.74484E+1	-1.34632E+0	0.00000E+0	0.00000E+0	1.99793E+1	1.49426E+1	1.99817E+1	1.49435E+1
173	15/03/2023	17:49:29.200	0.00000E+0	0.00000E+0	6.64177E+0	1.40924E-1	0.00000E+0	0.00000E+0	2.11975E+1	1.37468E+1	2.11957E+1	1.37463E+1
174	15/03/2023	17:49:30.699	0.00000E+0	0.00000E+0	7.93582E+1	3.90310E-1	0.00000E+0	0.00000E+0	2.23944E+1	1.25634E+1	2.23958E+1	1.25637E+1
175	15/03/2023	17:49:32.173	0.00000E+0	0.00000E+0	7.63114E+1	1.07017E+0	0.00000E+0	0.00000E+0	2.23285E+1	1.26467E+1	2.23296E+1	1.26466E+1
176	15/03/2023	17:49:33.676	0.00000E+0	0.00000E+0	9.58642E+1	7.22192E-1	0.00000E+0	0.00000E+0	2.26500E+1	1.23050E+1	2.26506E+1	1.23035E+1
177	15/03/2023	17:49:35.189	0.00000E+0	0.00000E+0	-6.05894E+1	8.88792E-1	0.00000E+0	0.00000E+0	2.04238E+1	1.45220E+1	2.04230E+1	1.45209E+1
178	15/03/2023	17:49:36.639	0.00000E+0	0.00000E+0	-7.71316E+1	-4.77360E-1	0.00000E+0	0.00000E+0	2.01523E+1	1.47829E+1	2.01521E+1	1.47830E+1
179	15/03/2023	17:49:38.119	0.00000E+0	0.00000E+0	-8.36507E+1	-3.64749E-1	0.00000E+0	0.00000E+0	2.00565E+1	1.48740E+1	2.00554E+1	1.48779E+1
180	15/03/2023	17:49:39.669	0.00000E+0	0.00000E+0	-3.18361E+1	-2.82979E-1	0.00000E+0	0.00000E+0	2.06534E+1	1.42656E+1	2.06546E+1	1.42637E+1
181	15/03/2023	17:49:41.138	0.00000E+0	0.00000E+0	8.54185E+1	1.35260E+0	0.00000E+0	0.00000E+0	2.25314E+1	1.24712E+1	2.25324E+1	1.24727E+1
182	15/03/2023	17:49:42.596	0.00000E+0	0.00000E+0	8.28704E+1	4.39815E-1	0.00000E+0	0.00000E+0	2.24077E+1	1.25379E+1	2.24068E+1	1.25384E+1
183	15/03/2023	17:49:44.105	0.00000E+0	0.00000E+0	9.20727E+1	7.16772E-1	0.00000E+0	0.00000E+0	2.25786E+1	1.23917E+1	2.25799E+1	1.23917E+1
184	15/03/2023	17:49:45.581	0.00000E+0	0.00000E+0	-8.17791E+1	1.20482E-1	0.00000E+0	0.00000E+0	2.01664E+1	1.47811E+1	2.01670E+1	1.47803E+1
185	15/03/2023	17:49:47.083	0.00000E+0	0.00000E+0	-1.27985E+2	2.40600E+0	0.00000E+0	0.00000E+0	1.94542E+1	1.55171E+1	1.94557E+1	1.55174E+1
186	15/03/2023	17:49:48.563	0.00000E+0	0.00000E+0	-8.34156E+1	-3.87702E-1	0.00000E+0	0.00000E+0	2.00646E+1	1.48787E+1	2.00629E+1	1.48792E+1
187	15/03/2023	17:49:50.030	0.00000E+0	0.00000E+0	7.52490E+1	1.09110E+0	0.00000E+0	0.00000E+0	2.23028E+1	1.26582E+1	2.23010E+1	1.26568E+1
188	15/03/2023	17:49:51.494	0.00000E+0	0.00000E+0	8.88355E+1	5.95540E-1	0.00000E+0	0.00000E+0	2.25438E+1	1.24297E+1	2.25462E+1	1.24317E+1
189	15/03/2023	17:49:52.990	0.00000E+0	0.00000E+0	9.33808E+1	1.62647E+0	0.00000E+0	0.00000E+0	2.25599E+1	1.23866E+1	2.25599E+1	1.23842E+1
190	15/03/2023	17:49:54.532	0.00000E+0	0.00000E+0	-2.05345E+1	5.10255E-1	0.00000E+0	0.00000E+0	2.10004E+1	1.39402E+1	2.10009E+1	1.39393E+1
191	15/03/2023	17:49:56.018	0.00000E+0	0.00000E+0	-8.66017E+1	5.27475E-1	0.00000E+0	0.00000E+0	2.00425E+1	1.48970E+1	2.00427E+1	1.48958E+1
192	15/03/2023	17:49:57.478	0.00000E+0	0.00000E+0	-1.01039E+2	-1.42649E+0	0.00000E+0	0.00000E+0	1.97756E+1	1.51466E+1	1.97759E+1	1.51479E+1
193	15/03/2023	17:49:58.945	0.00000E+0	0.00000E+0	-5.80708E+1	1.10534E+0	0.00000E+0	0.00000E+0	2.03773E+1	1.45663E+1	2.03777E+1	1.45662E+1
194	15/03/2023	17:50:00.393	0.00000E+0	0.00000E+0	1.00187E+2	1.95885E+0	0.00000E+0	0.00000E+0	2.26745E+1	1.23045E+1	2.26747E+1	1.23055E+1
195	15/03/2023	17:50:01.893	0.00000E+0	0.00000E+0	1.09002E+2	7.91738E-1	0.00000E+0	0.00000E+0	2.27728E+1	1.21832E+1	2.27763E+1	1.21840E+1
196	15/03/2023	17:50:03.383	0.00000E+0	0.00000E+0	6.91284E+1	1.36211E+0	0.00000E+0	0.00000E+0	2.22764E+1	1.26833E+1	2.22761E+1	1.26840E+1
197	15/03/2023	17:50:04.824	0.00000E+0	0.00000E+0	-9.21675E+1	1.61534E+0	0.00000E+0	0.00000E+0	1.99540E+1	1.49852E+1	1.99510E+1	1.49855E+1
198	15/03/2023	17:50:06.321	0.00000E+0	0.00000E+0	-1.11889E+2	-1.32073E+0	0.00000E+0	0.00000E+0	1.96109E+1	1.53589E+1	1.96096E+1	1.53582E+1
199	15/03/2023	17:50:07.772	0.00000E+0	0.00000E+0	-4.93123E+1	-1.00710E+0	0.00000E+0	0.00000E+0	2.04669E+1	1.44694E+1	2.04677E+1	1.44700E+1
200	15/03/2023	17:50:09.249	0.00000E+0	0.00000E+0	8.30627E+1	1.52243E+0	0.00000E+0	0.00000E+0	2.24506E+1	1.25181E+1	2.24518E+1	1.25165E+1
201	15/03/2023	17:50:10.736	0.00000E+0	0.00000E+0	9.60637E+1	3.47809E-1	0.00000E+0	0.00000E+0	2.25804E+1	1.24020E+1	2.25811E+1	1.24002E+1
202	15/03/2023	17:50:12.200	0.00000E+0	0.00000E+0	6.66191E+1	-7.44596E-1	0.00000E+0	0.00000E+0	2.22455E+1	1.27372E+1	2.22462E+1	1.27382E+1
203	15/03/2023	17:50:13.663	0.00000E+0	0.00000E+0	-7.53721E+1	-1.88196E+0	0.00000E+0	0.00000E+0	2.01968E+1	1.47249E+1	2.01976E+1	1.47256E+1
204	15/03/2023	17:50:15.169	0.00000E+0	0.00000E+0	-1.11634E+2	-7.72553E-1	0.00000E+0	0.00000E+0	1.96751E+1	1.52573E+1	1.96751E+1	1.52573E+1
205	15/03/2023	17:50:16.658	0.00000E+0	0.00000E+0	-8.27542E+1	-5.52261E-1	0.00000E+0	0.00000E+0	2.00675E+1	1.48573E+1	2.00686E+1	1.48564E+1
206	15/03/2023	17:50:18.189	0.00000E+0	0.00000E+0	5.11356E+1	-3.86370E-1	0.00000E+0	0.00000E+0	2.19587E+1	1.29905E+1	2.19583E+1	1.29882E+1
207	15/03/2023	17:50:19.668	0.00000E+0	0.00000E+0	7.78600E+1	8.35557E-1	0.00000E+0	0.00000E+0	2.23583E+1	1.26109E+1	2.23578E+1	1.26130E+1
208	15/03/2023	17:50:21.169	0.00000E+0	0.00000E+0	1.00818E+2	7.73226E-1	0.00000E+0	0.00000E+0	2.27016E+1	1.22713E+1	2.27027E+1	1.22705E+1
209	15/03/2023	17:50:22.654	0.00000E+0	0.00000E+0	3.14619E+1	-8.25148E-1	0.00000E+0	0.00000E+0	2.18116E+1	1.31550E+1	2.18098E+1	1.31552E+1
210	15/03/2023	17:50:24.168	0.00000E+0	0.00000E+0	-8.04219E+1	-1.02748E+0	0.00000E+0	0.00000E+0	2.01261E+1	1.48190E+1	2.01260E+1	1.48181E+1
211	15/03/2023	17:50:25.631	0.00000E+0	0.00000E+0	-9.97711E+1	-8.13501E-1	0.00000E+0	0.00000E+0	1.98054E+1	1.51354E+1	1.98046E+1	1.51333E+1
212	15/03/2023	17:50:27.117	0.00000E+0	0.00000E+0	-8.48223E+1	-2.05957E-1	0.00000E+0	0.00000E+0	2.00672E+1	1.48757E+1	2.00678E+1	1.48765E+1
213	15/03/2023	17:50:28.552	0.00000E+0	0.00000E+0	6.45592E+1	-8.94870E-1	0.00000E+0	0.00000E+0	2.21210E+1	1.28320E+1	2.21190E+1	1.28319E+1
214	15/03/2023	17:50:30.049	0.00000E+0	0.00000E+0	9.25991E+1	9.04047E-1	0.00000E+0	0.00000E+0	2.25858E+1	1.23902E+1	2.25850E+1	1.23900E+1
215	15/03/2023	17:50:31.531	0.00000E+0	0.00000E+0	1.09921E+2	1.59206E+0	0.00000E+0	0.00000E+0	2.28359E+1	1.21540E+1	2.28352E+1	1.21545E+1
216	15/03/2023	17:50:33.018	0.00000E+0	0.00000E+0	-4.49175E+1	-6.23288E-1	0.00000E+0	0.00000E+0	2.06717E+1	1.42689E+1	2.06705E+1	1.42674E+1
217	15/03/2023	17:50:34.527	0.00000E+0	0.00000E+0	-1.03399E+2	-9.28403E-1	0.00000E+0	0.00000E+0	1.97874E+1	1.51591E+1	1.97874E+1	1.51580E+1
218	15/03/2023	17:50:36.022	0.00000E+0	0.00000E+0	-9.02586E+1	5.17562E-1	0.00000E+0	0.00000E+0	1.99375E+1	1.50093E+1	1.99364E+1	1.50089E+1
219	15/03/2023	17:50:37.534	0.00000E+0	0.00000E+0	2.52473E+0	4.90164E-1	0.00000E+0	0.00000E+0	2.11540E+1	1.37995E+1	2.11553E+1	1.37964E+1
220	15/03/2023	17:50:39.022	0.00000E+0	0.00000E+0	1.02485E+2	-7.46827E-1	0.00000E+0	0.00000E+0	2.27995E+1	1.23318E+1	2.27995E+1	1.23322E+1
221	15/03/2023	17:50:40.486	0.00000E+0	0.00000E+0	1.09210E+2	1.50917E+0	0.00000E+0	0.00000E+0	2.27801E+1	1.21968E+1	2.27792E+1	1.21960E+1
222	15/03/2023	17:50:41.981	0.00000E+0	0.00000E+0	7.31114E+1	1.60858E+0	0.00000E+0	0.00000E+0	2.23146E+1	1.26504E+1	2.23128E+1	1.26478E+1
223	15/03/2023	17:50:43.473	0.00000E+0	0.00000E+0	-8.32576E+1	3.68822E+0	0.00000E+0	0.00000E+0	2.00597E+1	1.48139E+1	2.00584E+1	1.48158E+1
224	15/03/2023	17:50:44.917	0.00000E+0	0.00000E+0	-7.13751E+1	-5.30656E-1	0.00000E+0	0.00000E+0	2.02596E+1	1.46768E+1	2.02605E+1	1.46751E+1
225	15/03/2023	17:50:46.398	0.00000E+0	0.00000E+0	-8.14492E+1	5.15217E-1	0.00000E+0	0.00000E+0	2.00844E+1	1.48362E+1	2.00862E+1	1.48362E+1
226	15/03/2023	17:50:47.878	0.00000E+0	0.00000E+0	-6.38939E+1	-3.82678E-1	0.00000E+0	0.00000E+0	2.02819E+1	1.46461E+1	2.02824E+1	1.46498E+1
227	15/03/2023	17:50:49.382	0.00000E+0	0.00000E+0	1.01464E+2	-6.72287E-2	0.00000E+0	0.00000E+0	2.26686E+1	1.23259E+1	2.26683E+1	1.23249E+1
228	15/03/2023	17:50:50.834	0.00000E+0	0.00000E+0	9.22021E+1	-3.87785E-1	0.00000E+0	0.00000E+0	2.25378E+1	1.23947E+1	2.25384E+1	1.23943E+1
229	15/03/2023	17:50:52.331	0.00000E+0	0.00000E+0	8.34676E+1	3.39478E-1	0.00000E+0	0.00000E+0	2.24478E+1	1.25146E+1	2.24461E+1	1.25138E+1
230	15/03/2023	17:50:53.837	0.00000E+0	0.00000E+0	-5.18300E+1	1.17571E+0	0.00000E+0	0.00000E+0	2.05544E+1	1.43709E+1	2.05544E+1	1.43702E+1
231	15/03/2023	17:50:55.308	0.00000E+0	0.00000E+0	-8.86719E+1	4.48081E-1	0.00000E+0	0.00000E+0	1.99995E+1	1.49743E+1	2.00008E+1	1.49745E+1
232	15/03/2023	17:50:56.801	0.00000E+0	0.00000E+0	-8.36906E+1	-4.99323E-1	0.00000E+0	0.00000E+0	2.00764E+1	1.48652E+1	2.00774E+1	1.48652E+1
233	15/03/2023	17:50:58.278	0.00000E+0	0.00000E+0	-3.81376E+1	-7.49232E-1	0.00000E+0	0.00000E+0	2.05941E+1	1.43454E+1	2.05964E+1	1.43471E+1
234	15/03/2023	17:50:59.739	0.00000E+0	0.00000E+0	9.30306E+1	1.46072E+0	0.00000E+0	0.00000E+0	2.25898E+1	1.23818E+1	2.25905E+1	1.23825E+1
235	15/03/2023	17:51:01.208	0.00000E+0	0.00000E+0	9.45326E+1	9.89307E-2	0.00000E+0	0.00000E+0	2.25462E+1	1.24131E+1	2.25461E+1	1.24126E+1
236	15/03/2023	17:51:02.656	0.00000E+0	0.00000E+0	7.81313E+1	8.87689E-1	0.00000E+0	0.00000E+0	2.23834E+1	1.25721E+1	2.23827E+1	1.25714E+1
237	15/03/2023	17:51:04.467	0.00000E+0	0.00000E+0	-6.43212E+1	-2.53007E+0	0.00000E+0	0.00000E+0	2.03369E+1	1.45829E+1	2.03366E+1	1.45845E+1
238	15/03/2023	17:51:05.974	0.00000E+0	0.00000E+0	-9.60008E+1	-1.24995E+0	0.00000E+0	0.00000E+0	1.99237E+1	1.50113E+1	1.99197E+1	1.50105E+1
239	15/03/2023	17:51:07.447	0.00000E+0	0.00000E+0	-9.29282E+1	-3.96230E-1	0.00000E+0	0.00000E+0	1.98897E+1	1.50136E+1	1.98897E+1	1.50140E+1
240	15/03/2023	17:51:08.911	0.00000E+0	0.00000E+0	4.04665E+1	1.11023E+0	0.00000E+0	0.00000E+0	2.18054E+1	1.31826E+1	2.18062E+1	1.31825E+1
241	15/03/2023	17:51:10.399	0.00000E+0	0.00000E+0	8.77638E+1	7.46848E-1	0.00000E+0	0.00000E+0	2.25173E+1	1.24538E+1	2.25153E+1	1.24568E+1
242	15/03/2023	17:51:11.865	0.00000E+0	0.00000E+0	4.53860E+1	-2.89410E-1	0.00000E+0	0.00000E+0	2.18795E+1	1.30297E+1	2.18773E+1	1.30311E+1
