#Iteration	Date	Time	Chirp	Phase	RamanAxis	RTPhase	NFringe	Ratio
1	02/09/2022	14:51:15.516	0.00000000E+0	-3.14159265E+1	5.00000000E+0	2.93680622E+0	-1.23500000E+3	2.78742958E-1
2	02/09/2022	14:51:16.907	0.00000000E+0	-3.12065382E+1	5.00000000E+0	4.92331134E+0	-1.23300000E+3	2.79842756E-1
3	02/09/2022	14:51:18.423	0.00000000E+0	-3.09971498E+1	5.00000000E+0	3.20410237E+0	-1.23400000E+3	3.03328191E-1
4	02/09/2022	14:51:19.836	0.00000000E+0	-3.07877614E+1	5.00000000E+0	3.90781606E-1	-1.23300000E+3	3.31861619E-1
5	02/09/2022	14:51:21.358	0.00000000E+0	-3.05779895E+1	5.00000000E+0	1.55584001E+0	-1.23500000E+3	3.61526538E-1
6	02/09/2022	14:51:22.794	0.00000000E+0	-3.03686012E+1	5.00000000E+0	5.15149098E+0	-1.23300000E+3	3.98751208E-1
7	02/09/2022	14:51:24.167	0.00000000E+0	-3.01592128E+1	5.00000000E+0	2.70095667E+0	-1.23300000E+3	4.22922295E-1
8	02/09/2022	14:51:25.654	0.00000000E+0	-2.99498244E+1	5.00000000E+0	2.61927220E+0	-1.23400000E+3	4.88972896E-1
9	02/09/2022	14:51:27.054	0.00000000E+0	-2.97404360E+1	5.00000000E+0	4.05239375E+0	-1.23500000E+3	5.10309435E-1
10	02/09/2022	14:51:28.510	0.00000000E+0	-2.95310476E+1	5.00000000E+0	6.32767075E-1	-1.23400000E+3	5.50014262E-1
11	02/09/2022	14:51:29.992	0.00000000E+0	-2.93216593E+1	5.00000000E+0	6.07341343E+0	-1.23400000E+3	5.65541435E-1
12	02/09/2022	14:51:31.360	0.00000000E+0	-2.91122709E+1	5.00000000E+0	5.18600555E+0	-1.23400000E+3	5.93664542E-1
13	02/09/2022	14:51:32.895	0.00000000E+0	-2.89024990E+1	5.00000000E+0	4.01864617E+0	-1.23500000E+3	6.19677739E-1
14	02/09/2022	14:51:34.284	0.00000000E+0	-2.86931106E+1	5.00000000E+0	2.61773821E+0	-1.23300000E+3	6.33437980E-1
15	02/09/2022	14:51:35.687	0.00000000E+0	-2.84837223E+1	5.00000000E+0	4.14328211E+0	-1.23500000E+3	6.23150634E-1
16	02/09/2022	14:51:37.166	0.00000000E+0	-2.82743339E+1	5.00000000E+0	2.69060230E+0	-1.23300000E+3	6.23706171E-1
17	02/09/2022	14:51:38.536	0.00000000E+0	-2.80649455E+1	5.00000000E+0	5.86709302E+0	-1.23300000E+3	6.15642862E-1
18	02/09/2022	14:51:39.968	0.00000000E+0	-2.78555571E+1	5.00000000E+0	2.73815571E-1	-1.23500000E+3	5.84944798E-1
19	02/09/2022	14:51:41.464	0.00000000E+0	-2.76461687E+1	5.00000000E+0	3.57187426E+0	-1.23400000E+3	5.73807947E-1
20	02/09/2022	14:51:42.859	0.00000000E+0	-2.74363969E+1	5.00000000E+0	4.80634530E+0	-1.23400000E+3	5.33279313E-1
21	02/09/2022	14:51:44.365	0.00000000E+0	-2.72270085E+1	5.00000000E+0	1.16774287E+0	-1.23300000E+3	4.93296420E-1
22	02/09/2022	14:51:45.796	0.00000000E+0	-2.70176201E+1	5.00000000E+0	6.04503479E+0	-1.23400000E+3	4.57967481E-1
23	02/09/2022	14:51:47.232	0.00000000E+0	-2.68082317E+1	5.00000000E+0	5.90352506E+0	-1.23500000E+3	4.12944293E-1
24	02/09/2022	14:51:48.725	0.00000000E+0	-2.65988434E+1	5.00000000E+0	9.57204012E-1	-1.23500000E+3	3.81726540E-1
25	02/09/2022	14:51:50.123	0.00000000E+0	-2.63894550E+1	5.00000000E+0	3.23593247E+0	-1.23300000E+3	3.51998574E-1
26	02/09/2022	14:51:51.578	0.00000000E+0	-2.61800666E+1	5.00000000E+0	4.96472882E+0	-1.23300000E+3	3.25234470E-1
27	02/09/2022	14:51:53.079	0.00000000E+0	-2.59706782E+1	5.00000000E+0	2.82405863E+0	-1.23300000E+3	2.97041470E-1
28	02/09/2022	14:51:54.476	0.00000000E+0	-2.57609064E+1	5.00000000E+0	1.32497591E+0	-1.23500000E+3	2.80847580E-1
29	02/09/2022	14:51:55.981	0.00000000E+0	-2.55515180E+1	5.00000000E+0	3.83686945E+0	-1.23500000E+3	2.74541427E-1
30	02/09/2022	14:51:57.371	0.00000000E+0	-2.53421296E+1	5.00000000E+0	1.25939823E+0	-1.23300000E+3	2.71385912E-1
31	02/09/2022	14:51:58.839	0.00000000E+0	-2.51327412E+1	5.00000000E+0	5.34822402E+0	-1.23300000E+3	2.72408807E-1
32	02/09/2022	14:52:00.351	0.00000000E+0	-2.49233529E+1	5.00000000E+0	8.39854481E-2	-1.23300000E+3	2.91896147E-1
33	02/09/2022	14:52:01.739	0.00000000E+0	-2.47139645E+1	5.00000000E+0	3.17534023E+0	-1.23500000E+3	3.05164019E-1
34	02/09/2022	14:52:03.196	0.00000000E+0	-2.45045761E+1	5.00000000E+0	3.62249563E+0	-1.23500000E+3	3.51875016E-1
35	02/09/2022	14:52:04.596	0.00000000E+0	-2.42948042E+1	5.00000000E+0	3.08406837E+0	-1.23400000E+3	3.63267211E-1
36	02/09/2022	14:52:05.995	0.00000000E+0	-2.40854158E+1	5.00000000E+0	4.91065600E+0	-1.23300000E+3	4.01620454E-1
37	02/09/2022	14:52:07.550	0.00000000E+0	-2.38760275E+1	5.00000000E+0	1.35258756E+0	-1.23300000E+3	4.36521260E-1
38	02/09/2022	14:52:08.936	0.00000000E+0	-2.36666391E+1	5.00000000E+0	1.68776236E+0	-1.23500000E+3	4.68272372E-1
39	02/09/2022	14:52:10.386	0.00000000E+0	-2.34572507E+1	5.00000000E+0	2.91456350E-1	-1.23300000E+3	5.04577935E-1
40	02/09/2022	14:52:11.829	0.00000000E+0	-2.32478623E+1	5.00000000E+0	4.65908315E+0	-1.23400000E+3	5.36470655E-1
41	02/09/2022	14:52:13.194	0.00000000E+0	-2.30384740E+1	5.00000000E+0	3.93235975E+0	-1.23400000E+3	5.82693325E-1
42	02/09/2022	14:52:14.703	0.00000000E+0	-2.28290856E+1	5.00000000E+0	5.62203959E+0	-1.23400000E+3	5.97775454E-1
43	02/09/2022	14:52:16.082	0.00000000E+0	-2.26193137E+1	5.00000000E+0	2.17710223E+0	-1.23300000E+3	6.18376202E-1
44	02/09/2022	14:52:17.478	0.00000000E+0	-2.24099253E+1	5.00000000E+0	1.52209244E+0	-1.23400000E+3	6.30540108E-1
45	02/09/2022	14:52:19.015	0.00000000E+0	-2.22005370E+1	5.00000000E+0	5.24506381E+0	-1.23400000E+3	6.29460474E-1
46	02/09/2022	14:52:20.408	0.00000000E+0	-2.19911486E+1	5.00000000E+0	5.47707840E+0	-1.23400000E+3	6.23578526E-1
47	02/09/2022	14:52:21.912	0.00000000E+0	-2.17817602E+1	5.00000000E+0	4.30089863E+0	-1.23400000E+3	6.18450199E-1
48	02/09/2022	14:52:23.304	0.00000000E+0	-2.15723718E+1	5.00000000E+0	8.72835068E-1	-1.23400000E+3	5.94386590E-1
49	02/09/2022	14:52:24.685	0.00000000E+0	-2.13629834E+1	5.00000000E+0	3.65777719E+0	-1.23500000E+3	5.58167849E-1
50	02/09/2022	14:52:26.212	0.00000000E+0	-2.11532116E+1	5.00000000E+0	3.53390824E+0	-1.23300000E+3	5.33524789E-1
51	02/09/2022	14:52:27.605	0.00000000E+0	-2.09438232E+1	5.00000000E+0	2.14412165E+0	-1.23500000E+3	4.92876108E-1
52	02/09/2022	14:52:29.031	0.00000000E+0	-2.07344348E+1	5.00000000E+0	2.01795173E+0	-1.23300000E+3	4.64902583E-1
53	02/09/2022	14:52:30.547	0.00000000E+0	-2.05250464E+1	5.00000000E+0	3.79736944E+0	-1.23300000E+3	4.22421048E-1
54	02/09/2022	14:52:31.955	0.00000000E+0	-2.03156581E+1	5.00000000E+0	2.80296639E+0	-1.23300000E+3	3.92774019E-1
55	02/09/2022	14:52:33.453	0.00000000E+0	-2.01062697E+1	5.00000000E+0	3.95651995E+0	-1.23400000E+3	3.60509360E-1
56	02/09/2022	14:52:34.843	0.00000000E+0	-1.98968813E+1	5.00000000E+0	3.68500535E+0	-1.23400000E+3	3.23506250E-1
57	02/09/2022	14:52:36.243	0.00000000E+0	-1.96874929E+1	5.00000000E+0	3.05875769E+0	-1.23300000E+3	3.04511862E-1
58	02/09/2022	14:52:37.704	0.00000000E+0	-1.94777211E+1	5.00000000E+0	4.11298599E+0	-1.23300000E+3	2.87123559E-1
59	02/09/2022	14:52:39.184	0.00000000E+0	-1.92683327E+1	5.00000000E+0	4.62226761E+0	-1.23500000E+3	2.70936938E-1
60	02/09/2022	14:52:40.706	0.00000000E+0	-1.90589443E+1	5.00000000E+0	3.23631597E+0	-1.23400000E+3	2.69835862E-1
61	02/09/2022	14:52:42.155	0.00000000E+0	-1.88495559E+1	5.00000000E+0	2.91533049E+0	-1.23500000E+3	2.74398133E-1
62	02/09/2022	14:52:43.548	0.00000000E+0	-1.86401675E+1	5.00000000E+0	2.79452950E+0	-1.23300000E+3	2.96688968E-1
63	02/09/2022	14:52:45.034	0.00000000E+0	-1.84307792E+1	5.00000000E+0	3.85834518E+0	-1.23500000E+3	3.06530652E-1
64	02/09/2022	14:52:46.435	0.00000000E+0	-1.82213908E+1	5.00000000E+0	6.08721926E+0	-1.23500000E+3	3.35117987E-1
65	02/09/2022	14:52:47.834	0.00000000E+0	-1.80116189E+1	5.00000000E+0	5.51504443E+0	-1.23300000E+3	3.60178253E-1
66	02/09/2022	14:52:49.328	0.00000000E+0	-1.78022305E+1	5.00000000E+0	1.77174781E-1	-1.23400000E+3	4.06752636E-1
67	02/09/2022	14:52:50.718	0.00000000E+0	-1.75928422E+1	5.00000000E+0	5.38427257E+0	-1.23400000E+3	4.41565333E-1
68	02/09/2022	14:52:52.278	0.00000000E+0	-1.73834538E+1	5.00000000E+0	4.36340835E+0	-1.23500000E+3	4.76721249E-1
69	02/09/2022	14:52:53.658	0.00000000E+0	-1.71740654E+1	5.00000000E+0	5.20556380E+0	-1.23500000E+3	5.25599643E-1
70	02/09/2022	14:52:55.036	0.00000000E+0	-1.69646770E+1	5.00000000E+0	2.69213628E-1	-1.23300000E+3	5.45824347E-1
71	02/09/2022	14:52:56.561	0.00000000E+0	-1.67552887E+1	5.00000000E+0	3.81232575E+0	-1.23400000E+3	5.68806140E-1
72	02/09/2022	14:52:57.947	0.00000000E+0	-1.65459003E+1	5.00000000E+0	4.74421908E+0	-1.23500000E+3	5.92627104E-1
73	02/09/2022	14:52:59.379	0.00000000E+0	-1.63361284E+1	5.00000000E+0	5.44563180E+0	-1.23300000E+3	6.02126402E-1
74	02/09/2022	14:53:00.866	0.00000000E+0	-1.61267400E+1	5.00000000E+0	4.90567056E+0	-1.23500000E+3	6.14503439E-1
75	02/09/2022	14:53:02.253	0.00000000E+0	-1.59173516E+1	5.00000000E+0	2.86049067E+0	-1.23300000E+3	6.24905575E-1
76	02/09/2022	14:53:03.769	0.00000000E+0	-1.57079633E+1	5.00000000E+0	3.55384999E+0	-1.23400000E+3	6.17310925E-1
77	02/09/2022	14:53:05.159	0.00000000E+0	-1.54985749E+1	5.00000000E+0	2.09350028E+0	-1.23400000E+3	6.05268722E-1
78	02/09/2022	14:53:06.535	0.00000000E+0	-1.52891865E+1	5.00000000E+0	5.44486481E+0	-1.23400000E+3	5.87732359E-1
79	02/09/2022	14:53:08.117	0.00000000E+0	-1.50797981E+1	5.00000000E+0	2.22043719E+0	-1.23500000E+3	5.55336454E-1
80	02/09/2022	14:53:09.499	0.00000000E+0	-1.48700263E+1	5.00000000E+0	4.13139376E+0	-1.23400000E+3	5.26702688E-1
81	02/09/2022	14:53:10.985	0.00000000E+0	-1.46606379E+1	5.00000000E+0	3.06604410E+0	-1.23500000E+3	4.95217560E-1
82	02/09/2022	14:53:12.395	0.00000000E+0	-1.44512495E+1	5.00000000E+0	5.86709302E+0	-1.23500000E+3	4.50690738E-1
83	02/09/2022	14:53:13.802	0.00000000E+0	-1.42418611E+1	5.00000000E+0	5.02953951E+0	-1.23300000E+3	4.33567441E-1
84	02/09/2022	14:53:15.338	0.00000000E+0	-1.40324728E+1	5.00000000E+0	4.04970928E-1	-1.23300000E+3	3.91853257E-1
85	02/09/2022	14:53:16.725	0.00000000E+0	-1.38230844E+1	5.00000000E+0	6.08568528E+0	-1.23400000E+3	3.44715531E-1
86	02/09/2022	14:53:18.139	0.00000000E+0	-1.36136960E+1	5.00000000E+0	1.18500016E+0	-1.23300000E+3	3.25251009E-1
87	02/09/2022	14:53:19.623	0.00000000E+0	-1.34043076E+1	5.00000000E+0	3.21522373E+0	-1.23400000E+3	3.00842756E-1
88	02/09/2022	14:53:21.031	0.00000000E+0	-1.31945357E+1	5.00000000E+0	2.81447125E+0	-1.23500000E+3	2.76709704E-1
89	02/09/2022	14:53:22.487	0.00000000E+0	-1.29851474E+1	5.00000000E+0	1.57693225E+0	-1.23500000E+3	2.71170924E-1
90	02/09/2022	14:53:23.881	0.00000000E+0	-1.27757590E+1	5.00000000E+0	2.36961682E+0	-1.23300000E+3	2.71279740E-1
91	02/09/2022	14:53:25.266	0.00000000E+0	-1.25663706E+1	5.00000000E+0	1.35297105E+0	-1.23500000E+3	2.79045105E-1
92	02/09/2022	14:53:26.834	0.00000000E+0	-1.23569822E+1	5.00000000E+0	4.67557344E+0	-1.23400000E+3	2.88215133E-1
93	02/09/2022	14:53:28.207	0.00000000E+0	-1.21475939E+1	5.00000000E+0	3.00276739E+0	-1.23300000E+3	3.05269984E-1
94	02/09/2022	14:53:29.600	0.00000000E+0	-1.19382055E+1	5.00000000E+0	1.72802936E+0	-1.23500000E+3	3.35508139E-1
95	02/09/2022	14:53:30.939	0.00000000E+0	-1.17284336E+1	5.00000000E+0	4.89608318E+0	-1.23400000E+3	3.65797305E-1
96	02/09/2022	14:53:32.318	0.00000000E+0	-1.15190452E+1	5.00000000E+0	4.01289374E+0	-1.23300000E+3	3.91220252E-1
97	02/09/2022	14:53:33.863	0.00000000E+0	-1.13096569E+1	5.00000000E+0	8.50592347E-1	-1.23300000E+3	4.37082699E-1
98	02/09/2022	14:53:35.267	0.00000000E+0	-1.11002685E+1	5.00000000E+0	2.92376738E+0	-1.23500000E+3	4.73466161E-1
99	02/09/2022	14:53:36.723	0.00000000E+0	-1.08908801E+1	5.00000000E+0	1.44385942E+0	-1.23500000E+3	5.21073388E-1
100	02/09/2022	14:53:38.213	0.00000000E+0	-1.06814917E+1	5.00000000E+0	5.97753964E+0	-1.23400000E+3	5.46279813E-1
101	02/09/2022	14:53:39.608	0.00000000E+0	-1.04721033E+1	5.00000000E+0	4.39945690E+0	-1.23400000E+3	5.76315932E-1
102	02/09/2022	14:53:41.135	0.00000000E+0	-1.02627150E+1	5.00000000E+0	3.31569947E+0	-1.23400000E+3	5.91022896E-1
103	02/09/2022	14:53:42.527	0.00000000E+0	-1.00529431E+1	5.00000000E+0	3.72297137E+0	-1.23400000E+3	6.12825589E-1
104	02/09/2022	14:53:43.890	0.00000000E+0	-9.84355472E+0	5.00000000E+0	2.90574311E+0	-1.23500000E+3	6.21041208E-1
105	02/09/2022	14:53:45.362	0.00000000E+0	-9.63416634E+0	5.00000000E+0	2.85934019E+0	-1.23300000E+3	6.30626392E-1
106	02/09/2022	14:53:46.768	0.00000000E+0	-9.42477796E+0	5.00000000E+0	6.85689412E-1	-1.23400000E+3	6.15395639E-1
107	02/09/2022	14:53:48.158	0.00000000E+0	-9.21538958E+0	5.00000000E+0	7.14451552E-1	-1.23300000E+3	5.99406775E-1
108	02/09/2022	14:53:49.645	0.00000000E+0	-9.00600121E+0	5.00000000E+0	1.14780112E+0	-1.23300000E+3	5.74977744E-1
109	02/09/2022	14:53:51.021	0.00000000E+0	-8.79661283E+0	5.00000000E+0	1.96234492E+0	-1.23300000E+3	5.57462954E-1
110	02/09/2022	14:53:52.562	0.00000000E+0	-8.58684096E+0	5.00000000E+0	8.21063217E-1	-1.23400000E+3	5.28534881E-1
111	02/09/2022	14:53:53.957	0.00000000E+0	-8.37745258E+0	5.00000000E+0	2.21621874E+0	-1.23400000E+3	4.97390828E-1
112	02/09/2022	14:53:55.345	0.00000000E+0	-8.16806420E+0	5.00000000E+0	1.63982546E+0	-1.23400000E+3	4.57315793E-1
113	02/09/2022	14:53:56.826	0.00000000E+0	-7.95867582E+0	5.00000000E+0	1.09372830E+0	-1.23300000E+3	4.14495624E-1
114	02/09/2022	14:53:58.217	0.00000000E+0	-7.74928745E+0	5.00000000E+0	4.27328698E+0	-1.23500000E+3	3.71598621E-1
115	02/09/2022	14:53:59.707	0.00000000E+0	-7.53989907E+0	5.00000000E+0	2.03635950E+0	-1.23400000E+3	3.54169530E-1
116	02/09/2022	14:54:01.143	0.00000000E+0	-7.33051069E+0	5.00000000E+0	2.78532562E+0	-1.23400000E+3	3.26884486E-1
117	02/09/2022	14:54:02.533	0.00000000E+0	-7.12112231E+0	5.00000000E+0	2.44554887E+0	-1.23400000E+3	3.04481611E-1
118	02/09/2022	14:54:03.993	0.00000000E+0	-6.91135044E+0	5.00000000E+0	2.94639360E+0	-1.23400000E+3	2.83610955E-1
119	02/09/2022	14:54:05.393	0.00000000E+0	-6.70196206E+0	5.00000000E+0	2.65455375E+0	-1.23300000E+3	2.75295332E-1
120	02/09/2022	14:54:06.781	0.00000000E+0	-6.49257368E+0	5.00000000E+0	5.04104436E+0	-1.23500000E+3	2.71853821E-1
121	02/09/2022	14:54:08.280	0.00000000E+0	-6.28318531E+0	5.00000000E+0	3.31646646E+0	-1.23400000E+3	2.79401597E-1
122	02/09/2022	14:54:09.669	0.00000000E+0	-6.07379693E+0	5.00000000E+0	5.02417058E+0	-1.23500000E+3	2.83038681E-1
123	02/09/2022	14:54:11.110	0.00000000E+0	-5.86440855E+0	5.00000000E+0	2.95713146E+0	-1.23400000E+3	3.07244205E-1
124	02/09/2022	14:54:12.491	0.00000000E+0	-5.65502017E+0	5.00000000E+0	1.05154383E+0	-1.23500000E+3	3.47699013E-1
125	02/09/2022	14:54:13.861	0.00000000E+0	-5.44524830E+0	5.00000000E+0	1.91900997E+0	-1.23500000E+3	3.78255290E-1
126	02/09/2022	14:54:15.412	0.00000000E+0	-5.23585992E+0	5.00000000E+0	4.34845204E+0	-1.23500000E+3	4.07397466E-1
127	02/09/2022	14:54:16.802	0.00000000E+0	-5.02647155E+0	5.00000000E+0	4.09918016E+0	-1.23300000E+3	4.37811672E-1
128	02/09/2022	14:54:18.273	0.00000000E+0	-4.81708317E+0	5.00000000E+0	3.56190339E+0	-1.23400000E+3	4.75235651E-1
129	02/09/2022	14:54:19.765	0.00000000E+0	-4.60769479E+0	5.00000000E+0	2.27144205E+0	-1.23300000E+3	5.09386654E-1
130	02/09/2022	14:54:21.146	0.00000000E+0	-4.39830641E+0	5.00000000E+0	4.14328211E+0	-1.23400000E+3	5.50887091E-1
131	02/09/2022	14:54:22.637	0.00000000E+0	-4.18891804E+0	5.00000000E+0	3.97876267E+0	-1.23300000E+3	5.74057979E-1
132	02/09/2022	14:54:24.016	0.00000000E+0	-3.97952966E+0	5.00000000E+0	1.26515065E+0	-1.23300000E+3	5.91553700E-1
133	02/09/2022	14:54:25.469	0.00000000E+0	-3.76975779E+0	5.00000000E+0	3.53966067E+0	-1.23300000E+3	6.01576144E-1
134	02/09/2022	14:54:26.981	0.00000000E+0	-3.56036941E+0	5.00000000E+0	8.61713708E-1	-1.23300000E+3	6.18975875E-1
135	02/09/2022	14:54:28.354	0.00000000E+0	-3.35098103E+0	5.00000000E+0	5.96104934E+0	-1.23400000E+3	6.11510308E-1
136	02/09/2022	14:54:29.788	0.00000000E+0	-3.14159265E+0	5.00000000E+0	5.15264147E+0	-1.23500000E+3	6.07763764E-1
137	02/09/2022	14:54:31.236	0.00000000E+0	-2.93220428E+0	5.00000000E+0	2.14872359E+0	-1.23500000E+3	6.03727069E-1
138	02/09/2022	14:54:32.613	0.00000000E+0	-2.72281590E+0	5.00000000E+0	3.76093740E+0	-1.23500000E+3	5.73496704E-1
139	02/09/2022	14:54:34.101	0.00000000E+0	-2.51342752E+0	5.00000000E+0	5.09703466E+0	-1.23400000E+3	5.64319946E-1
140	02/09/2022	14:54:35.473	0.00000000E+0	-2.30365565E+0	5.00000000E+0	4.46810254E+0	-1.23400000E+3	5.34020080E-1
141	02/09/2022	14:54:36.898	0.00000000E+0	-2.09426727E+0	5.00000000E+0	5.24621429E-1	-1.23500000E+3	4.95249366E-1
142	02/09/2022	14:54:38.424	0.00000000E+0	-1.88487889E+0	5.00000000E+0	4.89263172E+0	-1.23300000E+3	4.63796517E-1
143	02/09/2022	14:54:39.794	0.00000000E+0	-1.67549052E+0	5.00000000E+0	3.88825780E+0	-1.23300000E+3	4.14728904E-1
144	02/09/2022	14:54:41.226	0.00000000E+0	-1.46610214E+0	5.00000000E+0	3.68232088E+0	-1.23500000E+3	3.79035781E-1
145	02/09/2022	14:54:42.608	0.00000000E+0	-1.25671376E+0	5.00000000E+0	5.35819489E+0	-1.23500000E+3	3.54265953E-1
146	02/09/2022	14:54:43.993	0.00000000E+0	-1.04732538E+0	5.00000000E+0	3.39048104E+0	-1.23300000E+3	3.23931300E-1
147	02/09/2022	14:54:45.550	0.00000000E+0	-8.37937005E-1	5.00000000E+0	5.96526779E+0	-1.23400000E+3	3.02038667E-1
148	02/09/2022	14:54:46.930	0.00000000E+0	-6.28165133E-1	5.00000000E+0	6.28280181E+0	-1.23500000E+3	2.82349563E-1
149	02/09/2022	14:54:48.376	0.00000000E+0	-4.18776755E-1	5.00000000E+0	4.44432584E+0	-1.23300000E+3	2.74153619E-1
150	02/09/2022	14:54:49.727	0.00000000E+0	-2.09388378E-1	5.00000000E+0	9.84432171E-1	-1.23400000E+3	2.74427544E-1
151	02/09/2022	14:54:51.126	0.00000000E+0	0.00000000E+0	5.00000000E+0	5.05868514E+0	-1.23500000E+3	2.76046366E-1
152	02/09/2022	14:54:52.653	0.00000000E+0	2.09388378E-1	5.00000000E+0	4.94478707E+0	-1.23400000E+3	2.95334565E-1
153	02/09/2022	14:54:54.016	0.00000000E+0	4.18776755E-1	5.00000000E+0	5.49433569E+0	-1.23500000E+3	3.19640828E-1
154	02/09/2022	14:54:55.428	0.00000000E+0	6.28165133E-1	5.00000000E+0	3.22442762E+0	-1.23500000E+3	3.38243027E-1
155	02/09/2022	14:54:56.900	0.00000000E+0	8.37937005E-1	5.00000000E+0	3.88020440E+0	-1.23300000E+3	3.73622337E-1
156	02/09/2022	14:54:58.303	0.00000000E+0	1.04732538E+0	5.00000000E+0	5.21169973E+0	-1.23500000E+3	4.12635714E-1
157	02/09/2022	14:54:59.784	0.00000000E+0	1.25671376E+0	5.00000000E+0	4.49149575E+0	-1.23300000E+3	4.41316110E-1
158	02/09/2022	14:55:01.172	0.00000000E+0	1.46610214E+0	5.00000000E+0	2.65915570E+0	-1.23500000E+3	4.94473272E-1
159	02/09/2022	14:55:02.557	0.00000000E+0	1.67549052E+0	5.00000000E+0	5.10892301E+0	-1.23300000E+3	5.16506005E-1
160	02/09/2022	14:55:04.051	0.00000000E+0	1.88487889E+0	5.00000000E+0	3.27236452E+0	-1.23500000E+3	5.46078090E-1
161	02/09/2022	14:55:05.435	0.00000000E+0	2.09426727E+0	5.00000000E+0	4.67058800E+0	-1.23300000E+3	5.66113093E-1
162	02/09/2022	14:55:06.880	0.00000000E+0	2.30365565E+0	5.00000000E+0	5.32061236E+0	-1.23500000E+3	6.02896844E-1
163	02/09/2022	14:55:08.387	0.00000000E+0	2.51342752E+0	5.00000000E+0	1.18998560E+0	-1.23400000E+3	6.18224876E-1
164	02/09/2022	14:55:09.769	0.00000000E+0	2.72281590E+0	5.00000000E+0	4.35803942E+0	-1.23300000E+3	6.27862337E-1
165	02/09/2022	14:55:11.233	0.00000000E+0	2.93220428E+0	5.00000000E+0	4.15095201E+0	-1.23300000E+3	6.22383518E-1
166	02/09/2022	14:55:12.627	0.00000000E+0	3.14159265E+0	5.00000000E+0	3.51128202E+0	-1.23500000E+3	6.18690278E-1
167	02/09/2022	14:55:14.011	0.00000000E+0	3.35098103E+0	5.00000000E+0	3.45989367E+0	-1.23300000E+3	6.09342734E-1
168	02/09/2022	14:55:15.460	0.00000000E+0	3.56036941E+0	5.00000000E+0	5.68493280E+0	-1.23500000E+3	5.90102454E-1
169	02/09/2022	14:55:16.842	0.00000000E+0	3.76975779E+0	5.00000000E+0	9.62956440E-1	-1.23200000E+3	5.56477305E-1
170	02/09/2022	14:55:18.267	0.00000000E+0	3.97952966E+0	5.00000000E+0	3.72680632E+0	-1.23400000E+3	5.26590151E-1
171	02/09/2022	14:55:19.748	0.00000000E+0	4.18891804E+0	5.00000000E+0	6.01435517E+0	-1.23500000E+3	4.96516504E-1
172	02/09/2022	14:55:21.129	0.00000000E+0	4.39830641E+0	5.00000000E+0	5.73325319E+0	-1.23300000E+3	4.59855408E-1
173	02/09/2022	14:55:22.632	0.00000000E+0	4.60769479E+0	5.00000000E+0	2.76500037E+0	-1.23300000E+3	4.17659481E-1
174	02/09/2022	14:55:24.025	0.00000000E+0	4.81708317E+0	5.00000000E+0	2.77267027E-1	-1.23500000E+3	3.63552314E-1
175	02/09/2022	14:55:25.422	0.00000000E+0	5.02647155E+0	5.00000000E+0	5.62702503E+0	-1.23300000E+3	3.40205121E-1
176	02/09/2022	14:55:26.912	0.00000000E+0	5.23585992E+0	5.00000000E+0	1.41778174E+0	-1.23400000E+3	3.12740743E-1
177	02/09/2022	14:55:28.321	0.00000000E+0	5.44524830E+0	5.00000000E+0	3.71721894E+0	-1.23500000E+3	2.98456822E-1
178	02/09/2022	14:55:29.815	0.00000000E+0	5.65502017E+0	5.00000000E+0	2.67181104E+0	-1.23500000E+3	2.74207247E-1
179	02/09/2022	14:55:31.227	0.00000000E+0	5.86440855E+0	5.00000000E+0	1.57923322E+0	-1.23400000E+3	2.74541620E-1
180	02/09/2022	14:55:32.588	0.00000000E+0	6.07379693E+0	5.00000000E+0	2.83517999E+0	-1.23300000E+3	2.72714313E-1
181	02/09/2022	14:55:34.053	0.00000000E+0	6.28318531E+0	5.00000000E+0	3.95728694E+0	-1.23400000E+3	2.81482371E-1
182	02/09/2022	14:55:35.451	0.00000000E+0	6.49257368E+0	5.00000000E+0	2.76883532E+0	-1.23300000E+3	2.92200990E-1
183	02/09/2022	14:55:36.833	0.00000000E+0	6.70196206E+0	5.00000000E+0	2.11996145E+0	-1.23300000E+3	3.06237788E-1
184	02/09/2022	14:55:38.302	0.00000000E+0	6.91135044E+0	5.00000000E+0	4.48957827E+0	-1.23500000E+3	3.46821570E-1
185	02/09/2022	14:55:39.687	0.00000000E+0	7.12112231E+0	5.00000000E+0	1.67549052E+0	-1.23400000E+3	3.79338913E-1
186	02/09/2022	14:55:41.213	0.00000000E+0	7.33051069E+0	5.00000000E+0	2.51611199E+0	-1.23300000E+3	4.11940519E-1
187	02/09/2022	14:55:42.595	0.00000000E+0	7.53989907E+0	5.00000000E+0	2.09656824E+0	-1.23500000E+3	4.47056835E-1
188	02/09/2022	14:55:43.968	0.00000000E+0	7.74928745E+0	5.00000000E+0	1.20916036E+0	-1.23500000E+3	4.87250186E-1
189	02/09/2022	14:55:45.525	0.00000000E+0	7.95867582E+0	5.00000000E+0	1.82620413E+0	-1.23400000E+3	5.16552182E-1
190	02/09/2022	14:55:46.955	0.00000000E+0	8.16806420E+0	5.00000000E+0	4.07041802E+0	-1.23300000E+3	5.49895389E-1
191	02/09/2022	14:55:48.417	0.00000000E+0	8.37745258E+0	5.00000000E+0	5.20479681E+0	-1.23300000E+3	5.60644224E-1
192	02/09/2022	14:55:49.829	0.00000000E+0	8.58684096E+0	5.00000000E+0	4.35995689E+0	-1.23300000E+3	6.00409874E-1
193	02/09/2022	14:55:51.220	0.00000000E+0	8.79661283E+0	5.00000000E+0	3.97684519E+0	-1.23500000E+3	6.13206994E-1
194	02/09/2022	14:55:52.680	0.00000000E+0	9.00600121E+0	5.00000000E+0	2.67487900E+0	-1.23500000E+3	6.15995909E-1
195	02/09/2022	14:55:54.064	0.00000000E+0	9.21538958E+0	5.00000000E+0	5.34860751E+0	-1.23400000E+3	6.26188286E-1
196	02/09/2022	14:55:55.518	0.00000000E+0	9.42477796E+0	5.00000000E+0	2.10999057E+0	-1.23400000E+3	6.09787682E-1
197	02/09/2022	14:55:57.003	0.00000000E+0	9.63416634E+0	5.00000000E+0	2.18208767E+0	-1.23400000E+3	5.95144801E-1
198	02/09/2022	14:55:58.390	0.00000000E+0	9.84355472E+0	5.00000000E+0	5.73363669E+0	-1.23500000E+3	5.67226340E-1
199	02/09/2022	14:55:59.859	0.00000000E+0	1.00529431E+1	5.00000000E+0	3.26201015E+0	-1.23300000E+3	5.54136198E-1
200	02/09/2022	14:56:01.228	0.00000000E+0	1.02627150E+1	5.00000000E+0	1.01242732E+0	-1.23300000E+3	5.19101097E-1
201	02/09/2022	14:56:02.616	0.00000000E+0	1.04721033E+1	5.00000000E+0	1.67012158E+0	-1.23400000E+3	4.89093871E-1
202	02/09/2022	14:56:04.116	0.00000000E+0	1.06814917E+1	5.00000000E+0	2.93642272E+0	-1.23300000E+3	4.53539452E-1
203	02/09/2022	14:56:05.513	0.00000000E+0	1.08908801E+1	5.00000000E+0	4.32812679E+0	-1.23400000E+3	4.18636611E-1
204	02/09/2022	14:56:06.906	0.00000000E+0	1.11002685E+1	5.00000000E+0	3.92315587E-1	-1.23400000E+3	3.72461208E-1
205	02/09/2022	14:56:08.293	0.00000000E+0	1.13096569E+1	5.00000000E+0	3.04150041E+0	-1.23400000E+3	3.48393738E-1
206	02/09/2022	14:56:09.699	0.00000000E+0	1.15190452E+1	5.00000000E+0	1.76100994E+0	-1.23500000E+3	3.15569170E-1
207	02/09/2022	14:56:11.217	0.00000000E+0	1.17284336E+1	5.00000000E+0	2.21468476E+0	-1.23300000E+3	3.05700808E-1
208	02/09/2022	14:56:12.707	0.00000000E+0	1.19382055E+1	5.00000000E+0	1.51672350E+0	-1.23500000E+3	2.76337443E-1
209	02/09/2022	14:56:14.090	0.00000000E+0	1.21475939E+1	5.00000000E+0	4.38833554E+0	-1.23400000E+3	2.82513018E-1
210	02/09/2022	14:56:15.584	0.00000000E+0	1.23569822E+1	5.00000000E+0	3.29345675E+0	-1.23500000E+3	2.73959851E-1
211	02/09/2022	14:56:16.973	0.00000000E+0	1.25663706E+1	5.00000000E+0	3.45145677E+0	-1.23300000E+3	2.81603874E-1
212	02/09/2022	14:56:18.486	0.00000000E+0	1.27757590E+1	5.00000000E+0	1.45383029E+0	-1.23300000E+3	2.96957668E-1
213	02/09/2022	14:56:19.856	0.00000000E+0	1.29851474E+1	5.00000000E+0	1.94086919E+0	-1.23300000E+3	3.07497589E-1
214	02/09/2022	14:56:21.256	0.00000000E+0	1.31945357E+1	5.00000000E+0	2.84591786E+0	-1.23300000E+3	3.35737868E-1
215	02/09/2022	14:56:22.753	0.00000000E+0	1.34043076E+1	5.00000000E+0	1.95199055E-1	-1.23400000E+3	3.76017209E-1
216	02/09/2022	14:56:24.152	0.00000000E+0	1.36136960E+1	5.00000000E+0	4.83280647E+0	-1.23500000E+3	4.05748721E-1
217	02/09/2022	14:56:25.531	0.00000000E+0	1.38230844E+1	5.00000000E+0	1.91709249E+0	-1.23500000E+3	4.53597871E-1
218	02/09/2022	14:56:27.058	0.00000000E+0	1.40324728E+1	5.00000000E+0	2.86087417E+0	-1.23300000E+3	4.61200867E-1
219	02/09/2022	14:56:28.436	0.00000000E+0	1.42418611E+1	5.00000000E+0	1.00475742E+0	-1.23400000E+3	5.21327921E-1
220	02/09/2022	14:56:29.969	0.00000000E+0	1.44512495E+1	5.00000000E+0	9.97087512E-1	-1.23300000E+3	5.34939110E-1
221	02/09/2022	14:56:31.355	0.00000000E+0	1.46606379E+1	5.00000000E+0	3.83648595E+0	-1.23400000E+3	5.67117402E-1
222	02/09/2022	14:56:32.747	0.00000000E+0	1.48700263E+1	5.00000000E+0	1.15700501E+0	-1.23400000E+3	5.99943186E-1
223	02/09/2022	14:56:34.203	0.00000000E+0	1.50797981E+1	5.00000000E+0	4.45928215E+0	-1.23500000E+3	6.09280321E-1
224	02/09/2022	14:56:35.599	0.00000000E+0	1.52891865E+1	5.00000000E+0	5.39270946E+0	-1.23400000E+3	6.25064902E-1
225	02/09/2022	14:56:37.087	0.00000000E+0	1.54985749E+1	5.00000000E+0	5.13883564E-2	-1.23300000E+3	6.18640613E-1
226	02/09/2022	14:56:38.530	0.00000000E+0	1.57079633E+1	5.00000000E+0	1.74720412E+0	-1.23500000E+3	6.16412923E-1
227	02/09/2022	14:56:39.890	0.00000000E+0	1.59173516E+1	5.00000000E+0	3.77781119E+0	-1.23400000E+3	6.08652388E-1
228	02/09/2022	14:56:41.415	0.00000000E+0	1.61267400E+1	5.00000000E+0	1.10561665E+0	-1.23400000E+3	5.88824393E-1
229	02/09/2022	14:56:42.778	0.00000000E+0	1.63361284E+1	5.00000000E+0	1.55622351E+0	-1.23500000E+3	5.60377340E-1
230	02/09/2022	14:56:44.217	0.00000000E+0	1.65459003E+1	5.00000000E+0	3.21330626E+0	-1.23300000E+3	5.34741261E-1
231	02/09/2022	14:56:45.732	0.00000000E+0	1.67552887E+1	5.00000000E+0	4.92254435E+0	-1.23500000E+3	4.94033326E-1
232	02/09/2022	14:56:47.113	0.00000000E+0	1.69646770E+1	5.00000000E+0	2.97247127E+0	-1.23500000E+3	4.51109969E-1
233	02/09/2022	14:56:48.585	0.00000000E+0	1.71740654E+1	5.00000000E+0	6.10064159E+0	-1.23400000E+3	4.36986218E-1
234	02/09/2022	14:56:49.985	0.00000000E+0	1.73834538E+1	5.00000000E+0	4.73616568E+0	-1.23500000E+3	3.80497056E-1
235	02/09/2022	14:56:51.369	0.00000000E+0	1.75928422E+1	5.00000000E+0	1.75985946E+0	-1.23300000E+3	3.56744287E-1
236	02/09/2022	14:56:52.905	0.00000000E+0	1.78022305E+1	5.00000000E+0	3.03152953E+0	-1.23500000E+3	3.07925299E-1
237	02/09/2022	14:56:54.295	0.00000000E+0	1.80116189E+1	5.00000000E+0	5.63546192E+0	-1.23300000E+3	3.00724321E-1
238	02/09/2022	14:56:55.727	0.00000000E+0	1.82213908E+1	5.00000000E+0	2.92913631E+0	-1.23500000E+3	2.87580180E-1
239	02/09/2022	14:56:57.209	0.00000000E+0	1.84307792E+1	5.00000000E+0	5.75856388E+0	-1.23400000E+3	2.66559817E-1
240	02/09/2022	14:56:58.608	0.00000000E+0	1.86401675E+1	5.00000000E+0	4.17587920E+0	-1.23500000E+3	2.73124441E-1
241	02/09/2022	14:57:00.107	0.00000000E+0	1.88495559E+1	5.00000000E+0	4.74306860E+0	-1.23500000E+3	2.71692228E-1
242	02/09/2022	14:57:01.496	0.00000000E+0	1.90589443E+1	5.00000000E+0	2.13453427E+0	-1.23300000E+3	2.87323177E-1
243	02/09/2022	14:57:02.937	0.00000000E+0	1.92683327E+1	5.00000000E+0	1.49179632E+0	-1.23500000E+3	3.06887641E-1
244	02/09/2022	14:57:04.438	0.00000000E+0	1.94777211E+1	5.00000000E+0	4.10454909E+0	-1.23500000E+3	3.47172666E-1
245	02/09/2022	14:57:05.814	0.00000000E+0	1.96874929E+1	5.00000000E+0	2.75196153E+0	-1.23500000E+3	3.69824603E-1
246	02/09/2022	14:57:07.381	0.00000000E+0	1.98968813E+1	5.00000000E+0	1.04118946E+0	-1.23300000E+3	4.02726860E-1
247	02/09/2022	14:57:08.754	0.00000000E+0	2.01062697E+1	5.00000000E+0	4.75035500E+0	-1.23300000E+3	4.42853384E-1
248	02/09/2022	14:57:10.142	0.00000000E+0	2.03156581E+1	5.00000000E+0	5.74322407E+0	-1.23500000E+3	4.93383153E-1
249	02/09/2022	14:57:11.687	0.00000000E+0	2.05250464E+1	5.00000000E+0	3.38741307E+0	-1.23400000E+3	5.07032317E-1
250	02/09/2022	14:57:13.071	0.00000000E+0	2.07344348E+1	5.00000000E+0	4.66982101E+0	-1.23500000E+3	5.50643505E-1
251	02/09/2022	14:57:14.455	0.00000000E+0	2.09438232E+1	5.00000000E+0	3.66468010E+0	-1.23300000E+3	5.82871348E-1
252	02/09/2022	14:57:15.942	0.00000000E+0	2.11532116E+1	5.00000000E+0	1.50828661E+0	-1.23500000E+3	5.99340396E-1
253	02/09/2022	14:57:17.359	0.00000000E+0	2.13629834E+1	5.00000000E+0	1.79437403E+0	-1.23500000E+3	6.18803260E-1
254	02/09/2022	14:57:18.812	0.00000000E+0	2.15723718E+1	5.00000000E+0	3.89477722E+0	-1.23500000E+3	6.24374568E-1
255	02/09/2022	14:57:20.203	0.00000000E+0	2.17817602E+1	5.00000000E+0	2.31937895E+0	-1.23300000E+3	6.29820011E-1
256	02/09/2022	14:57:21.599	0.00000000E+0	2.19911486E+1	5.00000000E+0	3.23171402E+0	-1.23500000E+3	6.30903510E-1
257	02/09/2022	14:57:23.123	0.00000000E+0	2.22005370E+1	5.00000000E+0	7.32859321E-1	-1.23300000E+3	6.05410557E-1
258	02/09/2022	14:57:24.510	0.00000000E+0	2.24099253E+1	5.00000000E+0	2.08966533E+0	-1.23400000E+3	5.87781909E-1
259	02/09/2022	14:57:25.904	0.00000000E+0	2.26193137E+1	5.00000000E+0	1.21222832E+0	-1.23300000E+3	5.53777051E-1
260	02/09/2022	14:57:27.306	0.00000000E+0	2.28290856E+1	5.00000000E+0	3.27696646E+0	-1.23500000E+3	5.18553933E-1
261	02/09/2022	14:57:28.693	0.00000000E+0	2.30384740E+1	5.00000000E+0	3.12050042E+0	-1.23300000E+3	4.95832955E-1
262	02/09/2022	14:57:30.176	0.00000000E+0	2.32478623E+1	5.00000000E+0	4.83970939E+0	-1.23500000E+3	4.48055819E-1
263	02/09/2022	14:57:31.548	0.00000000E+0	2.34572507E+1	5.00000000E+0	1.41509728E-1	-1.23500000E+3	4.24180207E-1
264	02/09/2022	14:57:33.044	0.00000000E+0	2.36666391E+1	5.00000000E+0	6.19498141E+0	-1.23500000E+3	3.95939640E-1
265	02/09/2022	14:57:34.553	0.00000000E+0	2.38760275E+1	5.00000000E+0	4.60807829E+0	-1.23500000E+3	3.71951506E-1
266	02/09/2022	14:57:35.950	0.00000000E+0	2.40854158E+1	5.00000000E+0	2.13223330E+0	-1.23300000E+3	3.34960809E-1
267	02/09/2022	14:57:37.451	0.00000000E+0	2.42948042E+1	5.00000000E+0	3.37130628E+0	-1.23300000E+3	3.01635786E-1
268	02/09/2022	14:57:38.824	0.00000000E+0	2.45045761E+1	5.00000000E+0	2.91072855E+0	-1.23300000E+3	2.81378356E-1
269	02/09/2022	14:57:40.218	0.00000000E+0	2.47139645E+1	5.00000000E+0	4.15363648E+0	-1.23500000E+3	2.73424631E-1
270	02/09/2022	14:57:41.736	0.00000000E+0	2.49233529E+1	5.00000000E+0	4.90682105E+0	-1.23400000E+3	2.71600053E-1
271	02/09/2022	14:57:43.124	0.00000000E+0	2.51327412E+1	5.00000000E+0	1.78747111E+0	-1.23400000E+3	2.78238436E-1
272	02/09/2022	14:57:44.572	0.00000000E+0	2.53421296E+1	5.00000000E+0	5.29453469E+0	-1.23300000E+3	2.86078484E-1
273	02/09/2022	14:57:46.083	0.00000000E+0	2.55515180E+1	5.00000000E+0	2.60086443E+0	-1.23300000E+3	3.07739772E-1
274	02/09/2022	14:57:47.471	0.00000000E+0	2.57609064E+1	5.00000000E+0	2.55254403E+0	-1.23500000E+3	3.47536234E-1
275	02/09/2022	14:57:48.944	0.00000000E+0	2.59706782E+1	5.00000000E+0	2.10078669E+0	-1.23300000E+3	3.52310323E-1
276	02/09/2022	14:57:50.340	0.00000000E+0	2.61800666E+1	5.00000000E+0	3.35213152E+0	-1.23500000E+3	4.02975199E-1
277	02/09/2022	14:57:51.750	0.00000000E+0	2.63894550E+1	5.00000000E+0	5.31255896E+0	-1.23500000E+3	4.43775692E-1
278	02/09/2022	14:57:53.254	0.00000000E+0	2.65988434E+1	5.00000000E+0	6.19344743E-1	-1.23400000E+3	4.67138476E-1
279	02/09/2022	14:57:54.630	0.00000000E+0	2.68082317E+1	5.00000000E+0	5.99709789E+0	-1.23600000E+3	5.19792223E-1
280	02/09/2022	14:57:56.070	0.00000000E+0	2.70176201E+1	5.00000000E+0	3.97492772E+0	-1.23300000E+3	5.37571248E-1
281	02/09/2022	14:57:57.558	0.00000000E+0	2.72270085E+1	5.00000000E+0	4.83970939E-1	-1.23400000E+3	5.76940454E-1
282	02/09/2022	14:57:58.946	0.00000000E+0	2.74363969E+1	5.00000000E+0	4.18623357E+0	-1.23300000E+3	5.97452159E-1
283	02/09/2022	14:58:00.486	0.00000000E+0	2.76461687E+1	5.00000000E+0	2.63269453E+0	-1.23300000E+3	6.17479562E-1
284	02/09/2022	14:58:01.874	0.00000000E+0	2.78555571E+1	5.00000000E+0	3.67119952E+0	-1.23400000E+3	6.28585556E-1
285	02/09/2022	14:58:03.335	0.00000000E+0	2.80649455E+1	5.00000000E+0	1.11635452E+0	-1.23400000E+3	6.29785853E-1
286	02/09/2022	14:58:04.830	0.00000000E+0	2.82743339E+1	5.00000000E+0	2.77267027E+0	-1.23300000E+3	6.25871473E-1
287	02/09/2022	14:58:06.212	0.00000000E+0	2.84837223E+1	5.00000000E+0	2.84553436E+0	-1.23400000E+3	6.06824094E-1
288	02/09/2022	14:58:07.693	0.00000000E+0	2.86931106E+1	5.00000000E+0	5.10317059E+0	-1.23400000E+3	5.87439959E-1
289	02/09/2022	14:58:09.086	0.00000000E+0	2.89024990E+1	5.00000000E+0	1.43465553E+0	-1.23400000E+3	5.66286570E-1
290	02/09/2022	14:58:10.464	0.00000000E+0	2.91122709E+1	5.00000000E+0	2.09771873E+0	-1.23500000E+3	5.23473180E-1
291	02/09/2022	14:58:11.934	0.00000000E+0	2.93216593E+1	5.00000000E+0	3.24091791E+0	-1.23400000E+3	4.91048673E-1
292	02/09/2022	14:58:13.322	0.00000000E+0	2.95310476E+1	5.00000000E+0	1.02776713E-1	-1.23300000E+3	4.64849195E-1
293	02/09/2022	14:58:14.761	0.00000000E+0	2.97404360E+1	5.00000000E+0	4.12257337E+0	-1.23400000E+3	4.17484224E-1
294	02/09/2022	14:58:16.263	0.00000000E+0	2.99498244E+1	5.00000000E+0	3.52317037E+0	-1.23500000E+3	3.89555637E-1
295	02/09/2022	14:58:17.660	0.00000000E+0	3.01592128E+1	5.00000000E+0	3.68960729E+0	-1.23400000E+3	3.44445943E-1
296	02/09/2022	14:58:19.177	0.00000000E+0	3.03686012E+1	5.00000000E+0	1.05614577E+0	-1.23500000E+3	3.16640153E-1
297	02/09/2022	14:58:20.549	0.00000000E+0	3.05779895E+1	5.00000000E+0	3.77052478E+0	-1.23500000E+3	2.94188426E-1
298	02/09/2022	14:58:21.978	0.00000000E+0	3.07877614E+1	5.00000000E+0	1.41049533E+0	-1.23300000E+3	2.74415302E-1
299	02/09/2022	14:58:23.482	0.00000000E+0	3.09971498E+1	5.00000000E+0	8.45606909E-1	-1.23300000E+3	2.68015457E-1
300	02/09/2022	14:58:24.860	0.00000000E+0	3.12065382E+1	5.00000000E+0	3.65432573E+0	-1.23300000E+3	2.65031501E-1
301	02/09/2022	14:58:26.423	0.00000000E+0	3.14159265E+1	5.00000000E+0	2.51572849E+0	-1.23400000E+3	2.79186854E-1
