#Iteration	Date	Time	STSX	STSY	RotationRateX	RotationRateY	FrCntX	FrCntY	TiptiltCmd1	TiptiltCmd2	TiptiltMonitor1	TiptiltMonitor2
1	02/09/2022	14:51:15.516	0.00000E+0	0.00000E+0	0.00000E+0	0.00000E+0	0.00000E+0	0.00000E+0	2.00000E+1	1.40000E+1	2.00021E+1	1.39983E+1
2	02/09/2022	14:51:16.907	0.00000E+0	0.00000E+0	0.00000E+0	0.00000E+0	0.00000E+0	0.00000E+0	2.00000E+1	1.40000E+1	1.99984E+1	1.39992E+1
3	02/09/2022	14:51:18.423	0.00000E+0	0.00000E+0	0.00000E+0	0.00000E+0	0.00000E+0	0.00000E+0	2.00000E+1	1.40000E+1	2.00021E+1	1.39996E+1
4	02/09/2022	14:51:19.836	0.00000E+0	0.00000E+0	0.00000E+0	0.00000E+0	0.00000E+0	0.00000E+0	2.00000E+1	1.40000E+1	2.00002E+1	1.40037E+1
5	02/09/2022	14:51:21.358	0.00000E+0	0.00000E+0	0.00000E+0	0.00000E+0	0.00000E+0	0.00000E+0	2.00000E+1	1.40000E+1	2.00002E+1	1.40000E+1
6	02/09/2022	14:51:22.794	0.00000E+0	0.00000E+0	0.00000E+0	0.00000E+0	0.00000E+0	0.00000E+0	2.00000E+1	1.40000E+1	1.99998E+1	1.39998E+1
7	02/09/2022	14:51:24.167	0.00000E+0	0.00000E+0	0.00000E+0	0.00000E+0	0.00000E+0	0.00000E+0	2.00000E+1	1.40000E+1	2.00006E+1	1.39998E+1
8	02/09/2022	14:51:25.654	0.00000E+0	0.00000E+0	0.00000E+0	0.00000E+0	0.00000E+0	0.00000E+0	2.00000E+1	1.40000E+1	2.00002E+1	1.39982E+1
9	02/09/2022	14:51:27.054	0.00000E+0	0.00000E+0	0.00000E+0	0.00000E+0	0.00000E+0	0.00000E+0	2.00000E+1	1.40000E+1	1.99979E+1	1.39995E+1
10	02/09/2022	14:51:28.510	0.00000E+0	0.00000E+0	0.00000E+0	0.00000E+0	0.00000E+0	0.00000E+0	2.00000E+1	1.40000E+1	2.00006E+1	1.40025E+1
11	02/09/2022	14:51:29.992	0.00000E+0	0.00000E+0	0.00000E+0	0.00000E+0	0.00000E+0	0.00000E+0	2.00000E+1	1.40000E+1	1.99988E+1	1.39993E+1
12	02/09/2022	14:51:31.360	0.00000E+0	0.00000E+0	0.00000E+0	0.00000E+0	0.00000E+0	0.00000E+0	2.00000E+1	1.40000E+1	1.99983E+1	1.39993E+1
13	02/09/2022	14:51:32.895	0.00000E+0	0.00000E+0	0.00000E+0	0.00000E+0	0.00000E+0	0.00000E+0	2.00000E+1	1.40000E+1	2.00021E+1	1.39980E+1
14	02/09/2022	14:51:34.284	0.00000E+0	0.00000E+0	0.00000E+0	0.00000E+0	0.00000E+0	0.00000E+0	2.00000E+1	1.40000E+1	2.00002E+1	1.39984E+1
15	02/09/2022	14:51:35.687	0.00000E+0	0.00000E+0	0.00000E+0	0.00000E+0	0.00000E+0	0.00000E+0	2.00000E+1	1.40000E+1	2.00002E+1	1.40001E+1
16	02/09/2022	14:51:37.166	0.00000E+0	0.00000E+0	0.00000E+0	0.00000E+0	0.00000E+0	0.00000E+0	2.00000E+1	1.40000E+1	2.00005E+1	1.40022E+1
17	02/09/2022	14:51:38.536	0.00000E+0	0.00000E+0	0.00000E+0	0.00000E+0	0.00000E+0	0.00000E+0	2.00000E+1	1.40000E+1	2.00002E+1	1.40014E+1
18	02/09/2022	14:51:39.968	0.00000E+0	0.00000E+0	0.00000E+0	0.00000E+0	0.00000E+0	0.00000E+0	2.00000E+1	1.40000E+1	1.99999E+1	1.40001E+1
19	02/09/2022	14:51:41.464	0.00000E+0	0.00000E+0	0.00000E+0	0.00000E+0	0.00000E+0	0.00000E+0	2.00000E+1	1.40000E+1	1.99991E+1	1.39998E+1
20	02/09/2022	14:51:42.859	0.00000E+0	0.00000E+0	0.00000E+0	0.00000E+0	0.00000E+0	0.00000E+0	2.00000E+1	1.40000E+1	2.00016E+1	1.39995E+1
21	02/09/2022	14:51:44.365	0.00000E+0	0.00000E+0	0.00000E+0	0.00000E+0	0.00000E+0	0.00000E+0	2.00000E+1	1.40000E+1	1.99994E+1	1.40019E+1
22	02/09/2022	14:51:45.796	0.00000E+0	0.00000E+0	0.00000E+0	0.00000E+0	0.00000E+0	0.00000E+0	2.00000E+1	1.40000E+1	1.99998E+1	1.39997E+1
23	02/09/2022	14:51:47.232	0.00000E+0	0.00000E+0	0.00000E+0	0.00000E+0	0.00000E+0	0.00000E+0	2.00000E+1	1.40000E+1	2.00001E+1	1.40017E+1
24	02/09/2022	14:51:48.725	0.00000E+0	0.00000E+0	0.00000E+0	0.00000E+0	0.00000E+0	0.00000E+0	2.00000E+1	1.40000E+1	2.00019E+1	1.40002E+1
25	02/09/2022	14:51:50.123	0.00000E+0	0.00000E+0	0.00000E+0	0.00000E+0	0.00000E+0	0.00000E+0	2.00000E+1	1.40000E+1	2.00012E+1	1.40001E+1
26	02/09/2022	14:51:51.578	0.00000E+0	0.00000E+0	0.00000E+0	0.00000E+0	0.00000E+0	0.00000E+0	2.00000E+1	1.40000E+1	2.00003E+1	1.39994E+1
27	02/09/2022	14:51:53.079	0.00000E+0	0.00000E+0	0.00000E+0	0.00000E+0	0.00000E+0	0.00000E+0	2.00000E+1	1.40000E+1	1.99990E+1	1.39997E+1
28	02/09/2022	14:51:54.476	0.00000E+0	0.00000E+0	0.00000E+0	0.00000E+0	0.00000E+0	0.00000E+0	2.00000E+1	1.40000E+1	1.99997E+1	1.39995E+1
29	02/09/2022	14:51:55.981	0.00000E+0	0.00000E+0	0.00000E+0	0.00000E+0	0.00000E+0	0.00000E+0	2.00000E+1	1.40000E+1	1.99993E+1	1.40014E+1
30	02/09/2022	14:51:57.371	0.00000E+0	0.00000E+0	0.00000E+0	0.00000E+0	0.00000E+0	0.00000E+0	2.00000E+1	1.40000E+1	2.00003E+1	1.40011E+1
31	02/09/2022	14:51:58.839	0.00000E+0	0.00000E+0	0.00000E+0	0.00000E+0	0.00000E+0	0.00000E+0	2.00000E+1	1.40000E+1	2.00008E+1	1.40007E+1
32	02/09/2022	14:52:00.351	0.00000E+0	0.00000E+0	0.00000E+0	0.00000E+0	0.00000E+0	0.00000E+0	2.00000E+1	1.40000E+1	2.00018E+1	1.39995E+1
33	02/09/2022	14:52:01.739	0.00000E+0	0.00000E+0	0.00000E+0	0.00000E+0	0.00000E+0	0.00000E+0	2.00000E+1	1.40000E+1	1.99995E+1	1.39996E+1
34	02/09/2022	14:52:03.196	0.00000E+0	0.00000E+0	0.00000E+0	0.00000E+0	0.00000E+0	0.00000E+0	2.00000E+1	1.40000E+1	2.00001E+1	1.39996E+1
35	02/09/2022	14:52:04.596	0.00000E+0	0.00000E+0	0.00000E+0	0.00000E+0	0.00000E+0	0.00000E+0	2.00000E+1	1.40000E+1	2.00017E+1	1.40038E+1
36	02/09/2022	14:52:05.995	0.00000E+0	0.00000E+0	0.00000E+0	0.00000E+0	0.00000E+0	0.00000E+0	2.00000E+1	1.40000E+1	1.99997E+1	1.40009E+1
37	02/09/2022	14:52:07.550	0.00000E+0	0.00000E+0	0.00000E+0	0.00000E+0	0.00000E+0	0.00000E+0	2.00000E+1	1.40000E+1	2.00010E+1	1.39993E+1
38	02/09/2022	14:52:08.936	0.00000E+0	0.00000E+0	0.00000E+0	0.00000E+0	0.00000E+0	0.00000E+0	2.00000E+1	1.40000E+1	1.99997E+1	1.40009E+1
39	02/09/2022	14:52:10.386	0.00000E+0	0.00000E+0	0.00000E+0	0.00000E+0	0.00000E+0	0.00000E+0	2.00000E+1	1.40000E+1	2.00000E+1	1.40006E+1
40	02/09/2022	14:52:11.829	0.00000E+0	0.00000E+0	0.00000E+0	0.00000E+0	0.00000E+0	0.00000E+0	2.00000E+1	1.40000E+1	2.00006E+1	1.40024E+1
41	02/09/2022	14:52:13.194	0.00000E+0	0.00000E+0	0.00000E+0	0.00000E+0	0.00000E+0	0.00000E+0	2.00000E+1	1.40000E+1	1.99993E+1	1.39999E+1
42	02/09/2022	14:52:14.703	0.00000E+0	0.00000E+0	0.00000E+0	0.00000E+0	0.00000E+0	0.00000E+0	2.00000E+1	1.40000E+1	2.00013E+1	1.40033E+1
43	02/09/2022	14:52:16.082	0.00000E+0	0.00000E+0	0.00000E+0	0.00000E+0	0.00000E+0	0.00000E+0	2.00000E+1	1.40000E+1	1.99989E+1	1.39975E+1
44	02/09/2022	14:52:17.478	0.00000E+0	0.00000E+0	0.00000E+0	0.00000E+0	0.00000E+0	0.00000E+0	2.00000E+1	1.40000E+1	1.99992E+1	1.39999E+1
45	02/09/2022	14:52:19.015	0.00000E+0	0.00000E+0	0.00000E+0	0.00000E+0	0.00000E+0	0.00000E+0	2.00000E+1	1.40000E+1	2.00000E+1	1.39999E+1
46	02/09/2022	14:52:20.408	0.00000E+0	0.00000E+0	0.00000E+0	0.00000E+0	0.00000E+0	0.00000E+0	2.00000E+1	1.40000E+1	1.99976E+1	1.39999E+1
47	02/09/2022	14:52:21.912	0.00000E+0	0.00000E+0	0.00000E+0	0.00000E+0	0.00000E+0	0.00000E+0	2.00000E+1	1.40000E+1	2.00005E+1	1.40020E+1
48	02/09/2022	14:52:23.304	0.00000E+0	0.00000E+0	0.00000E+0	0.00000E+0	0.00000E+0	0.00000E+0	2.00000E+1	1.40000E+1	1.99984E+1	1.40004E+1
49	02/09/2022	14:52:24.685	0.00000E+0	0.00000E+0	0.00000E+0	0.00000E+0	0.00000E+0	0.00000E+0	2.00000E+1	1.40000E+1	2.00017E+1	1.40013E+1
50	02/09/2022	14:52:26.212	0.00000E+0	0.00000E+0	0.00000E+0	0.00000E+0	0.00000E+0	0.00000E+0	2.00000E+1	1.40000E+1	2.00002E+1	1.39974E+1
51	02/09/2022	14:52:27.605	0.00000E+0	0.00000E+0	0.00000E+0	0.00000E+0	0.00000E+0	0.00000E+0	2.00000E+1	1.40000E+1	1.99987E+1	1.40014E+1
52	02/09/2022	14:52:29.031	0.00000E+0	0.00000E+0	0.00000E+0	0.00000E+0	0.00000E+0	0.00000E+0	2.00000E+1	1.40000E+1	1.99988E+1	1.40019E+1
53	02/09/2022	14:52:30.547	0.00000E+0	0.00000E+0	0.00000E+0	0.00000E+0	0.00000E+0	0.00000E+0	2.00000E+1	1.40000E+1	1.99994E+1	1.39997E+1
54	02/09/2022	14:52:31.955	0.00000E+0	0.00000E+0	0.00000E+0	0.00000E+0	0.00000E+0	0.00000E+0	2.00000E+1	1.40000E+1	2.00004E+1	1.40005E+1
55	02/09/2022	14:52:33.453	0.00000E+0	0.00000E+0	0.00000E+0	0.00000E+0	0.00000E+0	0.00000E+0	2.00000E+1	1.40000E+1	2.00019E+1	1.40000E+1
56	02/09/2022	14:52:34.843	0.00000E+0	0.00000E+0	0.00000E+0	0.00000E+0	0.00000E+0	0.00000E+0	2.00000E+1	1.40000E+1	1.99997E+1	1.39983E+1
57	02/09/2022	14:52:36.243	0.00000E+0	0.00000E+0	0.00000E+0	0.00000E+0	0.00000E+0	0.00000E+0	2.00000E+1	1.40000E+1	2.00010E+1	1.40022E+1
58	02/09/2022	14:52:37.704	0.00000E+0	0.00000E+0	0.00000E+0	0.00000E+0	0.00000E+0	0.00000E+0	2.00000E+1	1.40000E+1	1.99981E+1	1.40006E+1
59	02/09/2022	14:52:39.184	0.00000E+0	0.00000E+0	0.00000E+0	0.00000E+0	0.00000E+0	0.00000E+0	2.00000E+1	1.40000E+1	2.00000E+1	1.39990E+1
60	02/09/2022	14:52:40.706	0.00000E+0	0.00000E+0	0.00000E+0	0.00000E+0	0.00000E+0	0.00000E+0	2.00000E+1	1.40000E+1	2.00004E+1	1.40004E+1
61	02/09/2022	14:52:42.155	0.00000E+0	0.00000E+0	0.00000E+0	0.00000E+0	0.00000E+0	0.00000E+0	2.00000E+1	1.40000E+1	2.00008E+1	1.40004E+1
62	02/09/2022	14:52:43.548	0.00000E+0	0.00000E+0	0.00000E+0	0.00000E+0	0.00000E+0	0.00000E+0	2.00000E+1	1.40000E+1	2.00013E+1	1.40011E+1
63	02/09/2022	14:52:45.034	0.00000E+0	0.00000E+0	0.00000E+0	0.00000E+0	0.00000E+0	0.00000E+0	2.00000E+1	1.40000E+1	2.00025E+1	1.39993E+1
64	02/09/2022	14:52:46.435	0.00000E+0	0.00000E+0	0.00000E+0	0.00000E+0	0.00000E+0	0.00000E+0	2.00000E+1	1.40000E+1	1.99998E+1	1.39997E+1
65	02/09/2022	14:52:47.834	0.00000E+0	0.00000E+0	0.00000E+0	0.00000E+0	0.00000E+0	0.00000E+0	2.00000E+1	1.40000E+1	1.99993E+1	1.40001E+1
66	02/09/2022	14:52:49.328	0.00000E+0	0.00000E+0	0.00000E+0	0.00000E+0	0.00000E+0	0.00000E+0	2.00000E+1	1.40000E+1	1.99991E+1	1.39999E+1
67	02/09/2022	14:52:50.718	0.00000E+0	0.00000E+0	0.00000E+0	0.00000E+0	0.00000E+0	0.00000E+0	2.00000E+1	1.40000E+1	2.00004E+1	1.40021E+1
68	02/09/2022	14:52:52.278	0.00000E+0	0.00000E+0	0.00000E+0	0.00000E+0	0.00000E+0	0.00000E+0	2.00000E+1	1.40000E+1	1.99996E+1	1.40004E+1
69	02/09/2022	14:52:53.658	0.00000E+0	0.00000E+0	0.00000E+0	0.00000E+0	0.00000E+0	0.00000E+0	2.00000E+1	1.40000E+1	2.00006E+1	1.40005E+1
70	02/09/2022	14:52:55.036	0.00000E+0	0.00000E+0	0.00000E+0	0.00000E+0	0.00000E+0	0.00000E+0	2.00000E+1	1.40000E+1	1.99983E+1	1.40001E+1
71	02/09/2022	14:52:56.561	0.00000E+0	0.00000E+0	0.00000E+0	0.00000E+0	0.00000E+0	0.00000E+0	2.00000E+1	1.40000E+1	1.99992E+1	1.40000E+1
72	02/09/2022	14:52:57.947	0.00000E+0	0.00000E+0	0.00000E+0	0.00000E+0	0.00000E+0	0.00000E+0	2.00000E+1	1.40000E+1	1.99986E+1	1.40017E+1
73	02/09/2022	14:52:59.379	0.00000E+0	0.00000E+0	0.00000E+0	0.00000E+0	0.00000E+0	0.00000E+0	2.00000E+1	1.40000E+1	2.00021E+1	1.39994E+1
74	02/09/2022	14:53:00.866	0.00000E+0	0.00000E+0	0.00000E+0	0.00000E+0	0.00000E+0	0.00000E+0	2.00000E+1	1.40000E+1	2.00003E+1	1.40017E+1
75	02/09/2022	14:53:02.253	0.00000E+0	0.00000E+0	0.00000E+0	0.00000E+0	0.00000E+0	0.00000E+0	2.00000E+1	1.40000E+1	2.00000E+1	1.40001E+1
76	02/09/2022	14:53:03.769	0.00000E+0	0.00000E+0	0.00000E+0	0.00000E+0	0.00000E+0	0.00000E+0	2.00000E+1	1.40000E+1	2.00013E+1	1.39993E+1
77	02/09/2022	14:53:05.159	0.00000E+0	0.00000E+0	0.00000E+0	0.00000E+0	0.00000E+0	0.00000E+0	2.00000E+1	1.40000E+1	2.00015E+1	1.40014E+1
78	02/09/2022	14:53:06.535	0.00000E+0	0.00000E+0	0.00000E+0	0.00000E+0	0.00000E+0	0.00000E+0	2.00000E+1	1.40000E+1	2.00018E+1	1.39996E+1
79	02/09/2022	14:53:08.117	0.00000E+0	0.00000E+0	0.00000E+0	0.00000E+0	0.00000E+0	0.00000E+0	2.00000E+1	1.40000E+1	1.99997E+1	1.40002E+1
80	02/09/2022	14:53:09.499	0.00000E+0	0.00000E+0	0.00000E+0	0.00000E+0	0.00000E+0	0.00000E+0	2.00000E+1	1.40000E+1	2.00007E+1	1.39988E+1
81	02/09/2022	14:53:10.985	0.00000E+0	0.00000E+0	0.00000E+0	0.00000E+0	0.00000E+0	0.00000E+0	2.00000E+1	1.40000E+1	2.00014E+1	1.39991E+1
82	02/09/2022	14:53:12.395	0.00000E+0	0.00000E+0	0.00000E+0	0.00000E+0	0.00000E+0	0.00000E+0	2.00000E+1	1.40000E+1	2.00000E+1	1.40010E+1
83	02/09/2022	14:53:13.802	0.00000E+0	0.00000E+0	0.00000E+0	0.00000E+0	0.00000E+0	0.00000E+0	2.00000E+1	1.40000E+1	1.99993E+1	1.40027E+1
84	02/09/2022	14:53:15.338	0.00000E+0	0.00000E+0	0.00000E+0	0.00000E+0	0.00000E+0	0.00000E+0	2.00000E+1	1.40000E+1	1.99989E+1	1.39996E+1
85	02/09/2022	14:53:16.725	0.00000E+0	0.00000E+0	0.00000E+0	0.00000E+0	0.00000E+0	0.00000E+0	2.00000E+1	1.40000E+1	1.99989E+1	1.40011E+1
86	02/09/2022	14:53:18.139	0.00000E+0	0.00000E+0	0.00000E+0	0.00000E+0	0.00000E+0	0.00000E+0	2.00000E+1	1.40000E+1	1.99996E+1	1.40010E+1
87	02/09/2022	14:53:19.623	0.00000E+0	0.00000E+0	0.00000E+0	0.00000E+0	0.00000E+0	0.00000E+0	2.00000E+1	1.40000E+1	1.99995E+1	1.40009E+1
88	02/09/2022	14:53:21.031	0.00000E+0	0.00000E+0	0.00000E+0	0.00000E+0	0.00000E+0	0.00000E+0	2.00000E+1	1.40000E+1	2.00010E+1	1.39985E+1
89	02/09/2022	14:53:22.487	0.00000E+0	0.00000E+0	0.00000E+0	0.00000E+0	0.00000E+0	0.00000E+0	2.00000E+1	1.40000E+1	1.99994E+1	1.40004E+1
90	02/09/2022	14:53:23.881	0.00000E+0	0.00000E+0	0.00000E+0	0.00000E+0	0.00000E+0	0.00000E+0	2.00000E+1	1.40000E+1	2.00010E+1	1.40016E+1
91	02/09/2022	14:53:25.266	0.00000E+0	0.00000E+0	0.00000E+0	0.00000E+0	0.00000E+0	0.00000E+0	2.00000E+1	1.40000E+1	2.00024E+1	1.39985E+1
92	02/09/2022	14:53:26.834	0.00000E+0	0.00000E+0	0.00000E+0	0.00000E+0	0.00000E+0	0.00000E+0	2.00000E+1	1.40000E+1	1.99988E+1	1.40016E+1
93	02/09/2022	14:53:28.207	0.00000E+0	0.00000E+0	0.00000E+0	0.00000E+0	0.00000E+0	0.00000E+0	2.00000E+1	1.40000E+1	2.00025E+1	1.40012E+1
94	02/09/2022	14:53:29.600	0.00000E+0	0.00000E+0	0.00000E+0	0.00000E+0	0.00000E+0	0.00000E+0	2.00000E+1	1.40000E+1	1.99993E+1	1.39990E+1
95	02/09/2022	14:53:30.939	0.00000E+0	0.00000E+0	0.00000E+0	0.00000E+0	0.00000E+0	0.00000E+0	2.00000E+1	1.40000E+1	2.00014E+1	1.39996E+1
96	02/09/2022	14:53:32.318	0.00000E+0	0.00000E+0	0.00000E+0	0.00000E+0	0.00000E+0	0.00000E+0	2.00000E+1	1.40000E+1	1.99969E+1	1.39996E+1
97	02/09/2022	14:53:33.863	0.00000E+0	0.00000E+0	0.00000E+0	0.00000E+0	0.00000E+0	0.00000E+0	2.00000E+1	1.40000E+1	2.00022E+1	1.40004E+1
98	02/09/2022	14:53:35.267	0.00000E+0	0.00000E+0	0.00000E+0	0.00000E+0	0.00000E+0	0.00000E+0	2.00000E+1	1.40000E+1	1.99978E+1	1.40008E+1
99	02/09/2022	14:53:36.723	0.00000E+0	0.00000E+0	0.00000E+0	0.00000E+0	0.00000E+0	0.00000E+0	2.00000E+1	1.40000E+1	1.99984E+1	1.39993E+1
100	02/09/2022	14:53:38.213	0.00000E+0	0.00000E+0	0.00000E+0	0.00000E+0	0.00000E+0	0.00000E+0	2.00000E+1	1.40000E+1	1.99999E+1	1.40013E+1
101	02/09/2022	14:53:39.608	0.00000E+0	0.00000E+0	0.00000E+0	0.00000E+0	0.00000E+0	0.00000E+0	2.00000E+1	1.40000E+1	1.99996E+1	1.40028E+1
102	02/09/2022	14:53:41.135	0.00000E+0	0.00000E+0	0.00000E+0	0.00000E+0	0.00000E+0	0.00000E+0	2.00000E+1	1.40000E+1	1.99998E+1	1.40002E+1
103	02/09/2022	14:53:42.527	0.00000E+0	0.00000E+0	0.00000E+0	0.00000E+0	0.00000E+0	0.00000E+0	2.00000E+1	1.40000E+1	2.00002E+1	1.39986E+1
104	02/09/2022	14:53:43.890	0.00000E+0	0.00000E+0	0.00000E+0	0.00000E+0	0.00000E+0	0.00000E+0	2.00000E+1	1.40000E+1	1.99999E+1	1.40011E+1
105	02/09/2022	14:53:45.362	0.00000E+0	0.00000E+0	0.00000E+0	0.00000E+0	0.00000E+0	0.00000E+0	2.00000E+1	1.40000E+1	1.99994E+1	1.39992E+1
106	02/09/2022	14:53:46.768	0.00000E+0	0.00000E+0	0.00000E+0	0.00000E+0	0.00000E+0	0.00000E+0	2.00000E+1	1.40000E+1	2.00004E+1	1.39991E+1
107	02/09/2022	14:53:48.158	0.00000E+0	0.00000E+0	0.00000E+0	0.00000E+0	0.00000E+0	0.00000E+0	2.00000E+1	1.40000E+1	1.99989E+1	1.40006E+1
108	02/09/2022	14:53:49.645	0.00000E+0	0.00000E+0	0.00000E+0	0.00000E+0	0.00000E+0	0.00000E+0	2.00000E+1	1.40000E+1	1.99994E+1	1.39999E+1
109	02/09/2022	14:53:51.021	0.00000E+0	0.00000E+0	0.00000E+0	0.00000E+0	0.00000E+0	0.00000E+0	2.00000E+1	1.40000E+1	1.99992E+1	1.39957E+1
110	02/09/2022	14:53:52.562	0.00000E+0	0.00000E+0	0.00000E+0	0.00000E+0	0.00000E+0	0.00000E+0	2.00000E+1	1.40000E+1	2.00007E+1	1.39996E+1
111	02/09/2022	14:53:53.957	0.00000E+0	0.00000E+0	0.00000E+0	0.00000E+0	0.00000E+0	0.00000E+0	2.00000E+1	1.40000E+1	1.99990E+1	1.39992E+1
112	02/09/2022	14:53:55.345	0.00000E+0	0.00000E+0	0.00000E+0	0.00000E+0	0.00000E+0	0.00000E+0	2.00000E+1	1.40000E+1	2.00018E+1	1.39989E+1
113	02/09/2022	14:53:56.826	0.00000E+0	0.00000E+0	0.00000E+0	0.00000E+0	0.00000E+0	0.00000E+0	2.00000E+1	1.40000E+1	2.00023E+1	1.40046E+1
114	02/09/2022	14:53:58.217	0.00000E+0	0.00000E+0	0.00000E+0	0.00000E+0	0.00000E+0	0.00000E+0	2.00000E+1	1.40000E+1	1.99966E+1	1.39990E+1
115	02/09/2022	14:53:59.707	0.00000E+0	0.00000E+0	0.00000E+0	0.00000E+0	0.00000E+0	0.00000E+0	2.00000E+1	1.40000E+1	1.99975E+1	1.40008E+1
116	02/09/2022	14:54:01.143	0.00000E+0	0.00000E+0	0.00000E+0	0.00000E+0	0.00000E+0	0.00000E+0	2.00000E+1	1.40000E+1	2.00012E+1	1.39992E+1
117	02/09/2022	14:54:02.533	0.00000E+0	0.00000E+0	0.00000E+0	0.00000E+0	0.00000E+0	0.00000E+0	2.00000E+1	1.40000E+1	1.99980E+1	1.40004E+1
118	02/09/2022	14:54:03.993	0.00000E+0	0.00000E+0	0.00000E+0	0.00000E+0	0.00000E+0	0.00000E+0	2.00000E+1	1.40000E+1	1.99993E+1	1.39994E+1
119	02/09/2022	14:54:05.393	0.00000E+0	0.00000E+0	0.00000E+0	0.00000E+0	0.00000E+0	0.00000E+0	2.00000E+1	1.40000E+1	2.00006E+1	1.39998E+1
120	02/09/2022	14:54:06.781	0.00000E+0	0.00000E+0	0.00000E+0	0.00000E+0	0.00000E+0	0.00000E+0	2.00000E+1	1.40000E+1	2.00006E+1	1.39991E+1
121	02/09/2022	14:54:08.280	0.00000E+0	0.00000E+0	0.00000E+0	0.00000E+0	0.00000E+0	0.00000E+0	2.00000E+1	1.40000E+1	1.99996E+1	1.40005E+1
122	02/09/2022	14:54:09.669	0.00000E+0	0.00000E+0	0.00000E+0	0.00000E+0	0.00000E+0	0.00000E+0	2.00000E+1	1.40000E+1	2.00010E+1	1.39994E+1
123	02/09/2022	14:54:11.110	0.00000E+0	0.00000E+0	0.00000E+0	0.00000E+0	0.00000E+0	0.00000E+0	2.00000E+1	1.40000E+1	1.99999E+1	1.39998E+1
124	02/09/2022	14:54:12.491	0.00000E+0	0.00000E+0	0.00000E+0	0.00000E+0	0.00000E+0	0.00000E+0	2.00000E+1	1.40000E+1	1.99994E+1	1.39991E+1
125	02/09/2022	14:54:13.861	0.00000E+0	0.00000E+0	0.00000E+0	0.00000E+0	0.00000E+0	0.00000E+0	2.00000E+1	1.40000E+1	2.00000E+1	1.40013E+1
126	02/09/2022	14:54:15.412	0.00000E+0	0.00000E+0	0.00000E+0	0.00000E+0	0.00000E+0	0.00000E+0	2.00000E+1	1.40000E+1	2.00010E+1	1.40003E+1
127	02/09/2022	14:54:16.802	0.00000E+0	0.00000E+0	0.00000E+0	0.00000E+0	0.00000E+0	0.00000E+0	2.00000E+1	1.40000E+1	1.99995E+1	1.39992E+1
128	02/09/2022	14:54:18.273	0.00000E+0	0.00000E+0	0.00000E+0	0.00000E+0	0.00000E+0	0.00000E+0	2.00000E+1	1.40000E+1	1.99993E+1	1.40011E+1
129	02/09/2022	14:54:19.765	0.00000E+0	0.00000E+0	0.00000E+0	0.00000E+0	0.00000E+0	0.00000E+0	2.00000E+1	1.40000E+1	1.99976E+1	1.40002E+1
130	02/09/2022	14:54:21.146	0.00000E+0	0.00000E+0	0.00000E+0	0.00000E+0	0.00000E+0	0.00000E+0	2.00000E+1	1.40000E+1	1.99990E+1	1.40032E+1
131	02/09/2022	14:54:22.637	0.00000E+0	0.00000E+0	0.00000E+0	0.00000E+0	0.00000E+0	0.00000E+0	2.00000E+1	1.40000E+1	1.99995E+1	1.39998E+1
132	02/09/2022	14:54:24.016	0.00000E+0	0.00000E+0	0.00000E+0	0.00000E+0	0.00000E+0	0.00000E+0	2.00000E+1	1.40000E+1	1.99997E+1	1.39997E+1
133	02/09/2022	14:54:25.469	0.00000E+0	0.00000E+0	0.00000E+0	0.00000E+0	0.00000E+0	0.00000E+0	2.00000E+1	1.40000E+1	2.00009E+1	1.40024E+1
134	02/09/2022	14:54:26.981	0.00000E+0	0.00000E+0	0.00000E+0	0.00000E+0	0.00000E+0	0.00000E+0	2.00000E+1	1.40000E+1	1.99978E+1	1.40013E+1
135	02/09/2022	14:54:28.354	0.00000E+0	0.00000E+0	0.00000E+0	0.00000E+0	0.00000E+0	0.00000E+0	2.00000E+1	1.40000E+1	2.00014E+1	1.39993E+1
136	02/09/2022	14:54:29.788	0.00000E+0	0.00000E+0	0.00000E+0	0.00000E+0	0.00000E+0	0.00000E+0	2.00000E+1	1.40000E+1	2.00010E+1	1.39982E+1
137	02/09/2022	14:54:31.236	0.00000E+0	0.00000E+0	0.00000E+0	0.00000E+0	0.00000E+0	0.00000E+0	2.00000E+1	1.40000E+1	2.00019E+1	1.40015E+1
138	02/09/2022	14:54:32.613	0.00000E+0	0.00000E+0	0.00000E+0	0.00000E+0	0.00000E+0	0.00000E+0	2.00000E+1	1.40000E+1	2.00007E+1	1.40008E+1
139	02/09/2022	14:54:34.101	0.00000E+0	0.00000E+0	0.00000E+0	0.00000E+0	0.00000E+0	0.00000E+0	2.00000E+1	1.40000E+1	2.00002E+1	1.40001E+1
140	02/09/2022	14:54:35.473	0.00000E+0	0.00000E+0	0.00000E+0	0.00000E+0	0.00000E+0	0.00000E+0	2.00000E+1	1.40000E+1	1.99996E+1	1.39989E+1
141	02/09/2022	14:54:36.898	0.00000E+0	0.00000E+0	0.00000E+0	0.00000E+0	0.00000E+0	0.00000E+0	2.00000E+1	1.40000E+1	2.00013E+1	1.39993E+1
142	02/09/2022	14:54:38.424	0.00000E+0	0.00000E+0	0.00000E+0	0.00000E+0	0.00000E+0	0.00000E+0	2.00000E+1	1.40000E+1	1.99997E+1	1.40001E+1
143	02/09/2022	14:54:39.794	0.00000E+0	0.00000E+0	0.00000E+0	0.00000E+0	0.00000E+0	0.00000E+0	2.00000E+1	1.40000E+1	2.00004E+1	1.40023E+1
144	02/09/2022	14:54:41.226	0.00000E+0	0.00000E+0	0.00000E+0	0.00000E+0	0.00000E+0	0.00000E+0	2.00000E+1	1.40000E+1	1.99993E+1	1.40007E+1
145	02/09/2022	14:54:42.608	0.00000E+0	0.00000E+0	0.00000E+0	0.00000E+0	0.00000E+0	0.00000E+0	2.00000E+1	1.40000E+1	1.99974E+1	1.40037E+1
146	02/09/2022	14:54:43.993	0.00000E+0	0.00000E+0	0.00000E+0	0.00000E+0	0.00000E+0	0.00000E+0	2.00000E+1	1.40000E+1	1.99992E+1	1.39970E+1
147	02/09/2022	14:54:45.550	0.00000E+0	0.00000E+0	0.00000E+0	0.00000E+0	0.00000E+0	0.00000E+0	2.00000E+1	1.40000E+1	1.99995E+1	1.40030E+1
148	02/09/2022	14:54:46.930	0.00000E+0	0.00000E+0	0.00000E+0	0.00000E+0	0.00000E+0	0.00000E+0	2.00000E+1	1.40000E+1	2.00008E+1	1.40015E+1
149	02/09/2022	14:54:48.376	0.00000E+0	0.00000E+0	0.00000E+0	0.00000E+0	0.00000E+0	0.00000E+0	2.00000E+1	1.40000E+1	1.99997E+1	1.39980E+1
150	02/09/2022	14:54:49.727	0.00000E+0	0.00000E+0	0.00000E+0	0.00000E+0	0.00000E+0	0.00000E+0	2.00000E+1	1.40000E+1	2.00021E+1	1.39992E+1
151	02/09/2022	14:54:51.126	0.00000E+0	0.00000E+0	0.00000E+0	0.00000E+0	0.00000E+0	0.00000E+0	2.00000E+1	1.40000E+1	2.00015E+1	1.40010E+1
152	02/09/2022	14:54:52.653	0.00000E+0	0.00000E+0	0.00000E+0	0.00000E+0	0.00000E+0	0.00000E+0	2.00000E+1	1.40000E+1	2.00019E+1	1.39973E+1
153	02/09/2022	14:54:54.016	0.00000E+0	0.00000E+0	0.00000E+0	0.00000E+0	0.00000E+0	0.00000E+0	2.00000E+1	1.40000E+1	2.00019E+1	1.40013E+1
154	02/09/2022	14:54:55.428	0.00000E+0	0.00000E+0	0.00000E+0	0.00000E+0	0.00000E+0	0.00000E+0	2.00000E+1	1.40000E+1	1.99995E+1	1.40014E+1
155	02/09/2022	14:54:56.900	0.00000E+0	0.00000E+0	0.00000E+0	0.00000E+0	0.00000E+0	0.00000E+0	2.00000E+1	1.40000E+1	2.00002E+1	1.39968E+1
156	02/09/2022	14:54:58.303	0.00000E+0	0.00000E+0	0.00000E+0	0.00000E+0	0.00000E+0	0.00000E+0	2.00000E+1	1.40000E+1	1.99970E+1	1.39979E+1
157	02/09/2022	14:54:59.784	0.00000E+0	0.00000E+0	0.00000E+0	0.00000E+0	0.00000E+0	0.00000E+0	2.00000E+1	1.40000E+1	1.99992E+1	1.39978E+1
158	02/09/2022	14:55:01.172	0.00000E+0	0.00000E+0	0.00000E+0	0.00000E+0	0.00000E+0	0.00000E+0	2.00000E+1	1.40000E+1	2.00002E+1	1.39977E+1
159	02/09/2022	14:55:02.557	0.00000E+0	0.00000E+0	0.00000E+0	0.00000E+0	0.00000E+0	0.00000E+0	2.00000E+1	1.40000E+1	1.99983E+1	1.39997E+1
160	02/09/2022	14:55:04.051	0.00000E+0	0.00000E+0	0.00000E+0	0.00000E+0	0.00000E+0	0.00000E+0	2.00000E+1	1.40000E+1	1.99980E+1	1.40000E+1
161	02/09/2022	14:55:05.435	0.00000E+0	0.00000E+0	0.00000E+0	0.00000E+0	0.00000E+0	0.00000E+0	2.00000E+1	1.40000E+1	2.00015E+1	1.40002E+1
162	02/09/2022	14:55:06.880	0.00000E+0	0.00000E+0	0.00000E+0	0.00000E+0	0.00000E+0	0.00000E+0	2.00000E+1	1.40000E+1	2.00000E+1	1.40008E+1
163	02/09/2022	14:55:08.387	0.00000E+0	0.00000E+0	0.00000E+0	0.00000E+0	0.00000E+0	0.00000E+0	2.00000E+1	1.40000E+1	2.00021E+1	1.39978E+1
164	02/09/2022	14:55:09.769	0.00000E+0	0.00000E+0	0.00000E+0	0.00000E+0	0.00000E+0	0.00000E+0	2.00000E+1	1.40000E+1	2.00030E+1	1.39985E+1
165	02/09/2022	14:55:11.233	0.00000E+0	0.00000E+0	0.00000E+0	0.00000E+0	0.00000E+0	0.00000E+0	2.00000E+1	1.40000E+1	1.99988E+1	1.39992E+1
166	02/09/2022	14:55:12.627	0.00000E+0	0.00000E+0	0.00000E+0	0.00000E+0	0.00000E+0	0.00000E+0	2.00000E+1	1.40000E+1	1.99995E+1	1.40004E+1
167	02/09/2022	14:55:14.011	0.00000E+0	0.00000E+0	0.00000E+0	0.00000E+0	0.00000E+0	0.00000E+0	2.00000E+1	1.40000E+1	1.99977E+1	1.40015E+1
168	02/09/2022	14:55:15.460	0.00000E+0	0.00000E+0	0.00000E+0	0.00000E+0	0.00000E+0	0.00000E+0	2.00000E+1	1.40000E+1	2.00010E+1	1.40011E+1
169	02/09/2022	14:55:16.842	0.00000E+0	0.00000E+0	0.00000E+0	0.00000E+0	0.00000E+0	0.00000E+0	2.00000E+1	1.40000E+1	2.00009E+1	1.39989E+1
170	02/09/2022	14:55:18.267	0.00000E+0	0.00000E+0	0.00000E+0	0.00000E+0	0.00000E+0	0.00000E+0	2.00000E+1	1.40000E+1	2.00011E+1	1.40010E+1
171	02/09/2022	14:55:19.748	0.00000E+0	0.00000E+0	0.00000E+0	0.00000E+0	0.00000E+0	0.00000E+0	2.00000E+1	1.40000E+1	2.00011E+1	1.39995E+1
172	02/09/2022	14:55:21.129	0.00000E+0	0.00000E+0	0.00000E+0	0.00000E+0	0.00000E+0	0.00000E+0	2.00000E+1	1.40000E+1	1.99997E+1	1.40001E+1
173	02/09/2022	14:55:22.632	0.00000E+0	0.00000E+0	0.00000E+0	0.00000E+0	0.00000E+0	0.00000E+0	2.00000E+1	1.40000E+1	2.00006E+1	1.40015E+1
174	02/09/2022	14:55:24.025	0.00000E+0	0.00000E+0	0.00000E+0	0.00000E+0	0.00000E+0	0.00000E+0	2.00000E+1	1.40000E+1	1.99976E+1	1.39983E+1
175	02/09/2022	14:55:25.422	0.00000E+0	0.00000E+0	0.00000E+0	0.00000E+0	0.00000E+0	0.00000E+0	2.00000E+1	1.40000E+1	1.99978E+1	1.39999E+1
176	02/09/2022	14:55:26.912	0.00000E+0	0.00000E+0	0.00000E+0	0.00000E+0	0.00000E+0	0.00000E+0	2.00000E+1	1.40000E+1	2.00019E+1	1.39996E+1
177	02/09/2022	14:55:28.321	0.00000E+0	0.00000E+0	0.00000E+0	0.00000E+0	0.00000E+0	0.00000E+0	2.00000E+1	1.40000E+1	1.99996E+1	1.40018E+1
178	02/09/2022	14:55:29.815	0.00000E+0	0.00000E+0	0.00000E+0	0.00000E+0	0.00000E+0	0.00000E+0	2.00000E+1	1.40000E+1	2.00017E+1	1.39976E+1
179	02/09/2022	14:55:31.227	0.00000E+0	0.00000E+0	0.00000E+0	0.00000E+0	0.00000E+0	0.00000E+0	2.00000E+1	1.40000E+1	1.99984E+1	1.40031E+1
180	02/09/2022	14:55:32.588	0.00000E+0	0.00000E+0	0.00000E+0	0.00000E+0	0.00000E+0	0.00000E+0	2.00000E+1	1.40000E+1	2.00018E+1	1.40016E+1
181	02/09/2022	14:55:34.053	0.00000E+0	0.00000E+0	0.00000E+0	0.00000E+0	0.00000E+0	0.00000E+0	2.00000E+1	1.40000E+1	2.00020E+1	1.39991E+1
182	02/09/2022	14:55:35.451	0.00000E+0	0.00000E+0	0.00000E+0	0.00000E+0	0.00000E+0	0.00000E+0	2.00000E+1	1.40000E+1	1.99997E+1	1.40013E+1
183	02/09/2022	14:55:36.833	0.00000E+0	0.00000E+0	0.00000E+0	0.00000E+0	0.00000E+0	0.00000E+0	2.00000E+1	1.40000E+1	1.99974E+1	1.40008E+1
184	02/09/2022	14:55:38.302	0.00000E+0	0.00000E+0	0.00000E+0	0.00000E+0	0.00000E+0	0.00000E+0	2.00000E+1	1.40000E+1	1.99997E+1	1.40004E+1
185	02/09/2022	14:55:39.687	0.00000E+0	0.00000E+0	0.00000E+0	0.00000E+0	0.00000E+0	0.00000E+0	2.00000E+1	1.40000E+1	2.00000E+1	1.40006E+1
186	02/09/2022	14:55:41.213	0.00000E+0	0.00000E+0	0.00000E+0	0.00000E+0	0.00000E+0	0.00000E+0	2.00000E+1	1.40000E+1	2.00024E+1	1.39997E+1
187	02/09/2022	14:55:42.595	0.00000E+0	0.00000E+0	0.00000E+0	0.00000E+0	0.00000E+0	0.00000E+0	2.00000E+1	1.40000E+1	1.99993E+1	1.39978E+1
188	02/09/2022	14:55:43.968	0.00000E+0	0.00000E+0	0.00000E+0	0.00000E+0	0.00000E+0	0.00000E+0	2.00000E+1	1.40000E+1	2.00006E+1	1.39992E+1
189	02/09/2022	14:55:45.525	0.00000E+0	0.00000E+0	0.00000E+0	0.00000E+0	0.00000E+0	0.00000E+0	2.00000E+1	1.40000E+1	2.00005E+1	1.39979E+1
190	02/09/2022	14:55:46.955	0.00000E+0	0.00000E+0	0.00000E+0	0.00000E+0	0.00000E+0	0.00000E+0	2.00000E+1	1.40000E+1	2.00019E+1	1.39981E+1
191	02/09/2022	14:55:48.417	0.00000E+0	0.00000E+0	0.00000E+0	0.00000E+0	0.00000E+0	0.00000E+0	2.00000E+1	1.40000E+1	2.00016E+1	1.39995E+1
192	02/09/2022	14:55:49.829	0.00000E+0	0.00000E+0	0.00000E+0	0.00000E+0	0.00000E+0	0.00000E+0	2.00000E+1	1.40000E+1	2.00020E+1	1.40029E+1
193	02/09/2022	14:55:51.220	0.00000E+0	0.00000E+0	0.00000E+0	0.00000E+0	0.00000E+0	0.00000E+0	2.00000E+1	1.40000E+1	2.00025E+1	1.39990E+1
194	02/09/2022	14:55:52.680	0.00000E+0	0.00000E+0	0.00000E+0	0.00000E+0	0.00000E+0	0.00000E+0	2.00000E+1	1.40000E+1	2.00013E+1	1.40015E+1
195	02/09/2022	14:55:54.064	0.00000E+0	0.00000E+0	0.00000E+0	0.00000E+0	0.00000E+0	0.00000E+0	2.00000E+1	1.40000E+1	2.00002E+1	1.39985E+1
196	02/09/2022	14:55:55.518	0.00000E+0	0.00000E+0	0.00000E+0	0.00000E+0	0.00000E+0	0.00000E+0	2.00000E+1	1.40000E+1	1.99992E+1	1.39972E+1
197	02/09/2022	14:55:57.003	0.00000E+0	0.00000E+0	0.00000E+0	0.00000E+0	0.00000E+0	0.00000E+0	2.00000E+1	1.40000E+1	1.99994E+1	1.39995E+1
198	02/09/2022	14:55:58.390	0.00000E+0	0.00000E+0	0.00000E+0	0.00000E+0	0.00000E+0	0.00000E+0	2.00000E+1	1.40000E+1	1.99995E+1	1.39991E+1
199	02/09/2022	14:55:59.859	0.00000E+0	0.00000E+0	0.00000E+0	0.00000E+0	0.00000E+0	0.00000E+0	2.00000E+1	1.40000E+1	2.00014E+1	1.40020E+1
200	02/09/2022	14:56:01.228	0.00000E+0	0.00000E+0	0.00000E+0	0.00000E+0	0.00000E+0	0.00000E+0	2.00000E+1	1.40000E+1	1.99995E+1	1.40030E+1
201	02/09/2022	14:56:02.616	0.00000E+0	0.00000E+0	0.00000E+0	0.00000E+0	0.00000E+0	0.00000E+0	2.00000E+1	1.40000E+1	1.99993E+1	1.39992E+1
202	02/09/2022	14:56:04.116	0.00000E+0	0.00000E+0	0.00000E+0	0.00000E+0	0.00000E+0	0.00000E+0	2.00000E+1	1.40000E+1	1.99973E+1	1.39992E+1
203	02/09/2022	14:56:05.513	0.00000E+0	0.00000E+0	0.00000E+0	0.00000E+0	0.00000E+0	0.00000E+0	2.00000E+1	1.40000E+1	1.99973E+1	1.40027E+1
204	02/09/2022	14:56:06.906	0.00000E+0	0.00000E+0	0.00000E+0	0.00000E+0	0.00000E+0	0.00000E+0	2.00000E+1	1.40000E+1	2.00019E+1	1.40015E+1
205	02/09/2022	14:56:08.293	0.00000E+0	0.00000E+0	0.00000E+0	0.00000E+0	0.00000E+0	0.00000E+0	2.00000E+1	1.40000E+1	1.99992E+1	1.39979E+1
206	02/09/2022	14:56:09.699	0.00000E+0	0.00000E+0	0.00000E+0	0.00000E+0	0.00000E+0	0.00000E+0	2.00000E+1	1.40000E+1	1.99993E+1	1.39988E+1
207	02/09/2022	14:56:11.217	0.00000E+0	0.00000E+0	0.00000E+0	0.00000E+0	0.00000E+0	0.00000E+0	2.00000E+1	1.40000E+1	2.00012E+1	1.40006E+1
208	02/09/2022	14:56:12.707	0.00000E+0	0.00000E+0	0.00000E+0	0.00000E+0	0.00000E+0	0.00000E+0	2.00000E+1	1.40000E+1	1.99981E+1	1.39994E+1
209	02/09/2022	14:56:14.090	0.00000E+0	0.00000E+0	0.00000E+0	0.00000E+0	0.00000E+0	0.00000E+0	2.00000E+1	1.40000E+1	2.00007E+1	1.39987E+1
210	02/09/2022	14:56:15.584	0.00000E+0	0.00000E+0	0.00000E+0	0.00000E+0	0.00000E+0	0.00000E+0	2.00000E+1	1.40000E+1	2.00004E+1	1.40004E+1
211	02/09/2022	14:56:16.973	0.00000E+0	0.00000E+0	0.00000E+0	0.00000E+0	0.00000E+0	0.00000E+0	2.00000E+1	1.40000E+1	2.00018E+1	1.40018E+1
212	02/09/2022	14:56:18.486	0.00000E+0	0.00000E+0	0.00000E+0	0.00000E+0	0.00000E+0	0.00000E+0	2.00000E+1	1.40000E+1	2.00005E+1	1.39985E+1
213	02/09/2022	14:56:19.856	0.00000E+0	0.00000E+0	0.00000E+0	0.00000E+0	0.00000E+0	0.00000E+0	2.00000E+1	1.40000E+1	1.99996E+1	1.40000E+1
214	02/09/2022	14:56:21.256	0.00000E+0	0.00000E+0	0.00000E+0	0.00000E+0	0.00000E+0	0.00000E+0	2.00000E+1	1.40000E+1	1.99999E+1	1.40025E+1
215	02/09/2022	14:56:22.753	0.00000E+0	0.00000E+0	0.00000E+0	0.00000E+0	0.00000E+0	0.00000E+0	2.00000E+1	1.40000E+1	1.99998E+1	1.39990E+1
216	02/09/2022	14:56:24.152	0.00000E+0	0.00000E+0	0.00000E+0	0.00000E+0	0.00000E+0	0.00000E+0	2.00000E+1	1.40000E+1	1.99999E+1	1.40027E+1
217	02/09/2022	14:56:25.531	0.00000E+0	0.00000E+0	0.00000E+0	0.00000E+0	0.00000E+0	0.00000E+0	2.00000E+1	1.40000E+1	1.99997E+1	1.39990E+1
218	02/09/2022	14:56:27.058	0.00000E+0	0.00000E+0	0.00000E+0	0.00000E+0	0.00000E+0	0.00000E+0	2.00000E+1	1.40000E+1	1.99974E+1	1.40001E+1
219	02/09/2022	14:56:28.436	0.00000E+0	0.00000E+0	0.00000E+0	0.00000E+0	0.00000E+0	0.00000E+0	2.00000E+1	1.40000E+1	1.99995E+1	1.39989E+1
220	02/09/2022	14:56:29.969	0.00000E+0	0.00000E+0	0.00000E+0	0.00000E+0	0.00000E+0	0.00000E+0	2.00000E+1	1.40000E+1	2.00014E+1	1.39988E+1
221	02/09/2022	14:56:31.355	0.00000E+0	0.00000E+0	0.00000E+0	0.00000E+0	0.00000E+0	0.00000E+0	2.00000E+1	1.40000E+1	1.99985E+1	1.40023E+1
222	02/09/2022	14:56:32.747	0.00000E+0	0.00000E+0	0.00000E+0	0.00000E+0	0.00000E+0	0.00000E+0	2.00000E+1	1.40000E+1	1.99984E+1	1.39996E+1
223	02/09/2022	14:56:34.203	0.00000E+0	0.00000E+0	0.00000E+0	0.00000E+0	0.00000E+0	0.00000E+0	2.00000E+1	1.40000E+1	2.00015E+1	1.39997E+1
224	02/09/2022	14:56:35.599	0.00000E+0	0.00000E+0	0.00000E+0	0.00000E+0	0.00000E+0	0.00000E+0	2.00000E+1	1.40000E+1	2.00006E+1	1.39990E+1
225	02/09/2022	14:56:37.087	0.00000E+0	0.00000E+0	0.00000E+0	0.00000E+0	0.00000E+0	0.00000E+0	2.00000E+1	1.40000E+1	1.99999E+1	1.40011E+1
226	02/09/2022	14:56:38.530	0.00000E+0	0.00000E+0	0.00000E+0	0.00000E+0	0.00000E+0	0.00000E+0	2.00000E+1	1.40000E+1	2.00003E+1	1.39994E+1
227	02/09/2022	14:56:39.890	0.00000E+0	0.00000E+0	0.00000E+0	0.00000E+0	0.00000E+0	0.00000E+0	2.00000E+1	1.40000E+1	1.99989E+1	1.40005E+1
228	02/09/2022	14:56:41.415	0.00000E+0	0.00000E+0	0.00000E+0	0.00000E+0	0.00000E+0	0.00000E+0	2.00000E+1	1.40000E+1	1.99998E+1	1.40019E+1
229	02/09/2022	14:56:42.778	0.00000E+0	0.00000E+0	0.00000E+0	0.00000E+0	0.00000E+0	0.00000E+0	2.00000E+1	1.40000E+1	1.99993E+1	1.40002E+1
230	02/09/2022	14:56:44.217	0.00000E+0	0.00000E+0	0.00000E+0	0.00000E+0	0.00000E+0	0.00000E+0	2.00000E+1	1.40000E+1	2.00003E+1	1.40013E+1
231	02/09/2022	14:56:45.732	0.00000E+0	0.00000E+0	0.00000E+0	0.00000E+0	0.00000E+0	0.00000E+0	2.00000E+1	1.40000E+1	1.99983E+1	1.40018E+1
232	02/09/2022	14:56:47.113	0.00000E+0	0.00000E+0	0.00000E+0	0.00000E+0	0.00000E+0	0.00000E+0	2.00000E+1	1.40000E+1	1.99995E+1	1.39980E+1
233	02/09/2022	14:56:48.585	0.00000E+0	0.00000E+0	0.00000E+0	0.00000E+0	0.00000E+0	0.00000E+0	2.00000E+1	1.40000E+1	2.00010E+1	1.40007E+1
234	02/09/2022	14:56:49.985	0.00000E+0	0.00000E+0	0.00000E+0	0.00000E+0	0.00000E+0	0.00000E+0	2.00000E+1	1.40000E+1	2.00011E+1	1.40037E+1
235	02/09/2022	14:56:51.369	0.00000E+0	0.00000E+0	0.00000E+0	0.00000E+0	0.00000E+0	0.00000E+0	2.00000E+1	1.40000E+1	2.00008E+1	1.39993E+1
236	02/09/2022	14:56:52.905	0.00000E+0	0.00000E+0	0.00000E+0	0.00000E+0	0.00000E+0	0.00000E+0	2.00000E+1	1.40000E+1	1.99995E+1	1.39987E+1
237	02/09/2022	14:56:54.295	0.00000E+0	0.00000E+0	0.00000E+0	0.00000E+0	0.00000E+0	0.00000E+0	2.00000E+1	1.40000E+1	1.99983E+1	1.39995E+1
238	02/09/2022	14:56:55.727	0.00000E+0	0.00000E+0	0.00000E+0	0.00000E+0	0.00000E+0	0.00000E+0	2.00000E+1	1.40000E+1	2.00001E+1	1.39993E+1
239	02/09/2022	14:56:57.209	0.00000E+0	0.00000E+0	0.00000E+0	0.00000E+0	0.00000E+0	0.00000E+0	2.00000E+1	1.40000E+1	2.00010E+1	1.39991E+1
240	02/09/2022	14:56:58.608	0.00000E+0	0.00000E+0	0.00000E+0	0.00000E+0	0.00000E+0	0.00000E+0	2.00000E+1	1.40000E+1	2.00003E+1	1.39973E+1
241	02/09/2022	14:57:00.107	0.00000E+0	0.00000E+0	0.00000E+0	0.00000E+0	0.00000E+0	0.00000E+0	2.00000E+1	1.40000E+1	1.99997E+1	1.40005E+1
242	02/09/2022	14:57:01.496	0.00000E+0	0.00000E+0	0.00000E+0	0.00000E+0	0.00000E+0	0.00000E+0	2.00000E+1	1.40000E+1	1.99998E+1	1.40006E+1
243	02/09/2022	14:57:02.937	0.00000E+0	0.00000E+0	0.00000E+0	0.00000E+0	0.00000E+0	0.00000E+0	2.00000E+1	1.40000E+1	1.99990E+1	1.39994E+1
244	02/09/2022	14:57:04.438	0.00000E+0	0.00000E+0	0.00000E+0	0.00000E+0	0.00000E+0	0.00000E+0	2.00000E+1	1.40000E+1	2.00004E+1	1.39995E+1
245	02/09/2022	14:57:05.814	0.00000E+0	0.00000E+0	0.00000E+0	0.00000E+0	0.00000E+0	0.00000E+0	2.00000E+1	1.40000E+1	1.99987E+1	1.40014E+1
246	02/09/2022	14:57:07.381	0.00000E+0	0.00000E+0	0.00000E+0	0.00000E+0	0.00000E+0	0.00000E+0	2.00000E+1	1.40000E+1	2.00017E+1	1.39986E+1
247	02/09/2022	14:57:08.754	0.00000E+0	0.00000E+0	0.00000E+0	0.00000E+0	0.00000E+0	0.00000E+0	2.00000E+1	1.40000E+1	2.00010E+1	1.39989E+1
248	02/09/2022	14:57:10.142	0.00000E+0	0.00000E+0	0.00000E+0	0.00000E+0	0.00000E+0	0.00000E+0	2.00000E+1	1.40000E+1	1.99982E+1	1.39994E+1
249	02/09/2022	14:57:11.687	0.00000E+0	0.00000E+0	0.00000E+0	0.00000E+0	0.00000E+0	0.00000E+0	2.00000E+1	1.40000E+1	1.99985E+1	1.39999E+1
250	02/09/2022	14:57:13.071	0.00000E+0	0.00000E+0	0.00000E+0	0.00000E+0	0.00000E+0	0.00000E+0	2.00000E+1	1.40000E+1	1.99987E+1	1.40009E+1
251	02/09/2022	14:57:14.455	0.00000E+0	0.00000E+0	0.00000E+0	0.00000E+0	0.00000E+0	0.00000E+0	2.00000E+1	1.40000E+1	2.00006E+1	1.39998E+1
252	02/09/2022	14:57:15.942	0.00000E+0	0.00000E+0	0.00000E+0	0.00000E+0	0.00000E+0	0.00000E+0	2.00000E+1	1.40000E+1	1.99991E+1	1.39986E+1
253	02/09/2022	14:57:17.359	0.00000E+0	0.00000E+0	0.00000E+0	0.00000E+0	0.00000E+0	0.00000E+0	2.00000E+1	1.40000E+1	2.00013E+1	1.40006E+1
254	02/09/2022	14:57:18.812	0.00000E+0	0.00000E+0	0.00000E+0	0.00000E+0	0.00000E+0	0.00000E+0	2.00000E+1	1.40000E+1	2.00015E+1	1.39998E+1
255	02/09/2022	14:57:20.203	0.00000E+0	0.00000E+0	0.00000E+0	0.00000E+0	0.00000E+0	0.00000E+0	2.00000E+1	1.40000E+1	2.00000E+1	1.40010E+1
256	02/09/2022	14:57:21.599	0.00000E+0	0.00000E+0	0.00000E+0	0.00000E+0	0.00000E+0	0.00000E+0	2.00000E+1	1.40000E+1	1.99989E+1	1.39994E+1
257	02/09/2022	14:57:23.123	0.00000E+0	0.00000E+0	0.00000E+0	0.00000E+0	0.00000E+0	0.00000E+0	2.00000E+1	1.40000E+1	2.00030E+1	1.40000E+1
258	02/09/2022	14:57:24.510	0.00000E+0	0.00000E+0	0.00000E+0	0.00000E+0	0.00000E+0	0.00000E+0	2.00000E+1	1.40000E+1	2.00010E+1	1.39971E+1
259	02/09/2022	14:57:25.904	0.00000E+0	0.00000E+0	0.00000E+0	0.00000E+0	0.00000E+0	0.00000E+0	2.00000E+1	1.40000E+1	1.99991E+1	1.39986E+1
260	02/09/2022	14:57:27.306	0.00000E+0	0.00000E+0	0.00000E+0	0.00000E+0	0.00000E+0	0.00000E+0	2.00000E+1	1.40000E+1	2.00018E+1	1.39999E+1
261	02/09/2022	14:57:28.693	0.00000E+0	0.00000E+0	0.00000E+0	0.00000E+0	0.00000E+0	0.00000E+0	2.00000E+1	1.40000E+1	2.00010E+1	1.40025E+1
262	02/09/2022	14:57:30.176	0.00000E+0	0.00000E+0	0.00000E+0	0.00000E+0	0.00000E+0	0.00000E+0	2.00000E+1	1.40000E+1	2.00015E+1	1.39985E+1
263	02/09/2022	14:57:31.548	0.00000E+0	0.00000E+0	0.00000E+0	0.00000E+0	0.00000E+0	0.00000E+0	2.00000E+1	1.40000E+1	2.00007E+1	1.40011E+1
264	02/09/2022	14:57:33.044	0.00000E+0	0.00000E+0	0.00000E+0	0.00000E+0	0.00000E+0	0.00000E+0	2.00000E+1	1.40000E+1	1.99991E+1	1.39999E+1
265	02/09/2022	14:57:34.553	0.00000E+0	0.00000E+0	0.00000E+0	0.00000E+0	0.00000E+0	0.00000E+0	2.00000E+1	1.40000E+1	1.99989E+1	1.40004E+1
266	02/09/2022	14:57:35.950	0.00000E+0	0.00000E+0	0.00000E+0	0.00000E+0	0.00000E+0	0.00000E+0	2.00000E+1	1.40000E+1	1.99985E+1	1.40019E+1
267	02/09/2022	14:57:37.451	0.00000E+0	0.00000E+0	0.00000E+0	0.00000E+0	0.00000E+0	0.00000E+0	2.00000E+1	1.40000E+1	2.00009E+1	1.39978E+1
268	02/09/2022	14:57:38.824	0.00000E+0	0.00000E+0	0.00000E+0	0.00000E+0	0.00000E+0	0.00000E+0	2.00000E+1	1.40000E+1	2.00000E+1	1.39993E+1
269	02/09/2022	14:57:40.218	0.00000E+0	0.00000E+0	0.00000E+0	0.00000E+0	0.00000E+0	0.00000E+0	2.00000E+1	1.40000E+1	2.00015E+1	1.40010E+1
270	02/09/2022	14:57:41.736	0.00000E+0	0.00000E+0	0.00000E+0	0.00000E+0	0.00000E+0	0.00000E+0	2.00000E+1	1.40000E+1	2.00018E+1	1.40016E+1
271	02/09/2022	14:57:43.124	0.00000E+0	0.00000E+0	0.00000E+0	0.00000E+0	0.00000E+0	0.00000E+0	2.00000E+1	1.40000E+1	2.00006E+1	1.39993E+1
272	02/09/2022	14:57:44.572	0.00000E+0	0.00000E+0	0.00000E+0	0.00000E+0	0.00000E+0	0.00000E+0	2.00000E+1	1.40000E+1	2.00010E+1	1.40004E+1
273	02/09/2022	14:57:46.083	0.00000E+0	0.00000E+0	0.00000E+0	0.00000E+0	0.00000E+0	0.00000E+0	2.00000E+1	1.40000E+1	2.00010E+1	1.40017E+1
274	02/09/2022	14:57:47.471	0.00000E+0	0.00000E+0	0.00000E+0	0.00000E+0	0.00000E+0	0.00000E+0	2.00000E+1	1.40000E+1	2.00006E+1	1.39974E+1
275	02/09/2022	14:57:48.944	0.00000E+0	0.00000E+0	0.00000E+0	0.00000E+0	0.00000E+0	0.00000E+0	2.00000E+1	1.40000E+1	2.00015E+1	1.39998E+1
276	02/09/2022	14:57:50.340	0.00000E+0	0.00000E+0	0.00000E+0	0.00000E+0	0.00000E+0	0.00000E+0	2.00000E+1	1.40000E+1	2.00003E+1	1.40013E+1
277	02/09/2022	14:57:51.750	0.00000E+0	0.00000E+0	0.00000E+0	0.00000E+0	0.00000E+0	0.00000E+0	2.00000E+1	1.40000E+1	1.99998E+1	1.40002E+1
278	02/09/2022	14:57:53.254	0.00000E+0	0.00000E+0	0.00000E+0	0.00000E+0	0.00000E+0	0.00000E+0	2.00000E+1	1.40000E+1	1.99971E+1	1.39990E+1
279	02/09/2022	14:57:54.630	0.00000E+0	0.00000E+0	0.00000E+0	0.00000E+0	0.00000E+0	0.00000E+0	2.00000E+1	1.40000E+1	2.00024E+1	1.40005E+1
280	02/09/2022	14:57:56.070	0.00000E+0	0.00000E+0	0.00000E+0	0.00000E+0	0.00000E+0	0.00000E+0	2.00000E+1	1.40000E+1	2.00017E+1	1.40013E+1
281	02/09/2022	14:57:57.558	0.00000E+0	0.00000E+0	0.00000E+0	0.00000E+0	0.00000E+0	0.00000E+0	2.00000E+1	1.40000E+1	1.99998E+1	1.39985E+1
282	02/09/2022	14:57:58.946	0.00000E+0	0.00000E+0	0.00000E+0	0.00000E+0	0.00000E+0	0.00000E+0	2.00000E+1	1.40000E+1	2.00001E+1	1.39994E+1
283	02/09/2022	14:58:00.486	0.00000E+0	0.00000E+0	0.00000E+0	0.00000E+0	0.00000E+0	0.00000E+0	2.00000E+1	1.40000E+1	2.00008E+1	1.39986E+1
284	02/09/2022	14:58:01.874	0.00000E+0	0.00000E+0	0.00000E+0	0.00000E+0	0.00000E+0	0.00000E+0	2.00000E+1	1.40000E+1	2.00021E+1	1.40009E+1
285	02/09/2022	14:58:03.335	0.00000E+0	0.00000E+0	0.00000E+0	0.00000E+0	0.00000E+0	0.00000E+0	2.00000E+1	1.40000E+1	2.00001E+1	1.39982E+1
286	02/09/2022	14:58:04.830	0.00000E+0	0.00000E+0	0.00000E+0	0.00000E+0	0.00000E+0	0.00000E+0	2.00000E+1	1.40000E+1	1.99973E+1	1.40001E+1
287	02/09/2022	14:58:06.212	0.00000E+0	0.00000E+0	0.00000E+0	0.00000E+0	0.00000E+0	0.00000E+0	2.00000E+1	1.40000E+1	1.99991E+1	1.40013E+1
288	02/09/2022	14:58:07.693	0.00000E+0	0.00000E+0	0.00000E+0	0.00000E+0	0.00000E+0	0.00000E+0	2.00000E+1	1.40000E+1	1.99993E+1	1.40004E+1
289	02/09/2022	14:58:09.086	0.00000E+0	0.00000E+0	0.00000E+0	0.00000E+0	0.00000E+0	0.00000E+0	2.00000E+1	1.40000E+1	2.00004E+1	1.39994E+1
290	02/09/2022	14:58:10.464	0.00000E+0	0.00000E+0	0.00000E+0	0.00000E+0	0.00000E+0	0.00000E+0	2.00000E+1	1.40000E+1	2.00009E+1	1.40008E+1
291	02/09/2022	14:58:11.934	0.00000E+0	0.00000E+0	0.00000E+0	0.00000E+0	0.00000E+0	0.00000E+0	2.00000E+1	1.40000E+1	2.00001E+1	1.40005E+1
292	02/09/2022	14:58:13.322	0.00000E+0	0.00000E+0	0.00000E+0	0.00000E+0	0.00000E+0	0.00000E+0	2.00000E+1	1.40000E+1	2.00014E+1	1.39992E+1
293	02/09/2022	14:58:14.761	0.00000E+0	0.00000E+0	0.00000E+0	0.00000E+0	0.00000E+0	0.00000E+0	2.00000E+1	1.40000E+1	1.99999E+1	1.39983E+1
294	02/09/2022	14:58:16.263	0.00000E+0	0.00000E+0	0.00000E+0	0.00000E+0	0.00000E+0	0.00000E+0	2.00000E+1	1.40000E+1	2.00010E+1	1.40010E+1
295	02/09/2022	14:58:17.660	0.00000E+0	0.00000E+0	0.00000E+0	0.00000E+0	0.00000E+0	0.00000E+0	2.00000E+1	1.40000E+1	1.99987E+1	1.39983E+1
296	02/09/2022	14:58:19.177	0.00000E+0	0.00000E+0	0.00000E+0	0.00000E+0	0.00000E+0	0.00000E+0	2.00000E+1	1.40000E+1	2.00013E+1	1.39979E+1
297	02/09/2022	14:58:20.549	0.00000E+0	0.00000E+0	0.00000E+0	0.00000E+0	0.00000E+0	0.00000E+0	2.00000E+1	1.40000E+1	1.99982E+1	1.40010E+1
298	02/09/2022	14:58:21.978	0.00000E+0	0.00000E+0	0.00000E+0	0.00000E+0	0.00000E+0	0.00000E+0	2.00000E+1	1.40000E+1	2.00003E+1	1.39997E+1
299	02/09/2022	14:58:23.482	0.00000E+0	0.00000E+0	0.00000E+0	0.00000E+0	0.00000E+0	0.00000E+0	2.00000E+1	1.40000E+1	2.00001E+1	1.40005E+1
300	02/09/2022	14:58:24.860	0.00000E+0	0.00000E+0	0.00000E+0	0.00000E+0	0.00000E+0	0.00000E+0	2.00000E+1	1.40000E+1	2.00016E+1	1.40001E+1
301	02/09/2022	14:58:26.423	0.00000E+0	0.00000E+0	0.00000E+0	0.00000E+0	0.00000E+0	0.00000E+0	2.00000E+1	1.40000E+1	2.00004E+1	1.39973E+1
