#Iteration	Date	Time	RTPhase	NFringe	AccelAxis	AccelMean	AccelTemp
1	02/09/2022	14:51:15.516	2.93680622E+0	-1.23500000E+3	2.00000000E+0	-9.80583787E+0	7.16125300E+6
2	02/09/2022	14:51:16.907	4.92331134E+0	-1.23300000E+3	2.00000000E+0	-9.80583787E+0	7.16125300E+6
3	02/09/2022	14:51:18.423	3.20410237E+0	-1.23400000E+3	2.00000000E+0	-9.80583787E+0	7.16125300E+6
4	02/09/2022	14:51:19.836	3.90781606E-1	-1.23300000E+3	2.00000000E+0	-9.80583787E+0	7.16125300E+6
5	02/09/2022	14:51:21.358	1.55584001E+0	-1.23500000E+3	2.00000000E+0	-9.80583787E+0	7.16125300E+6
6	02/09/2022	14:51:22.794	5.15149098E+0	-1.23300000E+3	2.00000000E+0	-9.80583787E+0	7.16125300E+6
7	02/09/2022	14:51:24.167	2.70095667E+0	-1.23300000E+3	2.00000000E+0	-9.80583787E+0	7.16125300E+6
8	02/09/2022	14:51:25.654	2.61927220E+0	-1.23400000E+3	2.00000000E+0	-9.80583787E+0	7.16125300E+6
9	02/09/2022	14:51:27.054	4.05239375E+0	-1.23500000E+3	2.00000000E+0	-9.80583787E+0	7.16125300E+6
10	02/09/2022	14:51:28.510	6.32767075E-1	-1.23400000E+3	2.00000000E+0	-9.80583787E+0	7.16125300E+6
11	02/09/2022	14:51:29.992	6.07341343E+0	-1.23400000E+3	2.00000000E+0	-9.80583787E+0	7.16125300E+6
12	02/09/2022	14:51:31.360	5.18600555E+0	-1.23400000E+3	2.00000000E+0	-9.80583787E+0	7.16125300E+6
13	02/09/2022	14:51:32.895	4.01864617E+0	-1.23500000E+3	2.00000000E+0	-9.80583787E+0	7.16125300E+6
14	02/09/2022	14:51:34.284	2.61773821E+0	-1.23300000E+3	2.00000000E+0	-9.80583787E+0	7.16125300E+6
15	02/09/2022	14:51:35.687	4.14328211E+0	-1.23500000E+3	2.00000000E+0	-9.80583787E+0	7.16125300E+6
16	02/09/2022	14:51:37.166	2.69060230E+0	-1.23300000E+3	2.00000000E+0	-9.80583787E+0	7.16125300E+6
17	02/09/2022	14:51:38.536	5.86709302E+0	-1.23300000E+3	2.00000000E+0	-9.80583787E+0	7.16125300E+6
18	02/09/2022	14:51:39.968	2.73815571E-1	-1.23500000E+3	2.00000000E+0	-9.80583787E+0	7.16125300E+6
19	02/09/2022	14:51:41.464	3.57187426E+0	-1.23400000E+3	2.00000000E+0	-9.80583787E+0	7.16125300E+6
20	02/09/2022	14:51:42.859	4.80634530E+0	-1.23400000E+3	2.00000000E+0	-9.80583787E+0	7.16125300E+6
21	02/09/2022	14:51:44.365	1.16774287E+0	-1.23300000E+3	2.00000000E+0	-9.80583787E+0	7.16125300E+6
22	02/09/2022	14:51:45.796	6.04503479E+0	-1.23400000E+3	2.00000000E+0	-9.80583787E+0	7.16125300E+6
23	02/09/2022	14:51:47.232	5.90352506E+0	-1.23500000E+3	2.00000000E+0	-9.80583787E+0	7.16125300E+6
24	02/09/2022	14:51:48.725	9.57204012E-1	-1.23500000E+3	2.00000000E+0	-9.80583787E+0	7.16125300E+6
25	02/09/2022	14:51:50.123	3.23593247E+0	-1.23300000E+3	2.00000000E+0	-9.80583787E+0	7.16125300E+6
26	02/09/2022	14:51:51.578	4.96472882E+0	-1.23300000E+3	2.00000000E+0	-9.80583787E+0	7.16125300E+6
27	02/09/2022	14:51:53.079	2.82405863E+0	-1.23300000E+3	2.00000000E+0	-9.80583787E+0	7.16125300E+6
28	02/09/2022	14:51:54.476	1.32497591E+0	-1.23500000E+3	2.00000000E+0	-9.80583787E+0	7.16125300E+6
29	02/09/2022	14:51:55.981	3.83686945E+0	-1.23500000E+3	2.00000000E+0	-9.80583787E+0	7.16125300E+6
30	02/09/2022	14:51:57.371	1.25939823E+0	-1.23300000E+3	2.00000000E+0	-9.80583787E+0	7.16125300E+6
31	02/09/2022	14:51:58.839	5.34822402E+0	-1.23300000E+3	2.00000000E+0	-9.80583787E+0	7.16125300E+6
32	02/09/2022	14:52:00.351	8.39854481E-2	-1.23300000E+3	2.00000000E+0	-9.80583787E+0	7.16125300E+6
33	02/09/2022	14:52:01.739	3.17534023E+0	-1.23500000E+3	2.00000000E+0	-9.80583787E+0	7.16125300E+6
34	02/09/2022	14:52:03.196	3.62249563E+0	-1.23500000E+3	2.00000000E+0	-9.80583787E+0	7.16125300E+6
35	02/09/2022	14:52:04.596	3.08406837E+0	-1.23400000E+3	2.00000000E+0	-9.80583787E+0	7.16125300E+6
36	02/09/2022	14:52:05.995	4.91065600E+0	-1.23300000E+3	2.00000000E+0	-9.80583787E+0	7.16125300E+6
37	02/09/2022	14:52:07.550	1.35258756E+0	-1.23300000E+3	2.00000000E+0	-9.80583787E+0	7.16125300E+6
38	02/09/2022	14:52:08.936	1.68776236E+0	-1.23500000E+3	2.00000000E+0	-9.80583787E+0	7.16125300E+6
39	02/09/2022	14:52:10.386	2.91456350E-1	-1.23300000E+3	2.00000000E+0	-9.80583787E+0	7.16125300E+6
40	02/09/2022	14:52:11.829	4.65908315E+0	-1.23400000E+3	2.00000000E+0	-9.80583787E+0	7.16125300E+6
41	02/09/2022	14:52:13.194	3.93235975E+0	-1.23400000E+3	2.00000000E+0	-9.80583787E+0	7.16125300E+6
42	02/09/2022	14:52:14.703	5.62203959E+0	-1.23400000E+3	2.00000000E+0	-9.80583787E+0	7.16125300E+6
43	02/09/2022	14:52:16.082	2.17710223E+0	-1.23300000E+3	2.00000000E+0	-9.80583787E+0	7.16125300E+6
44	02/09/2022	14:52:17.478	1.52209244E+0	-1.23400000E+3	2.00000000E+0	-9.80583787E+0	7.16125300E+6
45	02/09/2022	14:52:19.015	5.24506381E+0	-1.23400000E+3	2.00000000E+0	-9.80583787E+0	7.16125300E+6
46	02/09/2022	14:52:20.408	5.47707840E+0	-1.23400000E+3	2.00000000E+0	-9.80583787E+0	7.16125300E+6
47	02/09/2022	14:52:21.912	4.30089863E+0	-1.23400000E+3	2.00000000E+0	-9.80583787E+0	7.16125300E+6
48	02/09/2022	14:52:23.304	8.72835068E-1	-1.23400000E+3	2.00000000E+0	-9.80583787E+0	7.16125300E+6
49	02/09/2022	14:52:24.685	3.65777719E+0	-1.23500000E+3	2.00000000E+0	-9.80583787E+0	7.16125300E+6
50	02/09/2022	14:52:26.212	3.53390824E+0	-1.23300000E+3	2.00000000E+0	-9.80583787E+0	7.16125300E+6
51	02/09/2022	14:52:27.605	2.14412165E+0	-1.23500000E+3	2.00000000E+0	-9.80583787E+0	7.16125300E+6
52	02/09/2022	14:52:29.031	2.01795173E+0	-1.23300000E+3	2.00000000E+0	-9.80583787E+0	7.16125300E+6
53	02/09/2022	14:52:30.547	3.79736944E+0	-1.23300000E+3	2.00000000E+0	-9.80583787E+0	7.16125300E+6
54	02/09/2022	14:52:31.955	2.80296639E+0	-1.23300000E+3	2.00000000E+0	-9.80583787E+0	7.16125300E+6
55	02/09/2022	14:52:33.453	3.95651995E+0	-1.23400000E+3	2.00000000E+0	-9.80583787E+0	7.16125300E+6
56	02/09/2022	14:52:34.843	3.68500535E+0	-1.23400000E+3	2.00000000E+0	-9.80583787E+0	7.16125300E+6
57	02/09/2022	14:52:36.243	3.05875769E+0	-1.23300000E+3	2.00000000E+0	-9.80583787E+0	7.16125300E+6
58	02/09/2022	14:52:37.704	4.11298599E+0	-1.23300000E+3	2.00000000E+0	-9.80583787E+0	7.16125300E+6
59	02/09/2022	14:52:39.184	4.62226761E+0	-1.23500000E+3	2.00000000E+0	-9.80583787E+0	7.16125300E+6
60	02/09/2022	14:52:40.706	3.23631597E+0	-1.23400000E+3	2.00000000E+0	-9.80583787E+0	7.16125300E+6
61	02/09/2022	14:52:42.155	2.91533049E+0	-1.23500000E+3	2.00000000E+0	-9.80583787E+0	7.16125300E+6
62	02/09/2022	14:52:43.548	2.79452950E+0	-1.23300000E+3	2.00000000E+0	-9.80583787E+0	7.16125300E+6
63	02/09/2022	14:52:45.034	3.85834518E+0	-1.23500000E+3	2.00000000E+0	-9.80583787E+0	7.16125300E+6
64	02/09/2022	14:52:46.435	6.08721926E+0	-1.23500000E+3	2.00000000E+0	-9.80583787E+0	7.16125300E+6
65	02/09/2022	14:52:47.834	5.51504443E+0	-1.23300000E+3	2.00000000E+0	-9.80583787E+0	7.16125300E+6
66	02/09/2022	14:52:49.328	1.77174781E-1	-1.23400000E+3	2.00000000E+0	-9.80583787E+0	7.16125300E+6
67	02/09/2022	14:52:50.718	5.38427257E+0	-1.23400000E+3	2.00000000E+0	-9.80583787E+0	7.16125300E+6
68	02/09/2022	14:52:52.278	4.36340835E+0	-1.23500000E+3	2.00000000E+0	-9.80583787E+0	7.16125300E+6
69	02/09/2022	14:52:53.658	5.20556380E+0	-1.23500000E+3	2.00000000E+0	-9.80583787E+0	7.16125300E+6
70	02/09/2022	14:52:55.036	2.69213628E-1	-1.23300000E+3	2.00000000E+0	-9.80583787E+0	7.16125300E+6
71	02/09/2022	14:52:56.561	3.81232575E+0	-1.23400000E+3	2.00000000E+0	-9.80583787E+0	7.16125300E+6
72	02/09/2022	14:52:57.947	4.74421908E+0	-1.23500000E+3	2.00000000E+0	-9.80583787E+0	7.16125300E+6
73	02/09/2022	14:52:59.379	5.44563180E+0	-1.23300000E+3	2.00000000E+0	-9.80583787E+0	7.16125300E+6
74	02/09/2022	14:53:00.866	4.90567056E+0	-1.23500000E+3	2.00000000E+0	-9.80583787E+0	7.16125300E+6
75	02/09/2022	14:53:02.253	2.86049067E+0	-1.23300000E+3	2.00000000E+0	-9.80583787E+0	7.16125300E+6
76	02/09/2022	14:53:03.769	3.55384999E+0	-1.23400000E+3	2.00000000E+0	-9.80583787E+0	7.16125300E+6
77	02/09/2022	14:53:05.159	2.09350028E+0	-1.23400000E+3	2.00000000E+0	-9.80583787E+0	7.16125300E+6
78	02/09/2022	14:53:06.535	5.44486481E+0	-1.23400000E+3	2.00000000E+0	-9.80583787E+0	7.16125300E+6
79	02/09/2022	14:53:08.117	2.22043719E+0	-1.23500000E+3	2.00000000E+0	-9.80583787E+0	7.16125300E+6
80	02/09/2022	14:53:09.499	4.13139376E+0	-1.23400000E+3	2.00000000E+0	-9.80583787E+0	7.16125300E+6
81	02/09/2022	14:53:10.985	3.06604410E+0	-1.23500000E+3	2.00000000E+0	-9.80583787E+0	7.16125300E+6
82	02/09/2022	14:53:12.395	5.86709302E+0	-1.23500000E+3	2.00000000E+0	-9.80583787E+0	7.16125300E+6
83	02/09/2022	14:53:13.802	5.02953951E+0	-1.23300000E+3	2.00000000E+0	-9.80583787E+0	7.16125300E+6
84	02/09/2022	14:53:15.338	4.04970928E-1	-1.23300000E+3	2.00000000E+0	-9.80583787E+0	7.16125300E+6
85	02/09/2022	14:53:16.725	6.08568528E+0	-1.23400000E+3	2.00000000E+0	-9.80583787E+0	7.16125300E+6
86	02/09/2022	14:53:18.139	1.18500016E+0	-1.23300000E+3	2.00000000E+0	-9.80583787E+0	7.16125300E+6
87	02/09/2022	14:53:19.623	3.21522373E+0	-1.23400000E+3	2.00000000E+0	-9.80583787E+0	7.16125300E+6
88	02/09/2022	14:53:21.031	2.81447125E+0	-1.23500000E+3	2.00000000E+0	-9.80583787E+0	7.16125300E+6
89	02/09/2022	14:53:22.487	1.57693225E+0	-1.23500000E+3	2.00000000E+0	-9.80583787E+0	7.16125300E+6
90	02/09/2022	14:53:23.881	2.36961682E+0	-1.23300000E+3	2.00000000E+0	-9.80583787E+0	7.16125300E+6
91	02/09/2022	14:53:25.266	1.35297105E+0	-1.23500000E+3	2.00000000E+0	-9.80583787E+0	7.16125300E+6
92	02/09/2022	14:53:26.834	4.67557344E+0	-1.23400000E+3	2.00000000E+0	-9.80583787E+0	7.16125300E+6
93	02/09/2022	14:53:28.207	3.00276739E+0	-1.23300000E+3	2.00000000E+0	-9.80583787E+0	7.16125300E+6
94	02/09/2022	14:53:29.600	1.72802936E+0	-1.23500000E+3	2.00000000E+0	-9.80583787E+0	7.16125300E+6
95	02/09/2022	14:53:30.939	4.89608318E+0	-1.23400000E+3	2.00000000E+0	-9.80583787E+0	7.16125300E+6
96	02/09/2022	14:53:32.318	4.01289374E+0	-1.23300000E+3	2.00000000E+0	-9.80583787E+0	7.16125300E+6
97	02/09/2022	14:53:33.863	8.50592347E-1	-1.23300000E+3	2.00000000E+0	-9.80583787E+0	7.16125300E+6
98	02/09/2022	14:53:35.267	2.92376738E+0	-1.23500000E+3	2.00000000E+0	-9.80583787E+0	7.16125300E+6
99	02/09/2022	14:53:36.723	1.44385942E+0	-1.23500000E+3	2.00000000E+0	-9.80583787E+0	7.16125300E+6
100	02/09/2022	14:53:38.213	5.97753964E+0	-1.23400000E+3	2.00000000E+0	-9.80583787E+0	7.16125300E+6
101	02/09/2022	14:53:39.608	4.39945690E+0	-1.23400000E+3	2.00000000E+0	-9.80583787E+0	7.16125300E+6
102	02/09/2022	14:53:41.135	3.31569947E+0	-1.23400000E+3	2.00000000E+0	-9.80583787E+0	7.16125300E+6
103	02/09/2022	14:53:42.527	3.72297137E+0	-1.23400000E+3	2.00000000E+0	-9.80583787E+0	7.16125300E+6
104	02/09/2022	14:53:43.890	2.90574311E+0	-1.23500000E+3	2.00000000E+0	-9.80583787E+0	7.16125300E+6
105	02/09/2022	14:53:45.362	2.85934019E+0	-1.23300000E+3	2.00000000E+0	-9.80583787E+0	7.16125300E+6
106	02/09/2022	14:53:46.768	6.85689412E-1	-1.23400000E+3	2.00000000E+0	-9.80583787E+0	7.16125300E+6
107	02/09/2022	14:53:48.158	7.14451552E-1	-1.23300000E+3	2.00000000E+0	-9.80583787E+0	7.16125300E+6
108	02/09/2022	14:53:49.645	1.14780112E+0	-1.23300000E+3	2.00000000E+0	-9.80583787E+0	7.16125300E+6
109	02/09/2022	14:53:51.021	1.96234492E+0	-1.23300000E+3	2.00000000E+0	-9.80583787E+0	7.16125300E+6
110	02/09/2022	14:53:52.562	8.21063217E-1	-1.23400000E+3	2.00000000E+0	-9.80583787E+0	7.16125300E+6
111	02/09/2022	14:53:53.957	2.21621874E+0	-1.23400000E+3	2.00000000E+0	-9.80583787E+0	7.16125300E+6
112	02/09/2022	14:53:55.345	1.63982546E+0	-1.23400000E+3	2.00000000E+0	-9.80583787E+0	7.16125300E+6
113	02/09/2022	14:53:56.826	1.09372830E+0	-1.23300000E+3	2.00000000E+0	-9.80583787E+0	7.16125300E+6
114	02/09/2022	14:53:58.217	4.27328698E+0	-1.23500000E+3	2.00000000E+0	-9.80583787E+0	7.16125300E+6
115	02/09/2022	14:53:59.707	2.03635950E+0	-1.23400000E+3	2.00000000E+0	-9.80583787E+0	7.16125300E+6
116	02/09/2022	14:54:01.143	2.78532562E+0	-1.23400000E+3	2.00000000E+0	-9.80583787E+0	7.16125300E+6
117	02/09/2022	14:54:02.533	2.44554887E+0	-1.23400000E+3	2.00000000E+0	-9.80583787E+0	7.16125300E+6
118	02/09/2022	14:54:03.993	2.94639360E+0	-1.23400000E+3	2.00000000E+0	-9.80583787E+0	7.16125300E+6
119	02/09/2022	14:54:05.393	2.65455375E+0	-1.23300000E+3	2.00000000E+0	-9.80583787E+0	7.16125300E+6
120	02/09/2022	14:54:06.781	5.04104436E+0	-1.23500000E+3	2.00000000E+0	-9.80583787E+0	7.16125300E+6
121	02/09/2022	14:54:08.280	3.31646646E+0	-1.23400000E+3	2.00000000E+0	-9.80583787E+0	7.16125300E+6
122	02/09/2022	14:54:09.669	5.02417058E+0	-1.23500000E+3	2.00000000E+0	-9.80583787E+0	7.16125300E+6
123	02/09/2022	14:54:11.110	2.95713146E+0	-1.23400000E+3	2.00000000E+0	-9.80583787E+0	7.16125300E+6
124	02/09/2022	14:54:12.491	1.05154383E+0	-1.23500000E+3	2.00000000E+0	-9.80583787E+0	7.16125300E+6
125	02/09/2022	14:54:13.861	1.91900997E+0	-1.23500000E+3	2.00000000E+0	-9.80583787E+0	7.16125300E+6
126	02/09/2022	14:54:15.412	4.34845204E+0	-1.23500000E+3	2.00000000E+0	-9.80583787E+0	7.16125300E+6
127	02/09/2022	14:54:16.802	4.09918016E+0	-1.23300000E+3	2.00000000E+0	-9.80583787E+0	7.16125300E+6
128	02/09/2022	14:54:18.273	3.56190339E+0	-1.23400000E+3	2.00000000E+0	-9.80583787E+0	7.16125300E+6
129	02/09/2022	14:54:19.765	2.27144205E+0	-1.23300000E+3	2.00000000E+0	-9.80583787E+0	7.16125300E+6
130	02/09/2022	14:54:21.146	4.14328211E+0	-1.23400000E+3	2.00000000E+0	-9.80583787E+0	7.16125300E+6
131	02/09/2022	14:54:22.637	3.97876267E+0	-1.23300000E+3	2.00000000E+0	-9.80583787E+0	7.16125300E+6
132	02/09/2022	14:54:24.016	1.26515065E+0	-1.23300000E+3	2.00000000E+0	-9.80583787E+0	7.16125300E+6
133	02/09/2022	14:54:25.469	3.53966067E+0	-1.23300000E+3	2.00000000E+0	-9.80583787E+0	7.16125300E+6
134	02/09/2022	14:54:26.981	8.61713708E-1	-1.23300000E+3	2.00000000E+0	-9.80583787E+0	7.16125300E+6
135	02/09/2022	14:54:28.354	5.96104934E+0	-1.23400000E+3	2.00000000E+0	-9.80583787E+0	7.16125300E+6
136	02/09/2022	14:54:29.788	5.15264147E+0	-1.23500000E+3	2.00000000E+0	-9.80583787E+0	7.16125300E+6
137	02/09/2022	14:54:31.236	2.14872359E+0	-1.23500000E+3	2.00000000E+0	-9.80583787E+0	7.16125300E+6
138	02/09/2022	14:54:32.613	3.76093740E+0	-1.23500000E+3	2.00000000E+0	-9.80583787E+0	7.16125300E+6
139	02/09/2022	14:54:34.101	5.09703466E+0	-1.23400000E+3	2.00000000E+0	-9.80583787E+0	7.16125300E+6
140	02/09/2022	14:54:35.473	4.46810254E+0	-1.23400000E+3	2.00000000E+0	-9.80583787E+0	7.16125300E+6
141	02/09/2022	14:54:36.898	5.24621429E-1	-1.23500000E+3	2.00000000E+0	-9.80583787E+0	7.16125300E+6
142	02/09/2022	14:54:38.424	4.89263172E+0	-1.23300000E+3	2.00000000E+0	-9.80583787E+0	7.16125300E+6
143	02/09/2022	14:54:39.794	3.88825780E+0	-1.23300000E+3	2.00000000E+0	-9.80583787E+0	7.16125300E+6
144	02/09/2022	14:54:41.226	3.68232088E+0	-1.23500000E+3	2.00000000E+0	-9.80583787E+0	7.16125300E+6
145	02/09/2022	14:54:42.608	5.35819489E+0	-1.23500000E+3	2.00000000E+0	-9.80583787E+0	7.16125300E+6
146	02/09/2022	14:54:43.993	3.39048104E+0	-1.23300000E+3	2.00000000E+0	-9.80583787E+0	7.16125300E+6
147	02/09/2022	14:54:45.550	5.96526779E+0	-1.23400000E+3	2.00000000E+0	-9.80583787E+0	7.16125300E+6
148	02/09/2022	14:54:46.930	6.28280181E+0	-1.23500000E+3	2.00000000E+0	-9.80583787E+0	7.16125300E+6
149	02/09/2022	14:54:48.376	4.44432584E+0	-1.23300000E+3	2.00000000E+0	-9.80583787E+0	7.16125300E+6
150	02/09/2022	14:54:49.727	9.84432171E-1	-1.23400000E+3	2.00000000E+0	-9.80583787E+0	7.16125300E+6
151	02/09/2022	14:54:51.126	5.05868514E+0	-1.23500000E+3	2.00000000E+0	-9.80583787E+0	7.16125300E+6
152	02/09/2022	14:54:52.653	4.94478707E+0	-1.23400000E+3	2.00000000E+0	-9.80583787E+0	7.16125300E+6
153	02/09/2022	14:54:54.016	5.49433569E+0	-1.23500000E+3	2.00000000E+0	-9.80583787E+0	7.16125300E+6
154	02/09/2022	14:54:55.428	3.22442762E+0	-1.23500000E+3	2.00000000E+0	-9.80583787E+0	7.16125300E+6
155	02/09/2022	14:54:56.900	3.88020440E+0	-1.23300000E+3	2.00000000E+0	-9.80583787E+0	7.16125300E+6
156	02/09/2022	14:54:58.303	5.21169973E+0	-1.23500000E+3	2.00000000E+0	-9.80583787E+0	7.16125300E+6
157	02/09/2022	14:54:59.784	4.49149575E+0	-1.23300000E+3	2.00000000E+0	-9.80583787E+0	7.16125300E+6
158	02/09/2022	14:55:01.172	2.65915570E+0	-1.23500000E+3	2.00000000E+0	-9.80583787E+0	7.16125300E+6
159	02/09/2022	14:55:02.557	5.10892301E+0	-1.23300000E+3	2.00000000E+0	-9.80583787E+0	7.16125300E+6
160	02/09/2022	14:55:04.051	3.27236452E+0	-1.23500000E+3	2.00000000E+0	-9.80583787E+0	7.16125300E+6
161	02/09/2022	14:55:05.435	4.67058800E+0	-1.23300000E+3	2.00000000E+0	-9.80583787E+0	7.16125300E+6
162	02/09/2022	14:55:06.880	5.32061236E+0	-1.23500000E+3	2.00000000E+0	-9.80583787E+0	7.16125300E+6
163	02/09/2022	14:55:08.387	1.18998560E+0	-1.23400000E+3	2.00000000E+0	-9.80583787E+0	7.16125300E+6
164	02/09/2022	14:55:09.769	4.35803942E+0	-1.23300000E+3	2.00000000E+0	-9.80583787E+0	7.16125300E+6
165	02/09/2022	14:55:11.233	4.15095201E+0	-1.23300000E+3	2.00000000E+0	-9.80583787E+0	7.16125300E+6
166	02/09/2022	14:55:12.627	3.51128202E+0	-1.23500000E+3	2.00000000E+0	-9.80583787E+0	7.16125300E+6
167	02/09/2022	14:55:14.011	3.45989367E+0	-1.23300000E+3	2.00000000E+0	-9.80583787E+0	7.16125300E+6
168	02/09/2022	14:55:15.460	5.68493280E+0	-1.23500000E+3	2.00000000E+0	-9.80583787E+0	7.16125300E+6
169	02/09/2022	14:55:16.842	9.62956440E-1	-1.23200000E+3	2.00000000E+0	-9.80583787E+0	7.16125300E+6
170	02/09/2022	14:55:18.267	3.72680632E+0	-1.23400000E+3	2.00000000E+0	-9.80583787E+0	7.16125300E+6
171	02/09/2022	14:55:19.748	6.01435517E+0	-1.23500000E+3	2.00000000E+0	-9.80583787E+0	7.16125300E+6
172	02/09/2022	14:55:21.129	5.73325319E+0	-1.23300000E+3	2.00000000E+0	-9.80583787E+0	7.16125300E+6
173	02/09/2022	14:55:22.632	2.76500037E+0	-1.23300000E+3	2.00000000E+0	-9.80583787E+0	7.16125300E+6
174	02/09/2022	14:55:24.025	2.77267027E-1	-1.23500000E+3	2.00000000E+0	-9.80583787E+0	7.16125300E+6
175	02/09/2022	14:55:25.422	5.62702503E+0	-1.23300000E+3	2.00000000E+0	-9.80583787E+0	7.16125300E+6
176	02/09/2022	14:55:26.912	1.41778174E+0	-1.23400000E+3	2.00000000E+0	-9.80583787E+0	7.16125300E+6
177	02/09/2022	14:55:28.321	3.71721894E+0	-1.23500000E+3	2.00000000E+0	-9.80583787E+0	7.16125300E+6
178	02/09/2022	14:55:29.815	2.67181104E+0	-1.23500000E+3	2.00000000E+0	-9.80583787E+0	7.16125300E+6
179	02/09/2022	14:55:31.227	1.57923322E+0	-1.23400000E+3	2.00000000E+0	-9.80583787E+0	7.16125300E+6
180	02/09/2022	14:55:32.588	2.83517999E+0	-1.23300000E+3	2.00000000E+0	-9.80583787E+0	7.16125300E+6
181	02/09/2022	14:55:34.053	3.95728694E+0	-1.23400000E+3	2.00000000E+0	-9.80583787E+0	7.16125300E+6
182	02/09/2022	14:55:35.451	2.76883532E+0	-1.23300000E+3	2.00000000E+0	-9.80583787E+0	7.16125300E+6
183	02/09/2022	14:55:36.833	2.11996145E+0	-1.23300000E+3	2.00000000E+0	-9.80583787E+0	7.16125300E+6
184	02/09/2022	14:55:38.302	4.48957827E+0	-1.23500000E+3	2.00000000E+0	-9.80583787E+0	7.16125300E+6
185	02/09/2022	14:55:39.687	1.67549052E+0	-1.23400000E+3	2.00000000E+0	-9.80583787E+0	7.16125300E+6
186	02/09/2022	14:55:41.213	2.51611199E+0	-1.23300000E+3	2.00000000E+0	-9.80583787E+0	7.16125300E+6
187	02/09/2022	14:55:42.595	2.09656824E+0	-1.23500000E+3	2.00000000E+0	-9.80583787E+0	7.16125300E+6
188	02/09/2022	14:55:43.968	1.20916036E+0	-1.23500000E+3	2.00000000E+0	-9.80583787E+0	7.16125300E+6
189	02/09/2022	14:55:45.525	1.82620413E+0	-1.23400000E+3	2.00000000E+0	-9.80583787E+0	7.16125300E+6
190	02/09/2022	14:55:46.955	4.07041802E+0	-1.23300000E+3	2.00000000E+0	-9.80583787E+0	7.16125300E+6
191	02/09/2022	14:55:48.417	5.20479681E+0	-1.23300000E+3	2.00000000E+0	-9.80583787E+0	7.16125300E+6
192	02/09/2022	14:55:49.829	4.35995689E+0	-1.23300000E+3	2.00000000E+0	-9.80583787E+0	7.16125300E+6
193	02/09/2022	14:55:51.220	3.97684519E+0	-1.23500000E+3	2.00000000E+0	-9.80583787E+0	7.16125300E+6
194	02/09/2022	14:55:52.680	2.67487900E+0	-1.23500000E+3	2.00000000E+0	-9.80583787E+0	7.16125300E+6
195	02/09/2022	14:55:54.064	5.34860751E+0	-1.23400000E+3	2.00000000E+0	-9.80583787E+0	7.16125300E+6
196	02/09/2022	14:55:55.518	2.10999057E+0	-1.23400000E+3	2.00000000E+0	-9.80583787E+0	7.16125300E+6
197	02/09/2022	14:55:57.003	2.18208767E+0	-1.23400000E+3	2.00000000E+0	-9.80583787E+0	7.16125300E+6
198	02/09/2022	14:55:58.390	5.73363669E+0	-1.23500000E+3	2.00000000E+0	-9.80583787E+0	7.16125300E+6
199	02/09/2022	14:55:59.859	3.26201015E+0	-1.23300000E+3	2.00000000E+0	-9.80583787E+0	7.16125300E+6
200	02/09/2022	14:56:01.228	1.01242732E+0	-1.23300000E+3	2.00000000E+0	-9.80583787E+0	7.16125300E+6
201	02/09/2022	14:56:02.616	1.67012158E+0	-1.23400000E+3	2.00000000E+0	-9.80583787E+0	7.16125300E+6
202	02/09/2022	14:56:04.116	2.93642272E+0	-1.23300000E+3	2.00000000E+0	-9.80583787E+0	7.16125300E+6
203	02/09/2022	14:56:05.513	4.32812679E+0	-1.23400000E+3	2.00000000E+0	-9.80583787E+0	7.16125300E+6
204	02/09/2022	14:56:06.906	3.92315587E-1	-1.23400000E+3	2.00000000E+0	-9.80583787E+0	7.16125300E+6
205	02/09/2022	14:56:08.293	3.04150041E+0	-1.23400000E+3	2.00000000E+0	-9.80583787E+0	7.16125300E+6
206	02/09/2022	14:56:09.699	1.76100994E+0	-1.23500000E+3	2.00000000E+0	-9.80583787E+0	7.16125300E+6
207	02/09/2022	14:56:11.217	2.21468476E+0	-1.23300000E+3	2.00000000E+0	-9.80583787E+0	7.16125300E+6
208	02/09/2022	14:56:12.707	1.51672350E+0	-1.23500000E+3	2.00000000E+0	-9.80583787E+0	7.16125300E+6
209	02/09/2022	14:56:14.090	4.38833554E+0	-1.23400000E+3	2.00000000E+0	-9.80583787E+0	7.16125300E+6
210	02/09/2022	14:56:15.584	3.29345675E+0	-1.23500000E+3	2.00000000E+0	-9.80583787E+0	7.16125300E+6
211	02/09/2022	14:56:16.973	3.45145677E+0	-1.23300000E+3	2.00000000E+0	-9.80583787E+0	7.16125300E+6
212	02/09/2022	14:56:18.486	1.45383029E+0	-1.23300000E+3	2.00000000E+0	-9.80583787E+0	7.16125300E+6
213	02/09/2022	14:56:19.856	1.94086919E+0	-1.23300000E+3	2.00000000E+0	-9.80583787E+0	7.16125300E+6
214	02/09/2022	14:56:21.256	2.84591786E+0	-1.23300000E+3	2.00000000E+0	-9.80583787E+0	7.16125300E+6
215	02/09/2022	14:56:22.753	1.95199055E-1	-1.23400000E+3	2.00000000E+0	-9.80583787E+0	7.16125300E+6
216	02/09/2022	14:56:24.152	4.83280647E+0	-1.23500000E+3	2.00000000E+0	-9.80583787E+0	7.16125300E+6
217	02/09/2022	14:56:25.531	1.91709249E+0	-1.23500000E+3	2.00000000E+0	-9.80583787E+0	7.16125300E+6
218	02/09/2022	14:56:27.058	2.86087417E+0	-1.23300000E+3	2.00000000E+0	-9.80583787E+0	7.16125300E+6
219	02/09/2022	14:56:28.436	1.00475742E+0	-1.23400000E+3	2.00000000E+0	-9.80583787E+0	7.16125300E+6
220	02/09/2022	14:56:29.969	9.97087512E-1	-1.23300000E+3	2.00000000E+0	-9.80583787E+0	7.16125300E+6
221	02/09/2022	14:56:31.355	3.83648595E+0	-1.23400000E+3	2.00000000E+0	-9.80583787E+0	7.16125300E+6
222	02/09/2022	14:56:32.747	1.15700501E+0	-1.23400000E+3	2.00000000E+0	-9.80583787E+0	7.16125300E+6
223	02/09/2022	14:56:34.203	4.45928215E+0	-1.23500000E+3	2.00000000E+0	-9.80583787E+0	7.16125300E+6
224	02/09/2022	14:56:35.599	5.39270946E+0	-1.23400000E+3	2.00000000E+0	-9.80583787E+0	7.16125300E+6
225	02/09/2022	14:56:37.087	5.13883564E-2	-1.23300000E+3	2.00000000E+0	-9.80583787E+0	7.16125300E+6
226	02/09/2022	14:56:38.530	1.74720412E+0	-1.23500000E+3	2.00000000E+0	-9.80583787E+0	7.16125300E+6
227	02/09/2022	14:56:39.890	3.77781119E+0	-1.23400000E+3	2.00000000E+0	-9.80583787E+0	7.16125300E+6
228	02/09/2022	14:56:41.415	1.10561665E+0	-1.23400000E+3	2.00000000E+0	-9.80583787E+0	7.16125300E+6
229	02/09/2022	14:56:42.778	1.55622351E+0	-1.23500000E+3	2.00000000E+0	-9.80583787E+0	7.16125300E+6
230	02/09/2022	14:56:44.217	3.21330626E+0	-1.23300000E+3	2.00000000E+0	-9.80583787E+0	7.16125300E+6
231	02/09/2022	14:56:45.732	4.92254435E+0	-1.23500000E+3	2.00000000E+0	-9.80583787E+0	7.16125300E+6
232	02/09/2022	14:56:47.113	2.97247127E+0	-1.23500000E+3	2.00000000E+0	-9.80583787E+0	7.16125300E+6
233	02/09/2022	14:56:48.585	6.10064159E+0	-1.23400000E+3	2.00000000E+0	-9.80583787E+0	7.16125300E+6
234	02/09/2022	14:56:49.985	4.73616568E+0	-1.23500000E+3	2.00000000E+0	-9.80583787E+0	7.16125300E+6
235	02/09/2022	14:56:51.369	1.75985946E+0	-1.23300000E+3	2.00000000E+0	-9.80583787E+0	7.16125300E+6
236	02/09/2022	14:56:52.905	3.03152953E+0	-1.23500000E+3	2.00000000E+0	-9.80583787E+0	7.16125300E+6
237	02/09/2022	14:56:54.295	5.63546192E+0	-1.23300000E+3	2.00000000E+0	-9.80583787E+0	7.16125300E+6
238	02/09/2022	14:56:55.727	2.92913631E+0	-1.23500000E+3	2.00000000E+0	-9.80583787E+0	7.16125300E+6
239	02/09/2022	14:56:57.209	5.75856388E+0	-1.23400000E+3	2.00000000E+0	-9.80583787E+0	7.16125300E+6
240	02/09/2022	14:56:58.608	4.17587920E+0	-1.23500000E+3	2.00000000E+0	-9.80583787E+0	7.16125300E+6
241	02/09/2022	14:57:00.107	4.74306860E+0	-1.23500000E+3	2.00000000E+0	-9.80583787E+0	7.16125300E+6
242	02/09/2022	14:57:01.496	2.13453427E+0	-1.23300000E+3	2.00000000E+0	-9.80583787E+0	7.16125300E+6
243	02/09/2022	14:57:02.937	1.49179632E+0	-1.23500000E+3	2.00000000E+0	-9.80583787E+0	7.16125300E+6
244	02/09/2022	14:57:04.438	4.10454909E+0	-1.23500000E+3	2.00000000E+0	-9.80583787E+0	7.16125300E+6
245	02/09/2022	14:57:05.814	2.75196153E+0	-1.23500000E+3	2.00000000E+0	-9.80583787E+0	7.16125300E+6
246	02/09/2022	14:57:07.381	1.04118946E+0	-1.23300000E+3	2.00000000E+0	-9.80583787E+0	7.16125300E+6
247	02/09/2022	14:57:08.754	4.75035500E+0	-1.23300000E+3	2.00000000E+0	-9.80583787E+0	7.16125300E+6
248	02/09/2022	14:57:10.142	5.74322407E+0	-1.23500000E+3	2.00000000E+0	-9.80583787E+0	7.16125300E+6
249	02/09/2022	14:57:11.687	3.38741307E+0	-1.23400000E+3	2.00000000E+0	-9.80583787E+0	7.16125300E+6
250	02/09/2022	14:57:13.071	4.66982101E+0	-1.23500000E+3	2.00000000E+0	-9.80583787E+0	7.16125300E+6
251	02/09/2022	14:57:14.455	3.66468010E+0	-1.23300000E+3	2.00000000E+0	-9.80583787E+0	7.16125300E+6
252	02/09/2022	14:57:15.942	1.50828661E+0	-1.23500000E+3	2.00000000E+0	-9.80583787E+0	7.16125300E+6
253	02/09/2022	14:57:17.359	1.79437403E+0	-1.23500000E+3	2.00000000E+0	-9.80583787E+0	7.16125300E+6
254	02/09/2022	14:57:18.812	3.89477722E+0	-1.23500000E+3	2.00000000E+0	-9.80583787E+0	7.16125300E+6
255	02/09/2022	14:57:20.203	2.31937895E+0	-1.23300000E+3	2.00000000E+0	-9.80583787E+0	7.16125300E+6
256	02/09/2022	14:57:21.599	3.23171402E+0	-1.23500000E+3	2.00000000E+0	-9.80583787E+0	7.16125300E+6
257	02/09/2022	14:57:23.123	7.32859321E-1	-1.23300000E+3	2.00000000E+0	-9.80583787E+0	7.16125300E+6
258	02/09/2022	14:57:24.510	2.08966533E+0	-1.23400000E+3	2.00000000E+0	-9.80583787E+0	7.16125300E+6
259	02/09/2022	14:57:25.904	1.21222832E+0	-1.23300000E+3	2.00000000E+0	-9.80583787E+0	7.16125300E+6
260	02/09/2022	14:57:27.306	3.27696646E+0	-1.23500000E+3	2.00000000E+0	-9.80583787E+0	7.16125300E+6
261	02/09/2022	14:57:28.693	3.12050042E+0	-1.23300000E+3	2.00000000E+0	-9.80583787E+0	7.16125300E+6
262	02/09/2022	14:57:30.176	4.83970939E+0	-1.23500000E+3	2.00000000E+0	-9.80583787E+0	7.16125300E+6
263	02/09/2022	14:57:31.548	1.41509728E-1	-1.23500000E+3	2.00000000E+0	-9.80583787E+0	7.16125300E+6
264	02/09/2022	14:57:33.044	6.19498141E+0	-1.23500000E+3	2.00000000E+0	-9.80583787E+0	7.16125300E+6
265	02/09/2022	14:57:34.553	4.60807829E+0	-1.23500000E+3	2.00000000E+0	-9.80583787E+0	7.16125300E+6
266	02/09/2022	14:57:35.950	2.13223330E+0	-1.23300000E+3	2.00000000E+0	-9.80583787E+0	7.16125300E+6
267	02/09/2022	14:57:37.451	3.37130628E+0	-1.23300000E+3	2.00000000E+0	-9.80583787E+0	7.16125300E+6
268	02/09/2022	14:57:38.824	2.91072855E+0	-1.23300000E+3	2.00000000E+0	-9.80583787E+0	7.16125300E+6
269	02/09/2022	14:57:40.218	4.15363648E+0	-1.23500000E+3	2.00000000E+0	-9.80583787E+0	7.16125300E+6
270	02/09/2022	14:57:41.736	4.90682105E+0	-1.23400000E+3	2.00000000E+0	-9.80583787E+0	7.16125300E+6
271	02/09/2022	14:57:43.124	1.78747111E+0	-1.23400000E+3	2.00000000E+0	-9.80583787E+0	7.16125300E+6
272	02/09/2022	14:57:44.572	5.29453469E+0	-1.23300000E+3	2.00000000E+0	-9.80583787E+0	7.16125300E+6
273	02/09/2022	14:57:46.083	2.60086443E+0	-1.23300000E+3	2.00000000E+0	-9.80583787E+0	7.16125300E+6
274	02/09/2022	14:57:47.471	2.55254403E+0	-1.23500000E+3	2.00000000E+0	-9.80583787E+0	7.16125300E+6
275	02/09/2022	14:57:48.944	2.10078669E+0	-1.23300000E+3	2.00000000E+0	-9.80583787E+0	7.16125300E+6
276	02/09/2022	14:57:50.340	3.35213152E+0	-1.23500000E+3	2.00000000E+0	-9.80583787E+0	7.16125300E+6
277	02/09/2022	14:57:51.750	5.31255896E+0	-1.23500000E+3	2.00000000E+0	-9.80583787E+0	7.16125300E+6
278	02/09/2022	14:57:53.254	6.19344743E-1	-1.23400000E+3	2.00000000E+0	-9.80583787E+0	7.16125300E+6
279	02/09/2022	14:57:54.630	5.99709789E+0	-1.23600000E+3	2.00000000E+0	-9.80583787E+0	7.16125300E+6
280	02/09/2022	14:57:56.070	3.97492772E+0	-1.23300000E+3	2.00000000E+0	-9.80583787E+0	7.16125300E+6
281	02/09/2022	14:57:57.558	4.83970939E-1	-1.23400000E+3	2.00000000E+0	-9.80583787E+0	7.16125300E+6
282	02/09/2022	14:57:58.946	4.18623357E+0	-1.23300000E+3	2.00000000E+0	-9.80583787E+0	7.16125300E+6
283	02/09/2022	14:58:00.486	2.63269453E+0	-1.23300000E+3	2.00000000E+0	-9.80583787E+0	7.16125300E+6
284	02/09/2022	14:58:01.874	3.67119952E+0	-1.23400000E+3	2.00000000E+0	-9.80583787E+0	7.16125300E+6
285	02/09/2022	14:58:03.335	1.11635452E+0	-1.23400000E+3	2.00000000E+0	-9.80583787E+0	7.16125300E+6
286	02/09/2022	14:58:04.830	2.77267027E+0	-1.23300000E+3	2.00000000E+0	-9.80583787E+0	7.16125300E+6
287	02/09/2022	14:58:06.212	2.84553436E+0	-1.23400000E+3	2.00000000E+0	-9.80583787E+0	7.16125300E+6
288	02/09/2022	14:58:07.693	5.10317059E+0	-1.23400000E+3	2.00000000E+0	-9.80583787E+0	7.16125300E+6
289	02/09/2022	14:58:09.086	1.43465553E+0	-1.23400000E+3	2.00000000E+0	-9.80583787E+0	7.16125300E+6
290	02/09/2022	14:58:10.464	2.09771873E+0	-1.23500000E+3	2.00000000E+0	-9.80583787E+0	7.16125300E+6
291	02/09/2022	14:58:11.934	3.24091791E+0	-1.23400000E+3	2.00000000E+0	-9.80583787E+0	7.16125300E+6
292	02/09/2022	14:58:13.322	1.02776713E-1	-1.23300000E+3	2.00000000E+0	-9.80583787E+0	7.16125300E+6
293	02/09/2022	14:58:14.761	4.12257337E+0	-1.23400000E+3	2.00000000E+0	-9.80583787E+0	7.16125300E+6
294	02/09/2022	14:58:16.263	3.52317037E+0	-1.23500000E+3	2.00000000E+0	-9.80583787E+0	7.16125300E+6
295	02/09/2022	14:58:17.660	3.68960729E+0	-1.23400000E+3	2.00000000E+0	-9.80583787E+0	7.16125300E+6
296	02/09/2022	14:58:19.177	1.05614577E+0	-1.23500000E+3	2.00000000E+0	-9.80583787E+0	7.16125300E+6
297	02/09/2022	14:58:20.549	3.77052478E+0	-1.23500000E+3	2.00000000E+0	-9.80583787E+0	7.16125300E+6
298	02/09/2022	14:58:21.978	1.41049533E+0	-1.23300000E+3	2.00000000E+0	-9.80583787E+0	7.16125300E+6
299	02/09/2022	14:58:23.482	8.45606909E-1	-1.23300000E+3	2.00000000E+0	-9.80583787E+0	7.16125300E+6
300	02/09/2022	14:58:24.860	3.65432573E+0	-1.23300000E+3	2.00000000E+0	-9.80583787E+0	7.16125300E+6
301	02/09/2022	14:58:26.423	2.51572849E+0	-1.23400000E+3	2.00000000E+0	-9.80583787E+0	7.16125300E+6
