#Iteration	Date	Time	STSX	STSY	RotationRateX	RotationRateY	FrCntX	FrCntY	TiptiltCmd1	TiptiltCmd2	TiptiltMonitor1	TiptiltMonitor2
1	02/09/2022	16:33:38.263	0.00000E+0	0.00000E+0	8.00000E+1	0.00000E+0	0.00000E+0	0.00000E+0	2.00000E+1	1.40000E+1	2.00000E+1	1.40002E+1
2	02/09/2022	16:33:39.772	0.00000E+0	0.00000E+0	8.00000E+1	0.00000E+0	0.00000E+0	0.00000E+0	2.00000E+1	1.40000E+1	2.00023E+1	1.40005E+1
3	02/09/2022	16:33:41.170	0.00000E+0	0.00000E+0	8.00000E+1	0.00000E+0	0.00000E+0	0.00000E+0	2.00000E+1	1.40000E+1	2.00023E+1	1.39999E+1
4	02/09/2022	16:33:42.652	0.00000E+0	0.00000E+0	8.00000E+1	0.00000E+0	0.00000E+0	0.00000E+0	2.00000E+1	1.40000E+1	2.00018E+1	1.39997E+1
5	02/09/2022	16:33:44.169	0.00000E+0	0.00000E+0	8.00000E+1	0.00000E+0	0.00000E+0	0.00000E+0	2.00000E+1	1.40000E+1	1.99996E+1	1.39990E+1
6	02/09/2022	16:33:45.556	0.00000E+0	0.00000E+0	8.00000E+1	0.00000E+0	0.00000E+0	0.00000E+0	2.00000E+1	1.40000E+1	2.00011E+1	1.40029E+1
7	02/09/2022	16:33:47.076	0.00000E+0	0.00000E+0	8.00000E+1	0.00000E+0	0.00000E+0	0.00000E+0	2.00000E+1	1.40000E+1	1.99976E+1	1.40006E+1
8	02/09/2022	16:33:48.447	0.00000E+0	0.00000E+0	8.00000E+1	0.00000E+0	0.00000E+0	0.00000E+0	2.00000E+1	1.40000E+1	1.99979E+1	1.39964E+1
9	02/09/2022	16:33:49.927	0.00000E+0	0.00000E+0	8.00000E+1	0.00000E+0	0.00000E+0	0.00000E+0	2.00000E+1	1.40000E+1	1.99995E+1	1.39995E+1
10	02/09/2022	16:33:51.431	0.00000E+0	0.00000E+0	8.00000E+1	0.00000E+0	0.00000E+0	0.00000E+0	2.00000E+1	1.40000E+1	1.99987E+1	1.40037E+1
11	02/09/2022	16:33:52.834	0.00000E+0	0.00000E+0	8.00000E+1	0.00000E+0	0.00000E+0	0.00000E+0	2.00000E+1	1.40000E+1	1.99989E+1	1.39985E+1
12	02/09/2022	16:33:54.232	0.00000E+0	0.00000E+0	8.00000E+1	0.00000E+0	0.00000E+0	0.00000E+0	2.00000E+1	1.40000E+1	1.99998E+1	1.39990E+1
13	02/09/2022	16:33:55.664	0.00000E+0	0.00000E+0	8.00000E+1	0.00000E+0	0.00000E+0	0.00000E+0	2.00000E+1	1.40000E+1	2.00013E+1	1.40014E+1
14	02/09/2022	16:33:57.070	0.00000E+0	0.00000E+0	8.00000E+1	0.00000E+0	0.00000E+0	0.00000E+0	2.00000E+1	1.40000E+1	2.00008E+1	1.39984E+1
15	02/09/2022	16:33:58.574	0.00000E+0	0.00000E+0	8.00000E+1	0.00000E+0	0.00000E+0	0.00000E+0	2.00000E+1	1.40000E+1	1.99986E+1	1.39977E+1
16	02/09/2022	16:33:59.964	0.00000E+0	0.00000E+0	8.00000E+1	0.00000E+0	0.00000E+0	0.00000E+0	2.00000E+1	1.40000E+1	2.00003E+1	1.40007E+1
17	02/09/2022	16:34:01.401	0.00000E+0	0.00000E+0	8.00000E+1	0.00000E+0	0.00000E+0	0.00000E+0	2.00000E+1	1.40000E+1	1.99992E+1	1.40013E+1
18	02/09/2022	16:34:02.912	0.00000E+0	0.00000E+0	8.00000E+1	0.00000E+0	0.00000E+0	0.00000E+0	2.00000E+1	1.40000E+1	2.00008E+1	1.39996E+1
19	02/09/2022	16:34:04.312	0.00000E+0	0.00000E+0	8.00000E+1	0.00000E+0	0.00000E+0	0.00000E+0	2.00000E+1	1.40000E+1	2.00002E+1	1.39994E+1
20	02/09/2022	16:34:05.769	0.00000E+0	0.00000E+0	8.00000E+1	0.00000E+0	0.00000E+0	0.00000E+0	2.00000E+1	1.40000E+1	1.99991E+1	1.39980E+1
21	02/09/2022	16:34:07.153	0.00000E+0	0.00000E+0	8.00000E+1	0.00000E+0	0.00000E+0	0.00000E+0	2.00000E+1	1.40000E+1	1.99967E+1	1.39968E+1
22	02/09/2022	16:34:08.553	0.00000E+0	0.00000E+0	8.00000E+1	0.00000E+0	0.00000E+0	0.00000E+0	2.00000E+1	1.40000E+1	1.99997E+1	1.39992E+1
23	02/09/2022	16:34:10.105	0.00000E+0	0.00000E+0	8.00000E+1	0.00000E+0	0.00000E+0	0.00000E+0	2.00000E+1	1.40000E+1	1.99999E+1	1.40020E+1
24	02/09/2022	16:34:11.498	0.00000E+0	0.00000E+0	8.00000E+1	0.00000E+0	0.00000E+0	0.00000E+0	2.00000E+1	1.40000E+1	2.00010E+1	1.39990E+1
25	02/09/2022	16:34:12.940	0.00000E+0	0.00000E+0	8.00000E+1	0.00000E+0	0.00000E+0	0.00000E+0	2.00000E+1	1.40000E+1	2.00000E+1	1.39993E+1
26	02/09/2022	16:34:14.329	0.00000E+0	0.00000E+0	8.00000E+1	0.00000E+0	0.00000E+0	0.00000E+0	2.00000E+1	1.40000E+1	2.00020E+1	1.39989E+1
27	02/09/2022	16:34:15.720	0.00000E+0	0.00000E+0	8.00000E+1	0.00000E+0	0.00000E+0	0.00000E+0	2.00000E+1	1.40000E+1	1.99988E+1	1.39999E+1
28	02/09/2022	16:34:17.169	0.00000E+0	0.00000E+0	8.00000E+1	0.00000E+0	0.00000E+0	0.00000E+0	2.00000E+1	1.40000E+1	1.99992E+1	1.40003E+1
29	02/09/2022	16:34:18.570	0.00000E+0	0.00000E+0	8.00000E+1	0.00000E+0	0.00000E+0	0.00000E+0	2.00000E+1	1.40000E+1	1.99993E+1	1.39991E+1
30	02/09/2022	16:34:19.973	0.00000E+0	0.00000E+0	8.00000E+1	0.00000E+0	0.00000E+0	0.00000E+0	2.00000E+1	1.40000E+1	2.00016E+1	1.40002E+1
31	02/09/2022	16:34:21.489	0.00000E+0	0.00000E+0	8.00000E+1	0.00000E+0	0.00000E+0	0.00000E+0	2.00000E+1	1.40000E+1	2.00002E+1	1.39991E+1
32	02/09/2022	16:34:22.861	0.00000E+0	0.00000E+0	8.00000E+1	0.00000E+0	0.00000E+0	0.00000E+0	2.00000E+1	1.40000E+1	1.99992E+1	1.40025E+1
33	02/09/2022	16:34:24.407	0.00000E+0	0.00000E+0	8.00000E+1	0.00000E+0	0.00000E+0	0.00000E+0	2.00000E+1	1.40000E+1	2.00004E+1	1.39998E+1
34	02/09/2022	16:34:25.775	0.00000E+0	0.00000E+0	8.00000E+1	0.00000E+0	0.00000E+0	0.00000E+0	2.00000E+1	1.40000E+1	2.00007E+1	1.40022E+1
35	02/09/2022	16:34:27.154	0.00000E+0	0.00000E+0	8.00000E+1	0.00000E+0	0.00000E+0	0.00000E+0	2.00000E+1	1.40000E+1	1.99993E+1	1.39977E+1
36	02/09/2022	16:34:28.652	0.00000E+0	0.00000E+0	8.00000E+1	0.00000E+0	0.00000E+0	0.00000E+0	2.00000E+1	1.40000E+1	1.99981E+1	1.40019E+1
37	02/09/2022	16:34:30.057	0.00000E+0	0.00000E+0	8.00000E+1	0.00000E+0	0.00000E+0	0.00000E+0	2.00000E+1	1.40000E+1	1.99972E+1	1.39989E+1
38	02/09/2022	16:34:31.456	0.00000E+0	0.00000E+0	8.00000E+1	0.00000E+0	0.00000E+0	0.00000E+0	2.00000E+1	1.40000E+1	2.00017E+1	1.40004E+1
39	02/09/2022	16:34:32.945	0.00000E+0	0.00000E+0	8.00000E+1	0.00000E+0	0.00000E+0	0.00000E+0	2.00000E+1	1.40000E+1	2.00002E+1	1.39993E+1
40	02/09/2022	16:34:34.325	0.00000E+0	0.00000E+0	8.00000E+1	0.00000E+0	0.00000E+0	0.00000E+0	2.00000E+1	1.40000E+1	1.99986E+1	1.39998E+1
41	02/09/2022	16:34:35.852	0.00000E+0	0.00000E+0	8.00000E+1	0.00000E+0	0.00000E+0	0.00000E+0	2.00000E+1	1.40000E+1	2.00015E+1	1.39991E+1
42	02/09/2022	16:34:37.249	0.00000E+0	0.00000E+0	8.00000E+1	0.00000E+0	0.00000E+0	0.00000E+0	2.00000E+1	1.40000E+1	2.00007E+1	1.39999E+1
43	02/09/2022	16:34:38.615	0.00000E+0	0.00000E+0	8.00000E+1	0.00000E+0	0.00000E+0	0.00000E+0	2.00000E+1	1.40000E+1	1.99996E+1	1.40010E+1
44	02/09/2022	16:34:40.114	0.00000E+0	0.00000E+0	8.00000E+1	0.00000E+0	0.00000E+0	0.00000E+0	2.00000E+1	1.40000E+1	1.99995E+1	1.39997E+1
45	02/09/2022	16:34:41.506	0.00000E+0	0.00000E+0	8.00000E+1	0.00000E+0	0.00000E+0	0.00000E+0	2.00000E+1	1.40000E+1	2.00005E+1	1.39980E+1
46	02/09/2022	16:34:42.987	0.00000E+0	0.00000E+0	8.00000E+1	0.00000E+0	0.00000E+0	0.00000E+0	2.00000E+1	1.40000E+1	1.99977E+1	1.40012E+1
47	02/09/2022	16:34:44.451	0.00000E+0	0.00000E+0	8.00000E+1	0.00000E+0	0.00000E+0	0.00000E+0	2.00000E+1	1.40000E+1	2.00007E+1	1.40022E+1
48	02/09/2022	16:34:45.840	0.00000E+0	0.00000E+0	8.00000E+1	0.00000E+0	0.00000E+0	0.00000E+0	2.00000E+1	1.40000E+1	1.99964E+1	1.40016E+1
49	02/09/2022	16:34:47.393	0.00000E+0	0.00000E+0	8.00000E+1	0.00000E+0	0.00000E+0	0.00000E+0	2.00000E+1	1.40000E+1	2.00004E+1	1.40014E+1
50	02/09/2022	16:34:48.772	0.00000E+0	0.00000E+0	8.00000E+1	0.00000E+0	0.00000E+0	0.00000E+0	2.00000E+1	1.40000E+1	2.00002E+1	1.39990E+1
51	02/09/2022	16:34:50.179	0.00000E+0	0.00000E+0	8.00000E+1	0.00000E+0	0.00000E+0	0.00000E+0	2.00000E+1	1.40000E+1	2.00025E+1	1.40001E+1
52	02/09/2022	16:34:51.682	0.00000E+0	0.00000E+0	8.00000E+1	0.00000E+0	0.00000E+0	0.00000E+0	2.00000E+1	1.40000E+1	2.00002E+1	1.40009E+1
53	02/09/2022	16:34:53.058	0.00000E+0	0.00000E+0	8.00000E+1	0.00000E+0	0.00000E+0	0.00000E+0	2.00000E+1	1.40000E+1	2.00001E+1	1.40001E+1
54	02/09/2022	16:34:54.535	0.00000E+0	0.00000E+0	8.00000E+1	0.00000E+0	0.00000E+0	0.00000E+0	2.00000E+1	1.40000E+1	1.99993E+1	1.39991E+1
55	02/09/2022	16:34:55.913	0.00000E+0	0.00000E+0	8.00000E+1	0.00000E+0	0.00000E+0	0.00000E+0	2.00000E+1	1.40000E+1	1.99982E+1	1.39991E+1
56	02/09/2022	16:34:57.306	0.00000E+0	0.00000E+0	8.00000E+1	0.00000E+0	0.00000E+0	0.00000E+0	2.00000E+1	1.40000E+1	1.99990E+1	1.40011E+1
57	02/09/2022	16:34:58.761	0.00000E+0	0.00000E+0	8.00000E+1	0.00000E+0	0.00000E+0	0.00000E+0	2.00000E+1	1.40000E+1	2.00002E+1	1.39985E+1
58	02/09/2022	16:35:00.167	0.00000E+0	0.00000E+0	8.00000E+1	0.00000E+0	0.00000E+0	0.00000E+0	2.00000E+1	1.40000E+1	1.99980E+1	1.40021E+1
59	02/09/2022	16:35:01.547	0.00000E+0	0.00000E+0	8.00000E+1	0.00000E+0	0.00000E+0	0.00000E+0	2.00000E+1	1.40000E+1	1.99990E+1	1.40012E+1
60	02/09/2022	16:35:03.039	0.00000E+0	0.00000E+0	8.00000E+1	0.00000E+0	0.00000E+0	0.00000E+0	2.00000E+1	1.40000E+1	2.00008E+1	1.39998E+1
61	02/09/2022	16:35:04.451	0.00000E+0	0.00000E+0	8.00000E+1	0.00000E+0	0.00000E+0	0.00000E+0	2.00000E+1	1.40000E+1	2.00013E+1	1.40001E+1
62	02/09/2022	16:35:05.961	0.00000E+0	0.00000E+0	8.00000E+1	0.00000E+0	0.00000E+0	0.00000E+0	2.00000E+1	1.40000E+1	1.99975E+1	1.39978E+1
63	02/09/2022	16:35:07.370	0.00000E+0	0.00000E+0	8.00000E+1	0.00000E+0	0.00000E+0	0.00000E+0	2.00000E+1	1.40000E+1	2.00024E+1	1.40014E+1
64	02/09/2022	16:35:08.824	0.00000E+0	0.00000E+0	8.00000E+1	0.00000E+0	0.00000E+0	0.00000E+0	2.00000E+1	1.40000E+1	2.00002E+1	1.39979E+1
65	02/09/2022	16:35:10.349	0.00000E+0	0.00000E+0	8.00000E+1	0.00000E+0	0.00000E+0	0.00000E+0	2.00000E+1	1.40000E+1	1.99992E+1	1.39995E+1
66	02/09/2022	16:35:11.754	0.00000E+0	0.00000E+0	8.00000E+1	0.00000E+0	0.00000E+0	0.00000E+0	2.00000E+1	1.40000E+1	1.99978E+1	1.39997E+1
67	02/09/2022	16:35:13.283	0.00000E+0	0.00000E+0	8.00000E+1	0.00000E+0	0.00000E+0	0.00000E+0	2.00000E+1	1.40000E+1	1.99998E+1	1.39997E+1
68	02/09/2022	16:35:14.671	0.00000E+0	0.00000E+0	8.00000E+1	0.00000E+0	0.00000E+0	0.00000E+0	2.00000E+1	1.40000E+1	1.99988E+1	1.39988E+1
69	02/09/2022	16:35:16.070	0.00000E+0	0.00000E+0	8.00000E+1	0.00000E+0	0.00000E+0	0.00000E+0	2.00000E+1	1.40000E+1	1.99993E+1	1.39999E+1
70	02/09/2022	16:35:17.542	0.00000E+0	0.00000E+0	8.00000E+1	0.00000E+0	0.00000E+0	0.00000E+0	2.00000E+1	1.40000E+1	1.99989E+1	1.40004E+1
71	02/09/2022	16:35:18.932	0.00000E+0	0.00000E+0	8.00000E+1	0.00000E+0	0.00000E+0	0.00000E+0	2.00000E+1	1.40000E+1	1.99992E+1	1.39999E+1
72	02/09/2022	16:35:20.391	0.00000E+0	0.00000E+0	8.00000E+1	0.00000E+0	0.00000E+0	0.00000E+0	2.00000E+1	1.40000E+1	1.99993E+1	1.39995E+1
73	02/09/2022	16:35:21.887	0.00000E+0	0.00000E+0	8.00000E+1	0.00000E+0	0.00000E+0	0.00000E+0	2.00000E+1	1.40000E+1	1.99999E+1	1.39991E+1
74	02/09/2022	16:35:23.284	0.00000E+0	0.00000E+0	8.00000E+1	0.00000E+0	0.00000E+0	0.00000E+0	2.00000E+1	1.40000E+1	1.99978E+1	1.39976E+1
75	02/09/2022	16:35:24.762	0.00000E+0	0.00000E+0	8.00000E+1	0.00000E+0	0.00000E+0	0.00000E+0	2.00000E+1	1.40000E+1	1.99988E+1	1.39993E+1
76	02/09/2022	16:35:26.144	0.00000E+0	0.00000E+0	8.00000E+1	0.00000E+0	0.00000E+0	0.00000E+0	2.00000E+1	1.40000E+1	2.00024E+1	1.40009E+1
77	02/09/2022	16:35:27.532	0.00000E+0	0.00000E+0	8.00000E+1	0.00000E+0	0.00000E+0	0.00000E+0	2.00000E+1	1.40000E+1	2.00018E+1	1.40015E+1
78	02/09/2022	16:35:29.114	0.00000E+0	0.00000E+0	8.00000E+1	0.00000E+0	0.00000E+0	0.00000E+0	2.00000E+1	1.40000E+1	1.99992E+1	1.40000E+1
79	02/09/2022	16:35:30.514	0.00000E+0	0.00000E+0	8.00000E+1	0.00000E+0	0.00000E+0	0.00000E+0	2.00000E+1	1.40000E+1	1.99994E+1	1.40019E+1
80	02/09/2022	16:35:31.941	0.00000E+0	0.00000E+0	8.00000E+1	0.00000E+0	0.00000E+0	0.00000E+0	2.00000E+1	1.40000E+1	2.00005E+1	1.39975E+1
81	02/09/2022	16:35:33.293	0.00000E+0	0.00000E+0	8.00000E+1	0.00000E+0	0.00000E+0	0.00000E+0	2.00000E+1	1.40000E+1	2.00001E+1	1.40002E+1
82	02/09/2022	16:35:34.684	0.00000E+0	0.00000E+0	8.00000E+1	0.00000E+0	0.00000E+0	0.00000E+0	2.00000E+1	1.40000E+1	2.00006E+1	1.39977E+1
83	02/09/2022	16:35:36.243	0.00000E+0	0.00000E+0	8.00000E+1	0.00000E+0	0.00000E+0	0.00000E+0	2.00000E+1	1.40000E+1	1.99983E+1	1.39987E+1
84	02/09/2022	16:35:37.670	0.00000E+0	0.00000E+0	8.00000E+1	0.00000E+0	0.00000E+0	0.00000E+0	2.00000E+1	1.40000E+1	1.99975E+1	1.39997E+1
85	02/09/2022	16:35:39.030	0.00000E+0	0.00000E+0	8.00000E+1	0.00000E+0	0.00000E+0	0.00000E+0	2.00000E+1	1.40000E+1	2.00000E+1	1.40008E+1
86	02/09/2022	16:35:40.566	0.00000E+0	0.00000E+0	8.00000E+1	0.00000E+0	0.00000E+0	0.00000E+0	2.00000E+1	1.40000E+1	1.99997E+1	1.39999E+1
87	02/09/2022	16:35:41.937	0.00000E+0	0.00000E+0	8.00000E+1	0.00000E+0	0.00000E+0	0.00000E+0	2.00000E+1	1.40000E+1	1.99979E+1	1.40003E+1
88	02/09/2022	16:35:43.480	0.00000E+0	0.00000E+0	8.00000E+1	0.00000E+0	0.00000E+0	0.00000E+0	2.00000E+1	1.40000E+1	1.99992E+1	1.39998E+1
89	02/09/2022	16:35:44.892	0.00000E+0	0.00000E+0	8.00000E+1	0.00000E+0	0.00000E+0	0.00000E+0	2.00000E+1	1.40000E+1	2.00016E+1	1.39989E+1
90	02/09/2022	16:35:46.278	0.00000E+0	0.00000E+0	8.00000E+1	0.00000E+0	0.00000E+0	0.00000E+0	2.00000E+1	1.40000E+1	1.99988E+1	1.39996E+1
91	02/09/2022	16:35:47.732	0.00000E+0	0.00000E+0	8.00000E+1	0.00000E+0	0.00000E+0	0.00000E+0	2.00000E+1	1.40000E+1	1.99993E+1	1.39970E+1
92	02/09/2022	16:35:49.122	0.00000E+0	0.00000E+0	8.00000E+1	0.00000E+0	0.00000E+0	0.00000E+0	2.00000E+1	1.40000E+1	1.99998E+1	1.40015E+1
93	02/09/2022	16:35:50.527	0.00000E+0	0.00000E+0	8.00000E+1	0.00000E+0	0.00000E+0	0.00000E+0	2.00000E+1	1.40000E+1	2.00002E+1	1.40009E+1
94	02/09/2022	16:35:52.037	0.00000E+0	0.00000E+0	8.00000E+1	0.00000E+0	0.00000E+0	0.00000E+0	2.00000E+1	1.40000E+1	1.99992E+1	1.39995E+1
95	02/09/2022	16:35:53.425	0.00000E+0	0.00000E+0	8.00000E+1	0.00000E+0	0.00000E+0	0.00000E+0	2.00000E+1	1.40000E+1	2.00023E+1	1.40014E+1
96	02/09/2022	16:35:54.912	0.00000E+0	0.00000E+0	8.00000E+1	0.00000E+0	0.00000E+0	0.00000E+0	2.00000E+1	1.40000E+1	2.00019E+1	1.40009E+1
97	02/09/2022	16:35:56.321	0.00000E+0	0.00000E+0	8.00000E+1	0.00000E+0	0.00000E+0	0.00000E+0	2.00000E+1	1.40000E+1	1.99990E+1	1.39980E+1
98	02/09/2022	16:35:57.728	0.00000E+0	0.00000E+0	8.00000E+1	0.00000E+0	0.00000E+0	0.00000E+0	2.00000E+1	1.40000E+1	1.99960E+1	1.40000E+1
99	02/09/2022	16:35:59.193	0.00000E+0	0.00000E+0	8.00000E+1	0.00000E+0	0.00000E+0	0.00000E+0	2.00000E+1	1.40000E+1	2.00011E+1	1.40009E+1
100	02/09/2022	16:36:00.587	0.00000E+0	0.00000E+0	8.00000E+1	0.00000E+0	0.00000E+0	0.00000E+0	2.00000E+1	1.40000E+1	1.99991E+1	1.40024E+1
101	02/09/2022	16:36:02.010	0.00000E+0	0.00000E+0	8.00000E+1	0.00000E+0	0.00000E+0	0.00000E+0	2.00000E+1	1.40000E+1	1.99971E+1	1.40003E+1
102	02/09/2022	16:36:03.528	0.00000E+0	0.00000E+0	8.00000E+1	0.00000E+0	0.00000E+0	0.00000E+0	2.00000E+1	1.40000E+1	1.99984E+1	1.39975E+1
103	02/09/2022	16:36:04.907	0.00000E+0	0.00000E+0	8.00000E+1	0.00000E+0	0.00000E+0	0.00000E+0	2.00000E+1	1.40000E+1	2.00017E+1	1.39990E+1
104	02/09/2022	16:36:06.484	0.00000E+0	0.00000E+0	8.00000E+1	0.00000E+0	0.00000E+0	0.00000E+0	2.00000E+1	1.40000E+1	1.99989E+1	1.39983E+1
105	02/09/2022	16:36:07.862	0.00000E+0	0.00000E+0	8.00000E+1	0.00000E+0	0.00000E+0	0.00000E+0	2.00000E+1	1.40000E+1	2.00026E+1	1.39994E+1
106	02/09/2022	16:36:09.274	0.00000E+0	0.00000E+0	8.00000E+1	0.00000E+0	0.00000E+0	0.00000E+0	2.00000E+1	1.40000E+1	1.99996E+1	1.39993E+1
107	02/09/2022	16:36:10.779	0.00000E+0	0.00000E+0	8.00000E+1	0.00000E+0	0.00000E+0	0.00000E+0	2.00000E+1	1.40000E+1	1.99979E+1	1.39993E+1
108	02/09/2022	16:36:12.165	0.00000E+0	0.00000E+0	8.00000E+1	0.00000E+0	0.00000E+0	0.00000E+0	2.00000E+1	1.40000E+1	1.99993E+1	1.39997E+1
109	02/09/2022	16:36:13.619	0.00000E+0	0.00000E+0	8.00000E+1	0.00000E+0	0.00000E+0	0.00000E+0	2.00000E+1	1.40000E+1	1.99974E+1	1.40003E+1
110	02/09/2022	16:36:14.995	0.00000E+0	0.00000E+0	8.00000E+1	0.00000E+0	0.00000E+0	0.00000E+0	2.00000E+1	1.40000E+1	1.99970E+1	1.40001E+1
111	02/09/2022	16:36:16.368	0.00000E+0	0.00000E+0	8.00000E+1	0.00000E+0	0.00000E+0	0.00000E+0	2.00000E+1	1.40000E+1	1.99992E+1	1.39976E+1
112	02/09/2022	16:36:17.929	0.00000E+0	0.00000E+0	8.00000E+1	0.00000E+0	0.00000E+0	0.00000E+0	2.00000E+1	1.40000E+1	1.99987E+1	1.39965E+1
113	02/09/2022	16:36:19.328	0.00000E+0	0.00000E+0	8.00000E+1	0.00000E+0	0.00000E+0	0.00000E+0	2.00000E+1	1.40000E+1	2.00027E+1	1.40006E+1
114	02/09/2022	16:36:20.765	0.00000E+0	0.00000E+0	8.00000E+1	0.00000E+0	0.00000E+0	0.00000E+0	2.00000E+1	1.40000E+1	2.00029E+1	1.39984E+1
115	02/09/2022	16:36:22.312	0.00000E+0	0.00000E+0	8.00000E+1	0.00000E+0	0.00000E+0	0.00000E+0	2.00000E+1	1.40000E+1	2.00024E+1	1.39987E+1
116	02/09/2022	16:36:23.695	0.00000E+0	0.00000E+0	8.00000E+1	0.00000E+0	0.00000E+0	0.00000E+0	2.00000E+1	1.40000E+1	2.00004E+1	1.40000E+1
117	02/09/2022	16:36:25.174	0.00000E+0	0.00000E+0	8.00000E+1	0.00000E+0	0.00000E+0	0.00000E+0	2.00000E+1	1.40000E+1	1.99997E+1	1.40000E+1
118	02/09/2022	16:36:26.569	0.00000E+0	0.00000E+0	8.00000E+1	0.00000E+0	0.00000E+0	0.00000E+0	2.00000E+1	1.40000E+1	1.99982E+1	1.39991E+1
119	02/09/2022	16:36:28.018	0.00000E+0	0.00000E+0	8.00000E+1	0.00000E+0	0.00000E+0	0.00000E+0	2.00000E+1	1.40000E+1	1.99979E+1	1.40013E+1
120	02/09/2022	16:36:29.524	0.00000E+0	0.00000E+0	8.00000E+1	0.00000E+0	0.00000E+0	0.00000E+0	2.00000E+1	1.40000E+1	2.00008E+1	1.39981E+1
121	02/09/2022	16:36:30.906	0.00000E+0	0.00000E+0	8.00000E+1	0.00000E+0	0.00000E+0	0.00000E+0	2.00000E+1	1.40000E+1	2.00006E+1	1.39989E+1
122	02/09/2022	16:36:32.385	0.00000E+0	0.00000E+0	8.00000E+1	0.00000E+0	0.00000E+0	0.00000E+0	2.00000E+1	1.40000E+1	2.00000E+1	1.39986E+1
123	02/09/2022	16:36:33.836	0.00000E+0	0.00000E+0	8.00000E+1	0.00000E+0	0.00000E+0	0.00000E+0	2.00000E+1	1.40000E+1	1.99997E+1	1.39998E+1
124	02/09/2022	16:36:35.227	0.00000E+0	0.00000E+0	8.00000E+1	0.00000E+0	0.00000E+0	0.00000E+0	2.00000E+1	1.40000E+1	1.99998E+1	1.39991E+1
125	02/09/2022	16:36:36.698	0.00000E+0	0.00000E+0	8.00000E+1	0.00000E+0	0.00000E+0	0.00000E+0	2.00000E+1	1.40000E+1	2.00001E+1	1.39991E+1
126	02/09/2022	16:36:38.101	0.00000E+0	0.00000E+0	8.00000E+1	0.00000E+0	0.00000E+0	0.00000E+0	2.00000E+1	1.40000E+1	2.00016E+1	1.40016E+1
127	02/09/2022	16:36:39.551	0.00000E+0	0.00000E+0	8.00000E+1	0.00000E+0	0.00000E+0	0.00000E+0	2.00000E+1	1.40000E+1	1.99984E+1	1.39995E+1
128	02/09/2022	16:36:41.071	0.00000E+0	0.00000E+0	8.00000E+1	0.00000E+0	0.00000E+0	0.00000E+0	2.00000E+1	1.40000E+1	2.00014E+1	1.40008E+1
129	02/09/2022	16:36:42.430	0.00000E+0	0.00000E+0	8.00000E+1	0.00000E+0	0.00000E+0	0.00000E+0	2.00000E+1	1.40000E+1	1.99974E+1	1.40013E+1
130	02/09/2022	16:36:43.901	0.00000E+0	0.00000E+0	8.00000E+1	0.00000E+0	0.00000E+0	0.00000E+0	2.00000E+1	1.40000E+1	1.99996E+1	1.40004E+1
131	02/09/2022	16:36:45.297	0.00000E+0	0.00000E+0	8.00000E+1	0.00000E+0	0.00000E+0	0.00000E+0	2.00000E+1	1.40000E+1	2.00010E+1	1.40009E+1
132	02/09/2022	16:36:46.693	0.00000E+0	0.00000E+0	8.00000E+1	0.00000E+0	0.00000E+0	0.00000E+0	2.00000E+1	1.40000E+1	2.00002E+1	1.39997E+1
133	02/09/2022	16:36:48.247	0.00000E+0	0.00000E+0	8.00000E+1	0.00000E+0	0.00000E+0	0.00000E+0	2.00000E+1	1.40000E+1	1.99993E+1	1.39989E+1
134	02/09/2022	16:36:49.640	0.00000E+0	0.00000E+0	8.00000E+1	0.00000E+0	0.00000E+0	0.00000E+0	2.00000E+1	1.40000E+1	1.99996E+1	1.39973E+1
135	02/09/2022	16:36:51.086	0.00000E+0	0.00000E+0	8.00000E+1	0.00000E+0	0.00000E+0	0.00000E+0	2.00000E+1	1.40000E+1	1.99993E+1	1.39997E+1
136	02/09/2022	16:36:52.504	0.00000E+0	0.00000E+0	8.00000E+1	0.00000E+0	0.00000E+0	0.00000E+0	2.00000E+1	1.40000E+1	2.00020E+1	1.40010E+1
137	02/09/2022	16:36:53.875	0.00000E+0	0.00000E+0	8.00000E+1	0.00000E+0	0.00000E+0	0.00000E+0	2.00000E+1	1.40000E+1	2.00010E+1	1.39998E+1
138	02/09/2022	16:36:55.420	0.00000E+0	0.00000E+0	8.00000E+1	0.00000E+0	0.00000E+0	0.00000E+0	2.00000E+1	1.40000E+1	1.99994E+1	1.39997E+1
139	02/09/2022	16:36:56.784	0.00000E+0	0.00000E+0	8.00000E+1	0.00000E+0	0.00000E+0	0.00000E+0	2.00000E+1	1.40000E+1	2.00005E+1	1.40005E+1
140	02/09/2022	16:36:58.261	0.00000E+0	0.00000E+0	8.00000E+1	0.00000E+0	0.00000E+0	0.00000E+0	2.00000E+1	1.40000E+1	1.99986E+1	1.39991E+1
141	02/09/2022	16:36:59.747	0.00000E+0	0.00000E+0	8.00000E+1	0.00000E+0	0.00000E+0	0.00000E+0	2.00000E+1	1.40000E+1	2.00019E+1	1.39973E+1
142	02/09/2022	16:37:01.140	0.00000E+0	0.00000E+0	8.00000E+1	0.00000E+0	0.00000E+0	0.00000E+0	2.00000E+1	1.40000E+1	1.99991E+1	1.39976E+1
143	02/09/2022	16:37:02.605	0.00000E+0	0.00000E+0	8.00000E+1	0.00000E+0	0.00000E+0	0.00000E+0	2.00000E+1	1.40000E+1	1.99987E+1	1.39991E+1
144	02/09/2022	16:37:04.015	0.00000E+0	0.00000E+0	8.00000E+1	0.00000E+0	0.00000E+0	0.00000E+0	2.00000E+1	1.40000E+1	1.99997E+1	1.40009E+1
145	02/09/2022	16:37:05.390	0.00000E+0	0.00000E+0	8.00000E+1	0.00000E+0	0.00000E+0	0.00000E+0	2.00000E+1	1.40000E+1	1.99985E+1	1.39983E+1
146	02/09/2022	16:37:06.872	0.00000E+0	0.00000E+0	8.00000E+1	0.00000E+0	0.00000E+0	0.00000E+0	2.00000E+1	1.40000E+1	2.00035E+1	1.40008E+1
147	02/09/2022	16:37:08.299	0.00000E+0	0.00000E+0	8.00000E+1	0.00000E+0	0.00000E+0	0.00000E+0	2.00000E+1	1.40000E+1	1.99991E+1	1.39978E+1
148	02/09/2022	16:37:09.682	0.00000E+0	0.00000E+0	8.00000E+1	0.00000E+0	0.00000E+0	0.00000E+0	2.00000E+1	1.40000E+1	1.99990E+1	1.40003E+1
149	02/09/2022	16:37:11.193	0.00000E+0	0.00000E+0	8.00000E+1	0.00000E+0	0.00000E+0	0.00000E+0	2.00000E+1	1.40000E+1	2.00001E+1	1.39995E+1
150	02/09/2022	16:37:12.584	0.00000E+0	0.00000E+0	8.00000E+1	0.00000E+0	0.00000E+0	0.00000E+0	2.00000E+1	1.40000E+1	1.99991E+1	1.39997E+1
151	02/09/2022	16:37:14.141	0.00000E+0	0.00000E+0	8.00000E+1	0.00000E+0	0.00000E+0	0.00000E+0	2.00000E+1	1.40000E+1	2.00029E+1	1.39988E+1
152	02/09/2022	16:37:15.533	0.00000E+0	0.00000E+0	8.00000E+1	0.00000E+0	0.00000E+0	0.00000E+0	2.00000E+1	1.40000E+1	1.99992E+1	1.39990E+1
153	02/09/2022	16:37:16.935	0.00000E+0	0.00000E+0	8.00000E+1	0.00000E+0	0.00000E+0	0.00000E+0	2.00000E+1	1.40000E+1	1.99999E+1	1.39988E+1
154	02/09/2022	16:37:18.426	0.00000E+0	0.00000E+0	8.00000E+1	0.00000E+0	0.00000E+0	0.00000E+0	2.00000E+1	1.40000E+1	1.99997E+1	1.39982E+1
155	02/09/2022	16:37:19.824	0.00000E+0	0.00000E+0	8.00000E+1	0.00000E+0	0.00000E+0	0.00000E+0	2.00000E+1	1.40000E+1	1.99997E+1	1.40009E+1
156	02/09/2022	16:37:21.283	0.00000E+0	0.00000E+0	8.00000E+1	0.00000E+0	0.00000E+0	0.00000E+0	2.00000E+1	1.40000E+1	2.00018E+1	1.39999E+1
157	02/09/2022	16:37:22.733	0.00000E+0	0.00000E+0	8.00000E+1	0.00000E+0	0.00000E+0	0.00000E+0	2.00000E+1	1.40000E+1	1.99986E+1	1.39983E+1
158	02/09/2022	16:37:24.124	0.00000E+0	0.00000E+0	8.00000E+1	0.00000E+0	0.00000E+0	0.00000E+0	2.00000E+1	1.40000E+1	1.99984E+1	1.39991E+1
159	02/09/2022	16:37:25.670	0.00000E+0	0.00000E+0	8.00000E+1	0.00000E+0	0.00000E+0	0.00000E+0	2.00000E+1	1.40000E+1	2.00003E+1	1.39999E+1
160	02/09/2022	16:37:27.063	0.00000E+0	0.00000E+0	8.00000E+1	0.00000E+0	0.00000E+0	0.00000E+0	2.00000E+1	1.40000E+1	2.00015E+1	1.40015E+1
161	02/09/2022	16:37:28.536	0.00000E+0	0.00000E+0	8.00000E+1	0.00000E+0	0.00000E+0	0.00000E+0	2.00000E+1	1.40000E+1	2.00005E+1	1.39988E+1
162	02/09/2022	16:37:30.048	0.00000E+0	0.00000E+0	8.00000E+1	0.00000E+0	0.00000E+0	0.00000E+0	2.00000E+1	1.40000E+1	1.99990E+1	1.40030E+1
163	02/09/2022	16:37:31.434	0.00000E+0	0.00000E+0	8.00000E+1	0.00000E+0	0.00000E+0	0.00000E+0	2.00000E+1	1.40000E+1	2.00002E+1	1.40000E+1
164	02/09/2022	16:37:32.903	0.00000E+0	0.00000E+0	8.00000E+1	0.00000E+0	0.00000E+0	0.00000E+0	2.00000E+1	1.40000E+1	2.00024E+1	1.39976E+1
165	02/09/2022	16:37:34.301	0.00000E+0	0.00000E+0	8.00000E+1	0.00000E+0	0.00000E+0	0.00000E+0	2.00000E+1	1.40000E+1	1.99981E+1	1.40011E+1
166	02/09/2022	16:37:35.688	0.00000E+0	0.00000E+0	8.00000E+1	0.00000E+0	0.00000E+0	0.00000E+0	2.00000E+1	1.40000E+1	1.99993E+1	1.40006E+1
167	02/09/2022	16:37:37.190	0.00000E+0	0.00000E+0	8.00000E+1	0.00000E+0	0.00000E+0	0.00000E+0	2.00000E+1	1.40000E+1	2.00003E+1	1.39993E+1
168	02/09/2022	16:37:38.591	0.00000E+0	0.00000E+0	8.00000E+1	0.00000E+0	0.00000E+0	0.00000E+0	2.00000E+1	1.40000E+1	1.99998E+1	1.40016E+1
169	02/09/2022	16:37:40.012	0.00000E+0	0.00000E+0	8.00000E+1	0.00000E+0	0.00000E+0	0.00000E+0	2.00000E+1	1.40000E+1	2.00014E+1	1.39993E+1
170	02/09/2022	16:37:41.513	0.00000E+0	0.00000E+0	8.00000E+1	0.00000E+0	0.00000E+0	0.00000E+0	2.00000E+1	1.40000E+1	1.99993E+1	1.40023E+1
171	02/09/2022	16:37:42.925	0.00000E+0	0.00000E+0	8.00000E+1	0.00000E+0	0.00000E+0	0.00000E+0	2.00000E+1	1.40000E+1	2.00008E+1	1.40002E+1
172	02/09/2022	16:37:44.422	0.00000E+0	0.00000E+0	8.00000E+1	0.00000E+0	0.00000E+0	0.00000E+0	2.00000E+1	1.40000E+1	2.00031E+1	1.39994E+1
173	02/09/2022	16:37:45.816	0.00000E+0	0.00000E+0	8.00000E+1	0.00000E+0	0.00000E+0	0.00000E+0	2.00000E+1	1.40000E+1	1.99990E+1	1.40010E+1
174	02/09/2022	16:37:47.277	0.00000E+0	0.00000E+0	8.00000E+1	0.00000E+0	0.00000E+0	0.00000E+0	2.00000E+1	1.40000E+1	2.00001E+1	1.40017E+1
175	02/09/2022	16:37:48.807	0.00000E+0	0.00000E+0	8.00000E+1	0.00000E+0	0.00000E+0	0.00000E+0	2.00000E+1	1.40000E+1	1.99993E+1	1.39979E+1
176	02/09/2022	16:37:50.201	0.00000E+0	0.00000E+0	8.00000E+1	0.00000E+0	0.00000E+0	0.00000E+0	2.00000E+1	1.40000E+1	1.99986E+1	1.39974E+1
177	02/09/2022	16:37:51.658	0.00000E+0	0.00000E+0	8.00000E+1	0.00000E+0	0.00000E+0	0.00000E+0	2.00000E+1	1.40000E+1	2.00000E+1	1.40003E+1
178	02/09/2022	16:37:53.081	0.00000E+0	0.00000E+0	8.00000E+1	0.00000E+0	0.00000E+0	0.00000E+0	2.00000E+1	1.40000E+1	2.00020E+1	1.40013E+1
179	02/09/2022	16:37:54.482	0.00000E+0	0.00000E+0	8.00000E+1	0.00000E+0	0.00000E+0	0.00000E+0	2.00000E+1	1.40000E+1	1.99992E+1	1.39984E+1
180	02/09/2022	16:37:56.004	0.00000E+0	0.00000E+0	8.00000E+1	0.00000E+0	0.00000E+0	0.00000E+0	2.00000E+1	1.40000E+1	2.00004E+1	1.39977E+1
181	02/09/2022	16:37:57.381	0.00000E+0	0.00000E+0	8.00000E+1	0.00000E+0	0.00000E+0	0.00000E+0	2.00000E+1	1.40000E+1	1.99982E+1	1.40002E+1
182	02/09/2022	16:37:58.800	0.00000E+0	0.00000E+0	8.00000E+1	0.00000E+0	0.00000E+0	0.00000E+0	2.00000E+1	1.40000E+1	1.99991E+1	1.39998E+1
183	02/09/2022	16:38:00.309	0.00000E+0	0.00000E+0	8.00000E+1	0.00000E+0	0.00000E+0	0.00000E+0	2.00000E+1	1.40000E+1	2.00017E+1	1.40019E+1
184	02/09/2022	16:38:01.736	0.00000E+0	0.00000E+0	8.00000E+1	0.00000E+0	0.00000E+0	0.00000E+0	2.00000E+1	1.40000E+1	2.00019E+1	1.40009E+1
185	02/09/2022	16:38:03.276	0.00000E+0	0.00000E+0	8.00000E+1	0.00000E+0	0.00000E+0	0.00000E+0	2.00000E+1	1.40000E+1	1.99991E+1	1.40005E+1
186	02/09/2022	16:38:04.642	0.00000E+0	0.00000E+0	8.00000E+1	0.00000E+0	0.00000E+0	0.00000E+0	2.00000E+1	1.40000E+1	1.99995E+1	1.40010E+1
187	02/09/2022	16:38:06.012	0.00000E+0	0.00000E+0	8.00000E+1	0.00000E+0	0.00000E+0	0.00000E+0	2.00000E+1	1.40000E+1	2.00003E+1	1.39980E+1
188	02/09/2022	16:38:07.602	0.00000E+0	0.00000E+0	8.00000E+1	0.00000E+0	0.00000E+0	0.00000E+0	2.00000E+1	1.40000E+1	2.00001E+1	1.40004E+1
189	02/09/2022	16:38:08.990	0.00000E+0	0.00000E+0	8.00000E+1	0.00000E+0	0.00000E+0	0.00000E+0	2.00000E+1	1.40000E+1	1.99999E+1	1.39992E+1
190	02/09/2022	16:38:10.467	0.00000E+0	0.00000E+0	8.00000E+1	0.00000E+0	0.00000E+0	0.00000E+0	2.00000E+1	1.40000E+1	2.00022E+1	1.40025E+1
191	02/09/2022	16:38:11.867	0.00000E+0	0.00000E+0	8.00000E+1	0.00000E+0	0.00000E+0	0.00000E+0	2.00000E+1	1.40000E+1	2.00003E+1	1.39989E+1
192	02/09/2022	16:38:13.255	0.00000E+0	0.00000E+0	8.00000E+1	0.00000E+0	0.00000E+0	0.00000E+0	2.00000E+1	1.40000E+1	2.00013E+1	1.39993E+1
193	02/09/2022	16:38:14.854	0.00000E+0	0.00000E+0	8.00000E+1	0.00000E+0	0.00000E+0	0.00000E+0	2.00000E+1	1.40000E+1	1.99984E+1	1.40007E+1
194	02/09/2022	16:38:16.259	0.00000E+0	0.00000E+0	8.00000E+1	0.00000E+0	0.00000E+0	0.00000E+0	2.00000E+1	1.40000E+1	1.99997E+1	1.40005E+1
195	02/09/2022	16:38:17.693	0.00000E+0	0.00000E+0	8.00000E+1	0.00000E+0	0.00000E+0	0.00000E+0	2.00000E+1	1.40000E+1	2.00010E+1	1.40008E+1
196	02/09/2022	16:38:19.192	0.00000E+0	0.00000E+0	8.00000E+1	0.00000E+0	0.00000E+0	0.00000E+0	2.00000E+1	1.40000E+1	1.99983E+1	1.39977E+1
197	02/09/2022	16:38:20.583	0.00000E+0	0.00000E+0	8.00000E+1	0.00000E+0	0.00000E+0	0.00000E+0	2.00000E+1	1.40000E+1	1.99983E+1	1.39982E+1
198	02/09/2022	16:38:22.077	0.00000E+0	0.00000E+0	8.00000E+1	0.00000E+0	0.00000E+0	0.00000E+0	2.00000E+1	1.40000E+1	2.00017E+1	1.39986E+1
199	02/09/2022	16:38:23.474	0.00000E+0	0.00000E+0	8.00000E+1	0.00000E+0	0.00000E+0	0.00000E+0	2.00000E+1	1.40000E+1	2.00019E+1	1.40039E+1
200	02/09/2022	16:38:24.860	0.00000E+0	0.00000E+0	8.00000E+1	0.00000E+0	0.00000E+0	0.00000E+0	2.00000E+1	1.40000E+1	2.00001E+1	1.39998E+1
201	02/09/2022	16:38:26.415	0.00000E+0	0.00000E+0	8.00000E+1	0.00000E+0	0.00000E+0	0.00000E+0	2.00000E+1	1.40000E+1	2.00011E+1	1.40005E+1
202	02/09/2022	16:38:27.807	0.00000E+0	0.00000E+0	8.00000E+1	0.00000E+0	0.00000E+0	0.00000E+0	2.00000E+1	1.40000E+1	1.99971E+1	1.40008E+1
203	02/09/2022	16:38:29.251	0.00000E+0	0.00000E+0	8.00000E+1	0.00000E+0	0.00000E+0	0.00000E+0	2.00000E+1	1.40000E+1	2.00000E+1	1.39991E+1
204	02/09/2022	16:38:30.751	0.00000E+0	0.00000E+0	8.00000E+1	0.00000E+0	0.00000E+0	0.00000E+0	2.00000E+1	1.40000E+1	2.00010E+1	1.40006E+1
205	02/09/2022	16:38:32.132	0.00000E+0	0.00000E+0	8.00000E+1	0.00000E+0	0.00000E+0	0.00000E+0	2.00000E+1	1.40000E+1	1.99999E+1	1.39981E+1
206	02/09/2022	16:38:33.701	0.00000E+0	0.00000E+0	8.00000E+1	0.00000E+0	0.00000E+0	0.00000E+0	2.00000E+1	1.40000E+1	1.99989E+1	1.39979E+1
207	02/09/2022	16:38:35.086	0.00000E+0	0.00000E+0	8.00000E+1	0.00000E+0	0.00000E+0	0.00000E+0	2.00000E+1	1.40000E+1	1.99985E+1	1.39988E+1
208	02/09/2022	16:38:36.445	0.00000E+0	0.00000E+0	8.00000E+1	0.00000E+0	0.00000E+0	0.00000E+0	2.00000E+1	1.40000E+1	2.00008E+1	1.39988E+1
209	02/09/2022	16:38:37.942	0.00000E+0	0.00000E+0	8.00000E+1	0.00000E+0	0.00000E+0	0.00000E+0	2.00000E+1	1.40000E+1	2.00000E+1	1.39986E+1
210	02/09/2022	16:38:39.340	0.00000E+0	0.00000E+0	8.00000E+1	0.00000E+0	0.00000E+0	0.00000E+0	2.00000E+1	1.40000E+1	2.00004E+1	1.40003E+1
211	02/09/2022	16:38:40.768	0.00000E+0	0.00000E+0	8.00000E+1	0.00000E+0	0.00000E+0	0.00000E+0	2.00000E+1	1.40000E+1	1.99989E+1	1.40012E+1
212	02/09/2022	16:38:42.230	0.00000E+0	0.00000E+0	8.00000E+1	0.00000E+0	0.00000E+0	0.00000E+0	2.00000E+1	1.40000E+1	1.99999E+1	1.40027E+1
213	02/09/2022	16:38:43.605	0.00000E+0	0.00000E+0	8.00000E+1	0.00000E+0	0.00000E+0	0.00000E+0	2.00000E+1	1.40000E+1	2.00011E+1	1.39988E+1
214	02/09/2022	16:38:45.111	0.00000E+0	0.00000E+0	8.00000E+1	0.00000E+0	0.00000E+0	0.00000E+0	2.00000E+1	1.40000E+1	1.99994E+1	1.40016E+1
215	02/09/2022	16:38:46.495	0.00000E+0	0.00000E+0	8.00000E+1	0.00000E+0	0.00000E+0	0.00000E+0	2.00000E+1	1.40000E+1	1.99999E+1	1.39986E+1
216	02/09/2022	16:38:47.952	0.00000E+0	0.00000E+0	8.00000E+1	0.00000E+0	0.00000E+0	0.00000E+0	2.00000E+1	1.40000E+1	1.99982E+1	1.39969E+1
217	02/09/2022	16:38:49.474	0.00000E+0	0.00000E+0	8.00000E+1	0.00000E+0	0.00000E+0	0.00000E+0	2.00000E+1	1.40000E+1	2.00020E+1	1.40018E+1
218	02/09/2022	16:38:50.860	0.00000E+0	0.00000E+0	8.00000E+1	0.00000E+0	0.00000E+0	0.00000E+0	2.00000E+1	1.40000E+1	2.00033E+1	1.39993E+1
219	02/09/2022	16:38:52.328	0.00000E+0	0.00000E+0	8.00000E+1	0.00000E+0	0.00000E+0	0.00000E+0	2.00000E+1	1.40000E+1	1.99994E+1	1.40012E+1
220	02/09/2022	16:38:53.718	0.00000E+0	0.00000E+0	8.00000E+1	0.00000E+0	0.00000E+0	0.00000E+0	2.00000E+1	1.40000E+1	2.00007E+1	1.40030E+1
221	02/09/2022	16:38:55.146	0.00000E+0	0.00000E+0	8.00000E+1	0.00000E+0	0.00000E+0	0.00000E+0	2.00000E+1	1.40000E+1	1.99993E+1	1.40002E+1
222	02/09/2022	16:38:56.704	0.00000E+0	0.00000E+0	8.00000E+1	0.00000E+0	0.00000E+0	0.00000E+0	2.00000E+1	1.40000E+1	2.00010E+1	1.40010E+1
223	02/09/2022	16:38:58.115	0.00000E+0	0.00000E+0	8.00000E+1	0.00000E+0	0.00000E+0	0.00000E+0	2.00000E+1	1.40000E+1	2.00002E+1	1.40003E+1
224	02/09/2022	16:38:59.709	0.00000E+0	0.00000E+0	8.00000E+1	0.00000E+0	0.00000E+0	0.00000E+0	2.00000E+1	1.40000E+1	1.99979E+1	1.40001E+1
225	02/09/2022	16:39:01.108	0.00000E+0	0.00000E+0	8.00000E+1	0.00000E+0	0.00000E+0	0.00000E+0	2.00000E+1	1.40000E+1	2.00021E+1	1.39984E+1
226	02/09/2022	16:39:02.510	0.00000E+0	0.00000E+0	8.00000E+1	0.00000E+0	0.00000E+0	0.00000E+0	2.00000E+1	1.40000E+1	1.99987E+1	1.39998E+1
227	02/09/2022	16:39:04.040	0.00000E+0	0.00000E+0	8.00000E+1	0.00000E+0	0.00000E+0	0.00000E+0	2.00000E+1	1.40000E+1	2.00006E+1	1.40034E+1
228	02/09/2022	16:39:05.449	0.00000E+0	0.00000E+0	8.00000E+1	0.00000E+0	0.00000E+0	0.00000E+0	2.00000E+1	1.40000E+1	2.00014E+1	1.40005E+1
229	02/09/2022	16:39:06.830	0.00000E+0	0.00000E+0	8.00000E+1	0.00000E+0	0.00000E+0	0.00000E+0	2.00000E+1	1.40000E+1	1.99985E+1	1.40000E+1
230	02/09/2022	16:39:08.430	0.00000E+0	0.00000E+0	8.00000E+1	0.00000E+0	0.00000E+0	0.00000E+0	2.00000E+1	1.40000E+1	2.00031E+1	1.39995E+1
231	02/09/2022	16:39:09.825	0.00000E+0	0.00000E+0	8.00000E+1	0.00000E+0	0.00000E+0	0.00000E+0	2.00000E+1	1.40000E+1	1.99999E+1	1.39998E+1
232	02/09/2022	16:39:11.327	0.00000E+0	0.00000E+0	8.00000E+1	0.00000E+0	0.00000E+0	0.00000E+0	2.00000E+1	1.40000E+1	2.00024E+1	1.39995E+1
233	02/09/2022	16:39:12.715	0.00000E+0	0.00000E+0	8.00000E+1	0.00000E+0	0.00000E+0	0.00000E+0	2.00000E+1	1.40000E+1	2.00004E+1	1.40005E+1
234	02/09/2022	16:39:14.092	0.00000E+0	0.00000E+0	8.00000E+1	0.00000E+0	0.00000E+0	0.00000E+0	2.00000E+1	1.40000E+1	2.00019E+1	1.39989E+1
235	02/09/2022	16:39:15.657	0.00000E+0	0.00000E+0	8.00000E+1	0.00000E+0	0.00000E+0	0.00000E+0	2.00000E+1	1.40000E+1	2.00006E+1	1.40019E+1
236	02/09/2022	16:39:17.044	0.00000E+0	0.00000E+0	8.00000E+1	0.00000E+0	0.00000E+0	0.00000E+0	2.00000E+1	1.40000E+1	2.00020E+1	1.40006E+1
237	02/09/2022	16:39:18.443	0.00000E+0	0.00000E+0	8.00000E+1	0.00000E+0	0.00000E+0	0.00000E+0	2.00000E+1	1.40000E+1	2.00018E+1	1.40002E+1
238	02/09/2022	16:39:19.947	0.00000E+0	0.00000E+0	8.00000E+1	0.00000E+0	0.00000E+0	0.00000E+0	2.00000E+1	1.40000E+1	1.99998E+1	1.40021E+1
239	02/09/2022	16:39:21.351	0.00000E+0	0.00000E+0	8.00000E+1	0.00000E+0	0.00000E+0	0.00000E+0	2.00000E+1	1.40000E+1	1.99998E+1	1.39990E+1
240	02/09/2022	16:39:22.872	0.00000E+0	0.00000E+0	8.00000E+1	0.00000E+0	0.00000E+0	0.00000E+0	2.00000E+1	1.40000E+1	2.00002E+1	1.39987E+1
241	02/09/2022	16:39:24.252	0.00000E+0	0.00000E+0	8.00000E+1	0.00000E+0	0.00000E+0	0.00000E+0	2.00000E+1	1.40000E+1	2.00020E+1	1.39999E+1
242	02/09/2022	16:39:25.635	0.00000E+0	0.00000E+0	8.00000E+1	0.00000E+0	0.00000E+0	0.00000E+0	2.00000E+1	1.40000E+1	2.00015E+1	1.40017E+1
243	02/09/2022	16:39:27.142	0.00000E+0	0.00000E+0	8.00000E+1	0.00000E+0	0.00000E+0	0.00000E+0	2.00000E+1	1.40000E+1	1.99981E+1	1.40012E+1
244	02/09/2022	16:39:28.575	0.00000E+0	0.00000E+0	8.00000E+1	0.00000E+0	0.00000E+0	0.00000E+0	2.00000E+1	1.40000E+1	1.99996E+1	1.40012E+1
245	02/09/2022	16:39:30.017	0.00000E+0	0.00000E+0	8.00000E+1	0.00000E+0	0.00000E+0	0.00000E+0	2.00000E+1	1.40000E+1	1.99995E+1	1.39973E+1
246	02/09/2022	16:39:31.407	0.00000E+0	0.00000E+0	8.00000E+1	0.00000E+0	0.00000E+0	0.00000E+0	2.00000E+1	1.40000E+1	1.99991E+1	1.40002E+1
247	02/09/2022	16:39:32.800	0.00000E+0	0.00000E+0	8.00000E+1	0.00000E+0	0.00000E+0	0.00000E+0	2.00000E+1	1.40000E+1	2.00017E+1	1.40033E+1
248	02/09/2022	16:39:34.358	0.00000E+0	0.00000E+0	8.00000E+1	0.00000E+0	0.00000E+0	0.00000E+0	2.00000E+1	1.40000E+1	2.00009E+1	1.40015E+1
249	02/09/2022	16:39:35.757	0.00000E+0	0.00000E+0	8.00000E+1	0.00000E+0	0.00000E+0	0.00000E+0	2.00000E+1	1.40000E+1	2.00003E+1	1.40008E+1
250	02/09/2022	16:39:37.228	0.00000E+0	0.00000E+0	8.00000E+1	0.00000E+0	0.00000E+0	0.00000E+0	2.00000E+1	1.40000E+1	1.99986E+1	1.40005E+1
251	02/09/2022	16:39:38.732	0.00000E+0	0.00000E+0	8.00000E+1	0.00000E+0	0.00000E+0	0.00000E+0	2.00000E+1	1.40000E+1	2.00007E+1	1.39973E+1
252	02/09/2022	16:39:40.126	0.00000E+0	0.00000E+0	8.00000E+1	0.00000E+0	0.00000E+0	0.00000E+0	2.00000E+1	1.40000E+1	1.99999E+1	1.40023E+1
253	02/09/2022	16:39:41.663	0.00000E+0	0.00000E+0	8.00000E+1	0.00000E+0	0.00000E+0	0.00000E+0	2.00000E+1	1.40000E+1	1.99985E+1	1.40000E+1
254	02/09/2022	16:39:43.053	0.00000E+0	0.00000E+0	8.00000E+1	0.00000E+0	0.00000E+0	0.00000E+0	2.00000E+1	1.40000E+1	1.99982E+1	1.40004E+1
255	02/09/2022	16:39:44.440	0.00000E+0	0.00000E+0	8.00000E+1	0.00000E+0	0.00000E+0	0.00000E+0	2.00000E+1	1.40000E+1	1.99983E+1	1.39987E+1
256	02/09/2022	16:39:45.992	0.00000E+0	0.00000E+0	8.00000E+1	0.00000E+0	0.00000E+0	0.00000E+0	2.00000E+1	1.40000E+1	2.00005E+1	1.40017E+1
257	02/09/2022	16:39:47.386	0.00000E+0	0.00000E+0	8.00000E+1	0.00000E+0	0.00000E+0	0.00000E+0	2.00000E+1	1.40000E+1	1.99978E+1	1.39985E+1
258	02/09/2022	16:39:48.790	0.00000E+0	0.00000E+0	8.00000E+1	0.00000E+0	0.00000E+0	0.00000E+0	2.00000E+1	1.40000E+1	1.99996E+1	1.40012E+1
259	02/09/2022	16:39:50.304	0.00000E+0	0.00000E+0	8.00000E+1	0.00000E+0	0.00000E+0	0.00000E+0	2.00000E+1	1.40000E+1	2.00001E+1	1.40006E+1
260	02/09/2022	16:39:51.685	0.00000E+0	0.00000E+0	8.00000E+1	0.00000E+0	0.00000E+0	0.00000E+0	2.00000E+1	1.40000E+1	1.99977E+1	1.39985E+1
261	02/09/2022	16:39:53.209	0.00000E+0	0.00000E+0	8.00000E+1	0.00000E+0	0.00000E+0	0.00000E+0	2.00000E+1	1.40000E+1	2.00018E+1	1.40000E+1
262	02/09/2022	16:39:54.586	0.00000E+0	0.00000E+0	8.00000E+1	0.00000E+0	0.00000E+0	0.00000E+0	2.00000E+1	1.40000E+1	2.00019E+1	1.40015E+1
263	02/09/2022	16:39:55.953	0.00000E+0	0.00000E+0	8.00000E+1	0.00000E+0	0.00000E+0	0.00000E+0	2.00000E+1	1.40000E+1	2.00017E+1	1.39986E+1
264	02/09/2022	16:39:57.475	0.00000E+0	0.00000E+0	8.00000E+1	0.00000E+0	0.00000E+0	0.00000E+0	2.00000E+1	1.40000E+1	2.00011E+1	1.40004E+1
265	02/09/2022	16:39:58.869	0.00000E+0	0.00000E+0	8.00000E+1	0.00000E+0	0.00000E+0	0.00000E+0	2.00000E+1	1.40000E+1	1.99975E+1	1.40006E+1
266	02/09/2022	16:40:00.363	0.00000E+0	0.00000E+0	8.00000E+1	0.00000E+0	0.00000E+0	0.00000E+0	2.00000E+1	1.40000E+1	1.99997E+1	1.40012E+1
267	02/09/2022	16:40:01.808	0.00000E+0	0.00000E+0	8.00000E+1	0.00000E+0	0.00000E+0	0.00000E+0	2.00000E+1	1.40000E+1	1.99978E+1	1.40010E+1
268	02/09/2022	16:40:03.216	0.00000E+0	0.00000E+0	8.00000E+1	0.00000E+0	0.00000E+0	0.00000E+0	2.00000E+1	1.40000E+1	2.00023E+1	1.40005E+1
269	02/09/2022	16:40:04.755	0.00000E+0	0.00000E+0	8.00000E+1	0.00000E+0	0.00000E+0	0.00000E+0	2.00000E+1	1.40000E+1	1.99999E+1	1.40011E+1
270	02/09/2022	16:40:06.147	0.00000E+0	0.00000E+0	8.00000E+1	0.00000E+0	0.00000E+0	0.00000E+0	2.00000E+1	1.40000E+1	1.99996E+1	1.39984E+1
271	02/09/2022	16:40:07.531	0.00000E+0	0.00000E+0	8.00000E+1	0.00000E+0	0.00000E+0	0.00000E+0	2.00000E+1	1.40000E+1	1.99979E+1	1.39964E+1
272	02/09/2022	16:40:09.041	0.00000E+0	0.00000E+0	8.00000E+1	0.00000E+0	0.00000E+0	0.00000E+0	2.00000E+1	1.40000E+1	2.00014E+1	1.40010E+1
273	02/09/2022	16:40:10.413	0.00000E+0	0.00000E+0	8.00000E+1	0.00000E+0	0.00000E+0	0.00000E+0	2.00000E+1	1.40000E+1	1.99968E+1	1.39993E+1
274	02/09/2022	16:40:11.889	0.00000E+0	0.00000E+0	8.00000E+1	0.00000E+0	0.00000E+0	0.00000E+0	2.00000E+1	1.40000E+1	1.99997E+1	1.40021E+1
275	02/09/2022	16:40:13.264	0.00000E+0	0.00000E+0	8.00000E+1	0.00000E+0	0.00000E+0	0.00000E+0	2.00000E+1	1.40000E+1	1.99992E+1	1.40020E+1
276	02/09/2022	16:40:14.697	0.00000E+0	0.00000E+0	8.00000E+1	0.00000E+0	0.00000E+0	0.00000E+0	2.00000E+1	1.40000E+1	1.99976E+1	1.40011E+1
277	02/09/2022	16:40:16.260	0.00000E+0	0.00000E+0	8.00000E+1	0.00000E+0	0.00000E+0	0.00000E+0	2.00000E+1	1.40000E+1	1.99988E+1	1.39996E+1
278	02/09/2022	16:40:17.660	0.00000E+0	0.00000E+0	8.00000E+1	0.00000E+0	0.00000E+0	0.00000E+0	2.00000E+1	1.40000E+1	1.99985E+1	1.39999E+1
279	02/09/2022	16:40:19.054	0.00000E+0	0.00000E+0	8.00000E+1	0.00000E+0	0.00000E+0	0.00000E+0	2.00000E+1	1.40000E+1	1.99986E+1	1.39990E+1
280	02/09/2022	16:40:20.443	0.00000E+0	0.00000E+0	8.00000E+1	0.00000E+0	0.00000E+0	0.00000E+0	2.00000E+1	1.40000E+1	2.00002E+1	1.39979E+1
281	02/09/2022	16:40:21.834	0.00000E+0	0.00000E+0	8.00000E+1	0.00000E+0	0.00000E+0	0.00000E+0	2.00000E+1	1.40000E+1	2.00013E+1	1.39991E+1
282	02/09/2022	16:40:23.371	0.00000E+0	0.00000E+0	8.00000E+1	0.00000E+0	0.00000E+0	0.00000E+0	2.00000E+1	1.40000E+1	1.99977E+1	1.40003E+1
283	02/09/2022	16:40:24.751	0.00000E+0	0.00000E+0	8.00000E+1	0.00000E+0	0.00000E+0	0.00000E+0	2.00000E+1	1.40000E+1	1.99999E+1	1.39991E+1
284	02/09/2022	16:40:26.185	0.00000E+0	0.00000E+0	8.00000E+1	0.00000E+0	0.00000E+0	0.00000E+0	2.00000E+1	1.40000E+1	1.99993E+1	1.40009E+1
285	02/09/2022	16:40:27.682	0.00000E+0	0.00000E+0	8.00000E+1	0.00000E+0	0.00000E+0	0.00000E+0	2.00000E+1	1.40000E+1	1.99998E+1	1.40010E+1
286	02/09/2022	16:40:29.078	0.00000E+0	0.00000E+0	8.00000E+1	0.00000E+0	0.00000E+0	0.00000E+0	2.00000E+1	1.40000E+1	1.99998E+1	1.39984E+1
287	02/09/2022	16:40:30.571	0.00000E+0	0.00000E+0	8.00000E+1	0.00000E+0	0.00000E+0	0.00000E+0	2.00000E+1	1.40000E+1	1.99996E+1	1.40006E+1
288	02/09/2022	16:40:31.945	0.00000E+0	0.00000E+0	8.00000E+1	0.00000E+0	0.00000E+0	0.00000E+0	2.00000E+1	1.40000E+1	2.00002E+1	1.39987E+1
289	02/09/2022	16:40:33.344	0.00000E+0	0.00000E+0	8.00000E+1	0.00000E+0	0.00000E+0	0.00000E+0	2.00000E+1	1.40000E+1	2.00014E+1	1.40003E+1
290	02/09/2022	16:40:34.892	0.00000E+0	0.00000E+0	8.00000E+1	0.00000E+0	0.00000E+0	0.00000E+0	2.00000E+1	1.40000E+1	1.99986E+1	1.40013E+1
291	02/09/2022	16:40:36.269	0.00000E+0	0.00000E+0	8.00000E+1	0.00000E+0	0.00000E+0	0.00000E+0	2.00000E+1	1.40000E+1	2.00002E+1	1.39980E+1
292	02/09/2022	16:40:37.707	0.00000E+0	0.00000E+0	8.00000E+1	0.00000E+0	0.00000E+0	0.00000E+0	2.00000E+1	1.40000E+1	1.99983E+1	1.40010E+1
293	02/09/2022	16:40:39.219	0.00000E+0	0.00000E+0	8.00000E+1	0.00000E+0	0.00000E+0	0.00000E+0	2.00000E+1	1.40000E+1	2.00027E+1	1.40000E+1
294	02/09/2022	16:40:40.588	0.00000E+0	0.00000E+0	8.00000E+1	0.00000E+0	0.00000E+0	0.00000E+0	2.00000E+1	1.40000E+1	1.99965E+1	1.40008E+1
295	02/09/2022	16:40:42.050	0.00000E+0	0.00000E+0	8.00000E+1	0.00000E+0	0.00000E+0	0.00000E+0	2.00000E+1	1.40000E+1	1.99997E+1	1.40020E+1
296	02/09/2022	16:40:43.454	0.00000E+0	0.00000E+0	8.00000E+1	0.00000E+0	0.00000E+0	0.00000E+0	2.00000E+1	1.40000E+1	2.00015E+1	1.40009E+1
297	02/09/2022	16:40:44.813	0.00000E+0	0.00000E+0	8.00000E+1	0.00000E+0	0.00000E+0	0.00000E+0	2.00000E+1	1.40000E+1	2.00007E+1	1.39999E+1
298	02/09/2022	16:40:46.315	0.00000E+0	0.00000E+0	8.00000E+1	0.00000E+0	0.00000E+0	0.00000E+0	2.00000E+1	1.40000E+1	2.00012E+1	1.39982E+1
299	02/09/2022	16:40:47.700	0.00000E+0	0.00000E+0	8.00000E+1	0.00000E+0	0.00000E+0	0.00000E+0	2.00000E+1	1.40000E+1	1.99991E+1	1.39994E+1
300	02/09/2022	16:40:49.116	0.00000E+0	0.00000E+0	8.00000E+1	0.00000E+0	0.00000E+0	0.00000E+0	2.00000E+1	1.40000E+1	2.00007E+1	1.39997E+1
301	02/09/2022	16:40:50.509	0.00000E+0	0.00000E+0	8.00000E+1	0.00000E+0	0.00000E+0	0.00000E+0	2.00000E+1	1.40000E+1	2.00009E+1	1.39995E+1
