#Iteration	Date	Time	Chirp	Phase	RamanAxis	RTPhase	NFringe	Ratio
1	02/09/2022	16:33:38.263	0.00000000E+0	-3.14159265E+1	5.00000000E+0	1.60914585E+0	-6.30000000E+2	3.95767670E-1
2	02/09/2022	16:33:39.772	0.00000000E+0	-3.12065382E+1	5.00000000E+0	2.95291302E+0	-6.30000000E+2	4.05755807E-1
3	02/09/2022	16:33:41.170	0.00000000E+0	-3.09971498E+1	5.00000000E+0	4.15900541E+0	-6.31000000E+2	4.27592073E-1
4	02/09/2022	16:33:42.652	0.00000000E+0	-3.07877614E+1	5.00000000E+0	4.91525794E+0	-6.30000000E+2	4.36810887E-1
5	02/09/2022	16:33:44.169	0.00000000E+0	-3.05779895E+1	5.00000000E+0	3.87215100E+0	-6.30000000E+2	4.56981424E-1
6	02/09/2022	16:33:45.556	0.00000000E+0	-3.03686012E+1	5.00000000E+0	5.12924826E+0	-6.31000000E+2	4.72885097E-1
7	02/09/2022	16:33:47.076	0.00000000E+0	-3.01592128E+1	5.00000000E+0	5.34899101E+0	-6.30000000E+2	4.92662060E-1
8	02/09/2022	16:33:48.447	0.00000000E+0	-2.99498244E+1	5.00000000E+0	6.16123383E+0	-6.30000000E+2	5.07830966E-1
9	02/09/2022	16:33:49.927	0.00000000E+0	-2.97404360E+1	5.00000000E+0	4.97086474E+0	-6.31000000E+2	5.19734319E-1
10	02/09/2022	16:33:51.431	0.00000000E+0	-2.95310476E+1	5.00000000E+0	5.48781627E+0	-6.31000000E+2	5.29874938E-1
11	02/09/2022	16:33:52.834	0.00000000E+0	-2.93216593E+1	5.00000000E+0	4.68784529E+0	-6.30000000E+2	5.28495143E-1
12	02/09/2022	16:33:54.232	0.00000000E+0	-2.91122709E+1	5.00000000E+0	3.10937906E+0	-6.30000000E+2	5.33844003E-1
13	02/09/2022	16:33:55.664	0.00000000E+0	-2.89024990E+1	5.00000000E+0	3.80235488E+0	-6.30000000E+2	5.27188791E-1
14	02/09/2022	16:33:57.070	0.00000000E+0	-2.86931106E+1	5.00000000E+0	6.21875811E+0	-6.30000000E+2	5.25010276E-1
15	02/09/2022	16:33:58.574	0.00000000E+0	-2.84837223E+1	5.00000000E+0	4.96166086E+0	-6.30000000E+2	5.10464273E-1
16	02/09/2022	16:33:59.964	0.00000000E+0	-2.82743339E+1	5.00000000E+0	4.99732591E+0	-6.31000000E+2	5.03472885E-1
17	02/09/2022	16:34:01.401	0.00000000E+0	-2.80649455E+1	5.00000000E+0	4.73079675E+0	-6.30000000E+2	4.86333721E-1
18	02/09/2022	16:34:02.912	0.00000000E+0	-2.78555571E+1	5.00000000E+0	5.90812700E+0	-6.30000000E+2	4.76792943E-1
19	02/09/2022	16:34:04.312	0.00000000E+0	-2.76461687E+1	5.00000000E+0	1.07378655E+0	-6.30000000E+2	4.47917011E-1
20	02/09/2022	16:34:05.769	0.00000000E+0	-2.74363969E+1	5.00000000E+0	5.57410269E+0	-6.31000000E+2	4.34452095E-1
21	02/09/2022	16:34:07.153	0.00000000E+0	-2.72270085E+1	5.00000000E+0	5.98904449E+0	-6.30000000E+2	4.15014897E-1
22	02/09/2022	16:34:08.553	0.00000000E+0	-2.70176201E+1	5.00000000E+0	5.35435994E+0	-6.31000000E+2	4.04592731E-1
23	02/09/2022	16:34:10.105	0.00000000E+0	-2.68082317E+1	5.00000000E+0	7.62771947E-1	-6.30000000E+2	3.83563068E-1
24	02/09/2022	16:34:11.498	0.00000000E+0	-2.65988434E+1	5.00000000E+0	3.13852469E+0	-6.30000000E+2	3.74571263E-1
25	02/09/2022	16:34:12.940	0.00000000E+0	-2.63894550E+1	5.00000000E+0	3.34062666E+0	-6.30000000E+2	3.60812678E-1
26	02/09/2022	16:34:14.329	0.00000000E+0	-2.61800666E+1	5.00000000E+0	1.45613126E+0	-6.30000000E+2	3.65924994E-1
27	02/09/2022	16:34:15.720	0.00000000E+0	-2.59706782E+1	5.00000000E+0	1.21031084E+0	-6.30000000E+2	3.63680511E-1
28	02/09/2022	16:34:17.169	0.00000000E+0	-2.57609064E+1	5.00000000E+0	5.57525317E+0	-6.31000000E+2	3.66681695E-1
29	02/09/2022	16:34:18.570	0.00000000E+0	-2.55515180E+1	5.00000000E+0	2.65071880E+0	-6.30000000E+2	3.67920734E-1
30	02/09/2022	16:34:19.973	0.00000000E+0	-2.53421296E+1	5.00000000E+0	5.97715614E+0	-6.30000000E+2	3.81423490E-1
31	02/09/2022	16:34:21.489	0.00000000E+0	-2.51327412E+1	5.00000000E+0	3.27466549E+0	-6.30000000E+2	3.94042183E-1
32	02/09/2022	16:34:22.861	0.00000000E+0	-2.49233529E+1	5.00000000E+0	1.40742737E+0	-6.30000000E+2	4.08246614E-1
33	02/09/2022	16:34:24.407	0.00000000E+0	-2.47139645E+1	5.00000000E+0	4.23723843E+0	-6.30000000E+2	4.10822141E-1
34	02/09/2022	16:34:25.775	0.00000000E+0	-2.45045761E+1	5.00000000E+0	5.66920950E+0	-6.30000000E+2	4.33181892E-1
35	02/09/2022	16:34:27.154	0.00000000E+0	-2.42948042E+1	5.00000000E+0	4.69091325E+0	-6.31000000E+2	4.59784907E-1
36	02/09/2022	16:34:28.652	0.00000000E+0	-2.40854158E+1	5.00000000E+0	3.23708296E+0	-6.30000000E+2	4.73956306E-1
37	02/09/2022	16:34:30.057	0.00000000E+0	-2.38760275E+1	5.00000000E+0	6.16008335E+0	-6.30000000E+2	4.86481037E-1
38	02/09/2022	16:34:31.456	0.00000000E+0	-2.36666391E+1	5.00000000E+0	5.63737940E+0	-6.31000000E+2	5.03249542E-1
39	02/09/2022	16:34:32.945	0.00000000E+0	-2.34572507E+1	5.00000000E+0	1.71460703E+0	-6.30000000E+2	5.15628970E-1
40	02/09/2022	16:34:34.325	0.00000000E+0	-2.32478623E+1	5.00000000E+0	4.04088889E+0	-6.31000000E+2	5.23961817E-1
41	02/09/2022	16:34:35.852	0.00000000E+0	-2.30384740E+1	5.00000000E+0	4.64067538E+0	-6.30000000E+2	5.25345343E-1
42	02/09/2022	16:34:37.249	0.00000000E+0	-2.28290856E+1	5.00000000E+0	1.48412641E-1	-6.30000000E+2	5.26267967E-1
43	02/09/2022	16:34:38.615	0.00000000E+0	-2.26193137E+1	5.00000000E+0	3.78049565E+0	-6.31000000E+2	5.26872791E-1
44	02/09/2022	16:34:40.114	0.00000000E+0	-2.24099253E+1	5.00000000E+0	5.43719490E+0	-6.31000000E+2	5.26598030E-1
45	02/09/2022	16:34:41.506	0.00000000E+0	-2.22005370E+1	5.00000000E+0	5.55339395E+0	-6.30000000E+2	5.14064451E-1
46	02/09/2022	16:34:42.987	0.00000000E+0	-2.19911486E+1	5.00000000E+0	5.14535506E+0	-6.31000000E+2	4.87124201E-1
47	02/09/2022	16:34:44.451	0.00000000E+0	-2.17817602E+1	5.00000000E+0	4.70970451E+0	-6.31000000E+2	4.81600926E-1
48	02/09/2022	16:34:45.840	0.00000000E+0	-2.15723718E+1	5.00000000E+0	5.80458330E+0	-6.30000000E+2	4.74745890E-1
49	02/09/2022	16:34:47.393	0.00000000E+0	-2.13629834E+1	5.00000000E+0	4.49072876E+0	-6.30000000E+2	4.57318270E-1
50	02/09/2022	16:34:48.772	0.00000000E+0	-2.11532116E+1	5.00000000E+0	3.90858305E+0	-6.30000000E+2	4.32499669E-1
51	02/09/2022	16:34:50.179	0.00000000E+0	-2.09438232E+1	5.00000000E+0	4.79368996E-1	-6.29000000E+2	4.13062864E-1
52	02/09/2022	16:34:51.682	0.00000000E+0	-2.07344348E+1	5.00000000E+0	1.06995160E-1	-6.29000000E+2	3.99659526E-1
53	02/09/2022	16:34:53.058	0.00000000E+0	-2.05250464E+1	5.00000000E+0	5.16299584E+0	-6.30000000E+2	3.80695377E-1
54	02/09/2022	16:34:54.535	0.00000000E+0	-2.03156581E+1	5.00000000E+0	3.15118003E+0	-6.31000000E+2	3.78177160E-1
55	02/09/2022	16:34:55.913	0.00000000E+0	-2.01062697E+1	5.00000000E+0	1.64519440E+0	-6.30000000E+2	3.65762913E-1
56	02/09/2022	16:34:57.306	0.00000000E+0	-1.98968813E+1	5.00000000E+0	3.21714121E+0	-6.30000000E+2	3.65199079E-1
57	02/09/2022	16:34:58.761	0.00000000E+0	-1.96874929E+1	5.00000000E+0	4.53713168E+0	-6.30000000E+2	3.61776723E-1
58	02/09/2022	16:35:00.167	0.00000000E+0	-1.94777211E+1	5.00000000E+0	5.06367058E+0	-6.30000000E+2	3.68900128E-1
59	02/09/2022	16:35:01.547	0.00000000E+0	-1.92683327E+1	5.00000000E+0	3.71798593E+0	-6.30000000E+2	3.72579842E-1
60	02/09/2022	16:35:03.039	0.00000000E+0	-1.90589443E+1	5.00000000E+0	2.11689349E-1	-6.29000000E+2	3.79157103E-1
61	02/09/2022	16:35:04.451	0.00000000E+0	-1.88495559E+1	5.00000000E+0	3.62748107E+0	-6.30000000E+2	3.91870123E-1
62	02/09/2022	16:35:05.961	0.00000000E+0	-1.86401675E+1	5.00000000E+0	4.59465595E+0	-6.30000000E+2	4.11522414E-1
63	02/09/2022	16:35:07.370	0.00000000E+0	-1.84307792E+1	5.00000000E+0	3.20755383E+0	-6.30000000E+2	4.30583781E-1
64	02/09/2022	16:35:08.824	0.00000000E+0	-1.82213908E+1	5.00000000E+0	4.21461221E-1	-6.30000000E+2	4.34528751E-1
65	02/09/2022	16:35:10.349	0.00000000E+0	-1.80116189E+1	5.00000000E+0	5.27305896E+0	-6.30000000E+2	4.53700900E-1
66	02/09/2022	16:35:11.754	0.00000000E+0	-1.78022305E+1	5.00000000E+0	5.25656866E+0	-6.30000000E+2	4.79104101E-1
67	02/09/2022	16:35:13.283	0.00000000E+0	-1.75928422E+1	5.00000000E+0	4.19236949E+0	-6.31000000E+2	4.96731571E-1
68	02/09/2022	16:35:14.671	0.00000000E+0	-1.73834538E+1	5.00000000E+0	3.75863643E+0	-6.30000000E+2	4.99410433E-1
69	02/09/2022	16:35:16.070	0.00000000E+0	-1.71740654E+1	5.00000000E+0	4.42361710E+0	-6.31000000E+2	5.24283959E-1
70	02/09/2022	16:35:17.542	0.00000000E+0	-1.69646770E+1	5.00000000E+0	3.99908791E+0	-6.30000000E+2	5.25810608E-1
71	02/09/2022	16:35:18.932	0.00000000E+0	-1.67552887E+1	5.00000000E+0	1.31001959E+0	-6.30000000E+2	5.37648720E-1
72	02/09/2022	16:35:20.391	0.00000000E+0	-1.65459003E+1	5.00000000E+0	1.53628176E+0	-6.30000000E+2	5.33920870E-1
73	02/09/2022	16:35:21.887	0.00000000E+0	-1.63361284E+1	5.00000000E+0	4.67288898E+0	-6.30000000E+2	5.36857259E-1
74	02/09/2022	16:35:23.284	0.00000000E+0	-1.61267400E+1	5.00000000E+0	5.42722403E+0	-6.31000000E+2	5.19756741E-1
75	02/09/2022	16:35:24.762	0.00000000E+0	-1.59173516E+1	5.00000000E+0	5.57218521E+0	-6.30000000E+2	5.17506855E-1
76	02/09/2022	16:35:26.144	0.00000000E+0	-1.57079633E+1	5.00000000E+0	1.36140795E+0	-6.30000000E+2	5.09929348E-1
77	02/09/2022	16:35:27.532	0.00000000E+0	-1.54985749E+1	5.00000000E+0	1.17541278E+0	-6.30000000E+2	4.91387122E-1
78	02/09/2022	16:35:29.114	0.00000000E+0	-1.52891865E+1	5.00000000E+0	5.22320458E+0	-6.31000000E+2	4.69146314E-1
79	02/09/2022	16:35:30.514	0.00000000E+0	-1.50797981E+1	5.00000000E+0	5.95414643E+0	-6.30000000E+2	4.47087651E-1
80	02/09/2022	16:35:31.941	0.00000000E+0	-1.48700263E+1	5.00000000E+0	5.93113672E+0	-6.31000000E+2	4.33412825E-1
81	02/09/2022	16:35:33.293	0.00000000E+0	-1.46606379E+1	5.00000000E+0	6.08338431E+0	-6.30000000E+2	4.20395423E-1
82	02/09/2022	16:35:34.684	0.00000000E+0	-1.44512495E+1	5.00000000E+0	4.02593258E+0	-6.31000000E+2	3.94663319E-1
83	02/09/2022	16:35:36.243	0.00000000E+0	-1.42418611E+1	5.00000000E+0	5.48398132E-2	-6.30000000E+2	3.92564471E-1
84	02/09/2022	16:35:37.670	0.00000000E+0	-1.40324728E+1	5.00000000E+0	5.46787452E+0	-6.30000000E+2	3.74625691E-1
85	02/09/2022	16:35:39.030	0.00000000E+0	-1.38230844E+1	5.00000000E+0	3.25855869E+0	-6.30000000E+2	3.66578419E-1
86	02/09/2022	16:35:40.566	0.00000000E+0	-1.36136960E+1	5.00000000E+0	4.88266085E+0	-6.31000000E+2	3.59838308E-1
87	02/09/2022	16:35:41.937	0.00000000E+0	-1.34043076E+1	5.00000000E+0	4.72159287E+0	-6.31000000E+2	3.59075472E-1
88	02/09/2022	16:35:43.480	0.00000000E+0	-1.31945357E+1	5.00000000E+0	1.07378655E+0	-6.30000000E+2	3.67325904E-1
89	02/09/2022	16:35:44.892	0.00000000E+0	-1.29851474E+1	5.00000000E+0	3.04610235E+0	-6.30000000E+2	3.71836455E-1
90	02/09/2022	16:35:46.278	0.00000000E+0	-1.27757590E+1	5.00000000E+0	4.74191811E+0	-6.31000000E+2	3.80819233E-1
91	02/09/2022	16:35:47.732	0.00000000E+0	-1.25663706E+1	5.00000000E+0	5.09089874E+0	-6.31000000E+2	4.02906677E-1
92	02/09/2022	16:35:49.122	0.00000000E+0	-1.23569822E+1	5.00000000E+0	5.87437943E+0	-6.30000000E+2	4.08085384E-1
93	02/09/2022	16:35:50.527	0.00000000E+0	-1.21475939E+1	5.00000000E+0	6.35451541E-1	-6.30000000E+2	4.18031272E-1
94	02/09/2022	16:35:52.037	0.00000000E+0	-1.19382055E+1	5.00000000E+0	4.26676756E+0	-6.30000000E+2	4.46345584E-1
95	02/09/2022	16:35:53.425	0.00000000E+0	-1.17284336E+1	5.00000000E+0	5.40728228E-1	-6.30000000E+2	4.60096548E-1
96	02/09/2022	16:35:54.912	0.00000000E+0	-1.15190452E+1	5.00000000E+0	5.72213183E+0	-6.30000000E+2	4.72250003E-1
97	02/09/2022	16:35:56.321	0.00000000E+0	-1.13096569E+1	5.00000000E+0	1.92859735E+0	-6.30000000E+2	4.87317066E-1
98	02/09/2022	16:35:57.728	0.00000000E+0	-1.11002685E+1	5.00000000E+0	4.67212198E+0	-6.31000000E+2	5.09191862E-1
99	02/09/2022	16:35:59.193	0.00000000E+0	-1.08908801E+1	5.00000000E+0	5.84216583E+0	-6.31000000E+2	5.12845513E-1
100	02/09/2022	16:36:00.587	0.00000000E+0	-1.06814917E+1	5.00000000E+0	2.63998094E+0	-6.30000000E+2	5.22337150E-1
101	02/09/2022	16:36:02.010	0.00000000E+0	-1.04721033E+1	5.00000000E+0	5.84178234E+0	-6.31000000E+2	5.29051519E-1
102	02/09/2022	16:36:03.528	0.00000000E+0	-1.02627150E+1	5.00000000E+0	5.35359295E-1	-6.30000000E+2	5.27295235E-1
103	02/09/2022	16:36:04.907	0.00000000E+0	-1.00529431E+1	5.00000000E+0	4.48804429E+0	-6.30000000E+2	5.20366000E-1
104	02/09/2022	16:36:06.484	0.00000000E+0	-9.84355472E+0	5.00000000E+0	4.32237437E+0	-6.31000000E+2	5.28333887E-1
105	02/09/2022	16:36:07.862	0.00000000E+0	-9.63416634E+0	5.00000000E+0	5.70257358E-1	-6.30000000E+2	5.12796799E-1
106	02/09/2022	16:36:09.274	0.00000000E+0	-9.42477796E+0	5.00000000E+0	5.17833564E+0	-6.31000000E+2	4.98330166E-1
107	02/09/2022	16:36:10.779	0.00000000E+0	-9.21538958E+0	5.00000000E+0	4.99464145E+0	-6.31000000E+2	4.83715862E-1
108	02/09/2022	16:36:12.165	0.00000000E+0	-9.00600121E+0	5.00000000E+0	5.21553468E-2	-6.29000000E+2	4.63206539E-1
109	02/09/2022	16:36:13.619	0.00000000E+0	-8.79661283E+0	5.00000000E+0	5.07555893E+0	-6.30000000E+2	4.55183309E-1
110	02/09/2022	16:36:14.995	0.00000000E+0	-8.58684096E+0	5.00000000E+0	9.12718569E-2	-6.29000000E+2	4.37932019E-1
111	02/09/2022	16:36:16.368	0.00000000E+0	-8.37745258E+0	5.00000000E+0	4.54250061E+0	-6.30000000E+2	4.04428459E-1
112	02/09/2022	16:36:17.929	0.00000000E+0	-8.16806420E+0	5.00000000E+0	6.20111734E+0	-6.31000000E+2	4.00973370E-1
113	02/09/2022	16:36:19.328	0.00000000E+0	-7.95867582E+0	5.00000000E+0	6.03237945E+0	-6.30000000E+2	3.94523487E-1
114	02/09/2022	16:36:20.765	0.00000000E+0	-7.74928745E+0	5.00000000E+0	4.28670931E+0	-6.31000000E+2	3.74122200E-1
115	02/09/2022	16:36:22.312	0.00000000E+0	-7.53989907E+0	5.00000000E+0	4.36954427E+0	-6.31000000E+2	3.70432042E-1
116	02/09/2022	16:36:23.695	0.00000000E+0	-7.33051069E+0	5.00000000E+0	6.14359306E-1	-6.30000000E+2	3.63699922E-1
117	02/09/2022	16:36:25.174	0.00000000E+0	-7.12112231E+0	5.00000000E+0	4.59734042E+0	-6.30000000E+2	3.60246226E-1
118	02/09/2022	16:36:26.569	0.00000000E+0	-6.91135044E+0	5.00000000E+0	1.56772837E+0	-6.30000000E+2	3.59703246E-1
119	02/09/2022	16:36:28.018	0.00000000E+0	-6.70196206E+0	5.00000000E+0	4.91755891E+0	-6.31000000E+2	3.74800372E-1
120	02/09/2022	16:36:29.524	0.00000000E+0	-6.49257368E+0	5.00000000E+0	3.88979178E+0	-6.31000000E+2	3.80877964E-1
121	02/09/2022	16:36:30.906	0.00000000E+0	-6.28318531E+0	5.00000000E+0	1.79552451E+0	-6.30000000E+2	3.94976425E-1
122	02/09/2022	16:36:32.385	0.00000000E+0	-6.07379693E+0	5.00000000E+0	3.52547135E+0	-6.30000000E+2	3.99160131E-1
123	02/09/2022	16:36:33.836	0.00000000E+0	-5.86440855E+0	5.00000000E+0	5.58100560E+0	-6.30000000E+2	4.20548120E-1
124	02/09/2022	16:36:35.227	0.00000000E+0	-5.65502017E+0	5.00000000E+0	4.60232586E+0	-6.31000000E+2	4.38658513E-1
125	02/09/2022	16:36:36.698	0.00000000E+0	-5.44524830E+0	5.00000000E+0	1.87912647E-1	-6.30000000E+2	4.53969790E-1
126	02/09/2022	16:36:38.101	0.00000000E+0	-5.23585992E+0	5.00000000E+0	4.19083551E+0	-6.31000000E+2	4.75683677E-1
127	02/09/2022	16:36:39.551	0.00000000E+0	-5.02647155E+0	5.00000000E+0	1.40282543E+0	-6.30000000E+2	4.97298451E-1
128	02/09/2022	16:36:41.071	0.00000000E+0	-4.81708317E+0	5.00000000E+0	4.02900054E+0	-6.31000000E+2	5.06410507E-1
129	02/09/2022	16:36:42.430	0.00000000E+0	-4.60769479E+0	5.00000000E+0	4.90797153E+0	-6.31000000E+2	5.21764080E-1
130	02/09/2022	16:36:43.901	0.00000000E+0	-4.39830641E+0	5.00000000E+0	5.03452495E+0	-6.31000000E+2	5.27756566E-1
131	02/09/2022	16:36:45.297	0.00000000E+0	-4.18891804E+0	5.00000000E+0	2.01181580E+0	-6.30000000E+2	5.30596490E-1
132	02/09/2022	16:36:46.693	0.00000000E+0	-3.97952966E+0	5.00000000E+0	3.48482085E+0	-6.30000000E+2	5.27643302E-1
133	02/09/2022	16:36:48.247	0.00000000E+0	-3.76975779E+0	5.00000000E+0	5.08744728E+0	-6.30000000E+2	5.25320193E-1
134	02/09/2022	16:36:49.640	0.00000000E+0	-3.56036941E+0	5.00000000E+0	5.07440845E+0	-6.31000000E+2	5.26323880E-1
135	02/09/2022	16:36:51.086	0.00000000E+0	-3.35098103E+0	5.00000000E+0	3.71069953E+0	-6.30000000E+2	5.10334538E-1
136	02/09/2022	16:36:52.504	0.00000000E+0	-3.14159265E+0	5.00000000E+0	5.89585516E+0	-6.30000000E+2	4.95262338E-1
137	02/09/2022	16:36:53.875	0.00000000E+0	-2.93220428E+0	5.00000000E+0	3.59488398E+0	-6.30000000E+2	4.85449426E-1
138	02/09/2022	16:36:55.420	0.00000000E+0	-2.72281590E+0	5.00000000E+0	5.54073861E+0	-6.30000000E+2	4.69878294E-1
139	02/09/2022	16:36:56.784	0.00000000E+0	-2.51342752E+0	5.00000000E+0	5.53268521E+0	-6.30000000E+2	4.62774033E-1
140	02/09/2022	16:36:58.261	0.00000000E+0	-2.30365565E+0	5.00000000E+0	5.43220947E+0	-6.31000000E+2	4.34920885E-1
141	02/09/2022	16:36:59.747	0.00000000E+0	-2.09426727E+0	5.00000000E+0	5.91656390E+0	-6.30000000E+2	4.20868771E-1
142	02/09/2022	16:37:01.140	0.00000000E+0	-1.88487889E+0	5.00000000E+0	4.74920452E+0	-6.31000000E+2	3.95937370E-1
143	02/09/2022	16:37:02.605	0.00000000E+0	-1.67549052E+0	5.00000000E+0	4.08384035E+0	-6.31000000E+2	3.85174178E-1
144	02/09/2022	16:37:04.015	0.00000000E+0	-1.46610214E+0	5.00000000E+0	4.14213162E+0	-6.31000000E+2	3.73855863E-1
145	02/09/2022	16:37:05.390	0.00000000E+0	-1.25671376E+0	5.00000000E+0	5.86977748E+0	-6.31000000E+2	3.73407935E-1
146	02/09/2022	16:37:06.872	0.00000000E+0	-1.04732538E+0	5.00000000E+0	5.22665604E+0	-6.30000000E+2	3.65021031E-1
147	02/09/2022	16:37:08.299	0.00000000E+0	-8.37937005E-1	5.00000000E+0	5.84446680E+0	-6.31000000E+2	3.62645180E-1
148	02/09/2022	16:37:09.682	0.00000000E+0	-6.28165133E-1	5.00000000E+0	6.07187945E+0	-6.31000000E+2	3.65561628E-1
149	02/09/2022	16:37:11.193	0.00000000E+0	-4.18776755E-1	5.00000000E+0	2.34737410E+0	-6.30000000E+2	3.70033139E-1
150	02/09/2022	16:37:12.584	0.00000000E+0	-2.09388378E-1	5.00000000E+0	5.03912689E-1	-6.30000000E+2	3.79718119E-1
151	02/09/2022	16:37:14.141	0.00000000E+0	0.00000000E+0	5.00000000E+0	4.55630644E+0	-6.31000000E+2	4.00717229E-1
152	02/09/2022	16:37:15.533	0.00000000E+0	2.09388378E-1	5.00000000E+0	6.16315131E+0	-6.30000000E+2	4.08721378E-1
153	02/09/2022	16:37:16.935	0.00000000E+0	4.18776755E-1	5.00000000E+0	5.34669004E+0	-6.31000000E+2	4.30538389E-1
154	02/09/2022	16:37:18.426	0.00000000E+0	6.28165133E-1	5.00000000E+0	1.04042247E+0	-6.30000000E+2	4.39274519E-1
155	02/09/2022	16:37:19.824	0.00000000E+0	8.37937005E-1	5.00000000E+0	5.53997162E+0	-6.30000000E+2	4.64051266E-1
156	02/09/2022	16:37:21.283	0.00000000E+0	1.04732538E+0	5.00000000E+0	5.13883564E-2	-6.29000000E+2	4.74792825E-1
157	02/09/2022	16:37:22.733	0.00000000E+0	1.25671376E+0	5.00000000E+0	1.56159244E+0	-6.30000000E+2	4.95738054E-1
158	02/09/2022	16:37:24.124	0.00000000E+0	1.46610214E+0	5.00000000E+0	2.45130130E+0	-6.30000000E+2	5.07968059E-1
159	02/09/2022	16:37:25.670	0.00000000E+0	1.67549052E+0	5.00000000E+0	4.46081613E+0	-6.30000000E+2	5.20591097E-1
160	02/09/2022	16:37:27.063	0.00000000E+0	1.88487889E+0	5.00000000E+0	5.48283083E+0	-6.31000000E+2	5.29583019E-1
161	02/09/2022	16:37:28.536	0.00000000E+0	2.09426727E+0	5.00000000E+0	5.90352506E+0	-6.30000000E+2	5.35563181E-1
162	02/09/2022	16:37:30.048	0.00000000E+0	2.30365565E+0	5.00000000E+0	5.88281632E+0	-6.30000000E+2	5.35721164E-1
163	02/09/2022	16:37:31.434	0.00000000E+0	2.51342752E+0	5.00000000E+0	5.16836477E+0	-6.31000000E+2	5.35546627E-1
164	02/09/2022	16:37:32.903	0.00000000E+0	2.72281590E+0	5.00000000E+0	5.61858813E+0	-6.31000000E+2	5.20088340E-1
165	02/09/2022	16:37:34.301	0.00000000E+0	2.93220428E+0	5.00000000E+0	1.26783512E+0	-6.30000000E+2	5.11125515E-1
166	02/09/2022	16:37:35.688	0.00000000E+0	3.14159265E+0	5.00000000E+0	6.17235520E+0	-6.31000000E+2	5.03544076E-1
167	02/09/2022	16:37:37.190	0.00000000E+0	3.35098103E+0	5.00000000E+0	4.43397147E+0	-6.31000000E+2	4.85290376E-1
168	02/09/2022	16:37:38.591	0.00000000E+0	3.56036941E+0	5.00000000E+0	2.07432552E+0	-6.30000000E+2	4.65165296E-1
169	02/09/2022	16:37:40.012	0.00000000E+0	3.76975779E+0	5.00000000E+0	3.12625285E+0	-6.31000000E+2	4.40006359E-1
170	02/09/2022	16:37:41.513	0.00000000E+0	3.97952966E+0	5.00000000E+0	9.28058377E-2	-6.30000000E+2	4.28574807E-1
171	02/09/2022	16:37:42.925	0.00000000E+0	4.18891804E+0	5.00000000E+0	1.97231580E+0	-6.30000000E+2	4.17449671E-1
172	02/09/2022	16:37:44.422	0.00000000E+0	4.39830641E+0	5.00000000E+0	5.60900075E+0	-6.30000000E+2	3.99900685E-1
173	02/09/2022	16:37:45.816	0.00000000E+0	4.60769479E+0	5.00000000E+0	7.28257379E-1	-6.30000000E+2	3.79699773E-1
174	02/09/2022	16:37:47.277	0.00000000E+0	4.81708317E+0	5.00000000E+0	6.17043772E+0	-6.31000000E+2	3.72978341E-1
175	02/09/2022	16:37:48.807	0.00000000E+0	5.02647155E+0	5.00000000E+0	1.94853910E+0	-6.30000000E+2	3.68914871E-1
176	02/09/2022	16:37:50.201	0.00000000E+0	5.23585992E+0	5.00000000E+0	2.13875271E+0	-6.30000000E+2	3.56041198E-1
177	02/09/2022	16:37:51.658	0.00000000E+0	5.44524830E+0	5.00000000E+0	1.00820887E+0	-6.30000000E+2	3.62767482E-1
178	02/09/2022	16:37:53.081	0.00000000E+0	5.65502017E+0	5.00000000E+0	4.62226761E+0	-6.30000000E+2	3.64015676E-1
179	02/09/2022	16:37:54.482	0.00000000E+0	5.86440855E+0	5.00000000E+0	6.03813188E+0	-6.31000000E+2	3.76524549E-1
180	02/09/2022	16:37:56.004	0.00000000E+0	6.07379693E+0	5.00000000E+0	5.89010273E+0	-6.30000000E+2	3.80499012E-1
181	02/09/2022	16:37:57.381	0.00000000E+0	6.28318531E+0	5.00000000E+0	3.89055877E+0	-6.30000000E+2	3.97562020E-1
182	02/09/2022	16:37:58.800	0.00000000E+0	6.49257368E+0	5.00000000E+0	1.45421379E+0	-6.30000000E+2	4.10014524E-1
183	02/09/2022	16:38:00.309	0.00000000E+0	6.70196206E+0	5.00000000E+0	1.81700024E+0	-6.30000000E+2	4.18588602E-1
184	02/09/2022	16:38:01.736	0.00000000E+0	6.91135044E+0	5.00000000E+0	4.71814141E+0	-6.31000000E+2	4.50130097E-1
185	02/09/2022	16:38:03.276	0.00000000E+0	7.12112231E+0	5.00000000E+0	6.22796200E+0	-6.31000000E+2	4.59905534E-1
186	02/09/2022	16:38:04.642	0.00000000E+0	7.33051069E+0	5.00000000E+0	1.15623802E+0	-6.30000000E+2	4.73240805E-1
187	02/09/2022	16:38:06.012	0.00000000E+0	7.53989907E+0	5.00000000E+0	5.82337457E+0	-6.31000000E+2	4.95321679E-1
188	02/09/2022	16:38:07.602	0.00000000E+0	7.74928745E+0	5.00000000E+0	3.99908791E+0	-6.30000000E+2	5.07088587E-1
189	02/09/2022	16:38:08.990	0.00000000E+0	7.95867582E+0	5.00000000E+0	4.86118512E+0	-6.31000000E+2	5.24753650E-1
190	02/09/2022	16:38:10.467	0.00000000E+0	8.16806420E+0	5.00000000E+0	1.25786425E-1	-6.29000000E+2	5.21995064E-1
191	02/09/2022	16:38:11.867	0.00000000E+0	8.37745258E+0	5.00000000E+0	4.33004427E+0	-6.31000000E+2	5.25200183E-1
192	02/09/2022	16:38:13.255	0.00000000E+0	8.58684096E+0	5.00000000E+0	5.81493767E+0	-6.30000000E+2	5.34287401E-1
193	02/09/2022	16:38:14.854	0.00000000E+0	8.79661283E+0	5.00000000E+0	4.92101037E+0	-6.30000000E+2	5.30238813E-1
194	02/09/2022	16:38:16.259	0.00000000E+0	9.00600121E+0	5.00000000E+0	5.86901049E+0	-6.30000000E+2	5.19894922E-1
195	02/09/2022	16:38:17.693	0.00000000E+0	9.21538958E+0	5.00000000E+0	4.60194236E-2	-6.30000000E+2	5.12035807E-1
196	02/09/2022	16:38:19.192	0.00000000E+0	9.42477796E+0	5.00000000E+0	2.55139355E+0	-6.30000000E+2	5.01180063E-1
197	02/09/2022	16:38:20.583	0.00000000E+0	9.63416634E+0	5.00000000E+0	5.94034060E-1	-6.30000000E+2	4.80656378E-1
198	02/09/2022	16:38:22.077	0.00000000E+0	9.84355472E+0	5.00000000E+0	5.24583080E+0	-6.31000000E+2	4.70098478E-1
199	02/09/2022	16:38:23.474	0.00000000E+0	1.00529431E+1	5.00000000E+0	6.09067072E+0	-6.30000000E+2	4.51352140E-1
200	02/09/2022	16:38:24.860	0.00000000E+0	1.02627150E+1	5.00000000E+0	4.34385010E+0	-6.31000000E+2	4.37808514E-1
201	02/09/2022	16:38:26.415	0.00000000E+0	1.04721033E+1	5.00000000E+0	5.09703466E+0	-6.31000000E+2	4.06804863E-1
202	02/09/2022	16:38:27.807	0.00000000E+0	1.06814917E+1	5.00000000E+0	7.47432139E-1	-6.29000000E+2	4.03735463E-1
203	02/09/2022	16:38:29.251	0.00000000E+0	1.08908801E+1	5.00000000E+0	5.68186484E+0	-6.31000000E+2	3.86951412E-1
204	02/09/2022	16:38:30.751	0.00000000E+0	1.11002685E+1	5.00000000E+0	5.27612692E+0	-6.31000000E+2	3.81809562E-1
205	02/09/2022	16:38:32.132	0.00000000E+0	1.13096569E+1	5.00000000E+0	3.73332574E+0	-6.30000000E+2	3.67826888E-1
206	02/09/2022	16:38:33.701	0.00000000E+0	1.15190452E+1	5.00000000E+0	3.09250527E+0	-6.30000000E+2	3.63424877E-1
207	02/09/2022	16:38:35.086	0.00000000E+0	1.17284336E+1	5.00000000E+0	4.28939378E+0	-6.31000000E+2	3.68308998E-1
208	02/09/2022	16:38:36.445	0.00000000E+0	1.19382055E+1	5.00000000E+0	5.52539880E+0	-6.31000000E+2	3.68135891E-1
209	02/09/2022	16:38:37.942	0.00000000E+0	1.21475939E+1	5.00000000E+0	3.57992766E+0	-6.30000000E+2	3.64557880E-1
210	02/09/2022	16:38:39.340	0.00000000E+0	1.23569822E+1	5.00000000E+0	3.20333538E+0	-6.30000000E+2	3.90625670E-1
211	02/09/2022	16:38:40.768	0.00000000E+0	1.25663706E+1	5.00000000E+0	5.51351045E+0	-6.30000000E+2	3.88210580E-1
212	02/09/2022	16:38:42.230	0.00000000E+0	1.27757590E+1	5.00000000E+0	4.06044715E+0	-6.30000000E+2	4.05959094E-1
213	02/09/2022	16:38:43.605	0.00000000E+0	1.29851474E+1	5.00000000E+0	8.95844780E-1	-6.30000000E+2	4.27869394E-1
214	02/09/2022	16:38:45.111	0.00000000E+0	1.31945357E+1	5.00000000E+0	1.02891761E+0	-6.30000000E+2	4.41911008E-1
215	02/09/2022	16:38:46.495	0.00000000E+0	1.34043076E+1	5.00000000E+0	4.72235986E+0	-6.31000000E+2	4.49856268E-1
216	02/09/2022	16:38:47.952	0.00000000E+0	1.36136960E+1	5.00000000E+0	3.73409273E+0	-6.31000000E+2	4.83443706E-1
217	02/09/2022	16:38:49.474	0.00000000E+0	1.38230844E+1	5.00000000E+0	4.89301522E+0	-6.30000000E+2	4.86214959E-1
218	02/09/2022	16:38:50.860	0.00000000E+0	1.40324728E+1	5.00000000E+0	5.75702990E+0	-6.31000000E+2	5.11792866E-1
219	02/09/2022	16:38:52.328	0.00000000E+0	1.42418611E+1	5.00000000E+0	3.39201502E+0	-6.31000000E+2	5.22656614E-1
220	02/09/2022	16:38:53.718	0.00000000E+0	1.44512495E+1	5.00000000E+0	5.19866089E+0	-6.30000000E+2	5.27427430E-1
221	02/09/2022	16:38:55.146	0.00000000E+0	1.46606379E+1	5.00000000E+0	8.29500111E-1	-6.30000000E+2	5.31505930E-1
222	02/09/2022	16:38:56.704	0.00000000E+0	1.48700263E+1	5.00000000E+0	3.68078690E+0	-6.31000000E+2	5.26408102E-1
223	02/09/2022	16:38:58.115	0.00000000E+0	1.50797981E+1	5.00000000E+0	1.61451478E-1	-6.30000000E+2	5.31682705E-1
224	02/09/2022	16:38:59.709	0.00000000E+0	1.52891865E+1	5.00000000E+0	1.98497114E+0	-6.30000000E+2	5.21704377E-1
225	02/09/2022	16:39:01.108	0.00000000E+0	1.54985749E+1	5.00000000E+0	5.29990362E+0	-6.30000000E+2	5.13493422E-1
226	02/09/2022	16:39:02.510	0.00000000E+0	1.57079633E+1	5.00000000E+0	6.17925811E+0	-6.31000000E+2	4.97966372E-1
227	02/09/2022	16:39:04.040	0.00000000E+0	1.59173516E+1	5.00000000E+0	3.35558297E+0	-6.30000000E+2	4.89298013E-1
228	02/09/2022	16:39:05.449	0.00000000E+0	1.61267400E+1	5.00000000E+0	5.51351045E+0	-6.30000000E+2	4.64329900E-1
229	02/09/2022	16:39:06.830	0.00000000E+0	1.63361284E+1	5.00000000E+0	5.61858813E+0	-6.31000000E+2	4.56553858E-1
230	02/09/2022	16:39:08.430	0.00000000E+0	1.65459003E+1	5.00000000E+0	4.84507832E+0	-6.31000000E+2	4.31124677E-1
231	02/09/2022	16:39:09.825	0.00000000E+0	1.67552887E+1	5.00000000E+0	2.78034018E-1	-6.29000000E+2	4.14543798E-1
232	02/09/2022	16:39:11.327	0.00000000E+0	1.69646770E+1	5.00000000E+0	4.87268997E+0	-6.30000000E+2	3.95297280E-1
233	02/09/2022	16:39:12.715	0.00000000E+0	1.71740654E+1	5.00000000E+0	6.08798625E+0	-6.31000000E+2	3.80697908E-1
234	02/09/2022	16:39:14.092	0.00000000E+0	1.73834538E+1	5.00000000E+0	4.19543745E+0	-6.31000000E+2	3.69172025E-1
235	02/09/2022	16:39:15.657	0.00000000E+0	1.75928422E+1	5.00000000E+0	4.06428210E+0	-6.30000000E+2	3.70690362E-1
236	02/09/2022	16:39:17.044	0.00000000E+0	1.78022305E+1	5.00000000E+0	2.46434014E+0	-6.30000000E+2	3.62851197E-1
237	02/09/2022	16:39:18.443	0.00000000E+0	1.80116189E+1	5.00000000E+0	5.46672403E+0	-6.30000000E+2	3.60416689E-1
238	02/09/2022	16:39:19.947	0.00000000E+0	1.82213908E+1	5.00000000E+0	4.33771417E+0	-6.30000000E+2	3.67616115E-1
239	02/09/2022	16:39:21.351	0.00000000E+0	1.84307792E+1	5.00000000E+0	4.01135976E-1	-6.30000000E+2	3.72311818E-1
240	02/09/2022	16:39:22.872	0.00000000E+0	1.86401675E+1	5.00000000E+0	5.63392794E+0	-6.30000000E+2	3.79848574E-1
241	02/09/2022	16:39:24.252	0.00000000E+0	1.88495559E+1	5.00000000E+0	2.37000032E+0	-6.30000000E+2	3.90353023E-1
242	02/09/2022	16:39:25.635	0.00000000E+0	1.90589443E+1	5.00000000E+0	4.51603944E+0	-6.31000000E+2	4.19707861E-1
243	02/09/2022	16:39:27.142	0.00000000E+0	1.92683327E+1	5.00000000E+0	5.32904926E+0	-6.31000000E+2	4.24936168E-1
244	02/09/2022	16:39:28.575	0.00000000E+0	1.94777211E+1	5.00000000E+0	4.77413171E+0	-6.30000000E+2	4.40226920E-1
245	02/09/2022	16:39:30.017	0.00000000E+0	1.96874929E+1	5.00000000E+0	4.81861715E+0	-6.31000000E+2	4.57316441E-1
246	02/09/2022	16:39:31.407	0.00000000E+0	1.98968813E+1	5.00000000E+0	5.19099099E+0	-6.30000000E+2	4.79961764E-1
247	02/09/2022	16:39:32.800	0.00000000E+0	2.01062697E+1	5.00000000E+0	2.81485475E+0	-6.31000000E+2	5.01705339E-1
248	02/09/2022	16:39:34.358	0.00000000E+0	2.03156581E+1	5.00000000E+0	9.14636045E-1	-6.30000000E+2	5.07335448E-1
249	02/09/2022	16:39:35.757	0.00000000E+0	2.05250464E+1	5.00000000E+0	4.85428220E+0	-6.31000000E+2	5.18194689E-1
250	02/09/2022	16:39:37.228	0.00000000E+0	2.07344348E+1	5.00000000E+0	5.44371432E+0	-6.31000000E+2	5.25591929E-1
251	02/09/2022	16:39:38.732	0.00000000E+0	2.09438232E+1	5.00000000E+0	3.57954417E+0	-6.31000000E+2	5.35060686E-1
252	02/09/2022	16:39:40.126	0.00000000E+0	2.11532116E+1	5.00000000E+0	3.63936942E+0	-6.30000000E+2	5.37746331E-1
253	02/09/2022	16:39:41.663	0.00000000E+0	2.13629834E+1	5.00000000E+0	3.57954417E+0	-6.30000000E+2	5.33969262E-1
254	02/09/2022	16:39:43.053	0.00000000E+0	2.15723718E+1	5.00000000E+0	1.62563614E+0	-6.30000000E+2	5.27555029E-1
255	02/09/2022	16:39:44.440	0.00000000E+0	2.17817602E+1	5.00000000E+0	3.85029178E-1	-6.30000000E+2	5.08354741E-1
256	02/09/2022	16:39:45.992	0.00000000E+0	2.19911486E+1	5.00000000E+0	5.03529194E-1	-6.30000000E+2	4.97898590E-1
257	02/09/2022	16:39:47.386	0.00000000E+0	2.22005370E+1	5.00000000E+0	2.64228191E+0	-6.30000000E+2	4.89292825E-1
258	02/09/2022	16:39:48.790	0.00000000E+0	2.24099253E+1	5.00000000E+0	4.78026763E+0	-6.30000000E+2	4.69638596E-1
259	02/09/2022	16:39:50.304	0.00000000E+0	2.26193137E+1	5.00000000E+0	3.32490336E+0	-6.30000000E+2	4.45999849E-1
260	02/09/2022	16:39:51.685	0.00000000E+0	2.28290856E+1	5.00000000E+0	4.05661219E+0	-6.31000000E+2	4.35617776E-1
261	02/09/2022	16:39:53.209	0.00000000E+0	2.30384740E+1	5.00000000E+0	4.89991813E+0	-6.30000000E+2	4.14028818E-1
262	02/09/2022	16:39:54.586	0.00000000E+0	2.32478623E+1	5.00000000E+0	5.81493767E+0	-6.30000000E+2	4.01441886E-1
263	02/09/2022	16:39:55.953	0.00000000E+0	2.34572507E+1	5.00000000E+0	7.49349615E-1	-6.29000000E+2	3.92103592E-1
264	02/09/2022	16:39:57.475	0.00000000E+0	2.36666391E+1	5.00000000E+0	4.39523845E+0	-6.31000000E+2	3.73849338E-1
265	02/09/2022	16:39:58.869	0.00000000E+0	2.38760275E+1	5.00000000E+0	6.26937948E+0	-6.30000000E+2	3.73365683E-1
266	02/09/2022	16:40:00.363	0.00000000E+0	2.40854158E+1	5.00000000E+0	1.11520403E+0	-6.30000000E+2	3.60462451E-1
267	02/09/2022	16:40:01.808	0.00000000E+0	2.42948042E+1	5.00000000E+0	2.59626248E-1	-6.30000000E+2	3.68214273E-1
268	02/09/2022	16:40:03.216	0.00000000E+0	2.45045761E+1	5.00000000E+0	2.41026731E+0	-6.30000000E+2	3.79431209E-1
269	02/09/2022	16:40:04.755	0.00000000E+0	2.47139645E+1	5.00000000E+0	5.37852014E+0	-6.30000000E+2	3.74328542E-1
270	02/09/2022	16:40:06.147	0.00000000E+0	2.49233529E+1	5.00000000E+0	4.23340348E+0	-6.31000000E+2	3.86646665E-1
271	02/09/2022	16:40:07.531	0.00000000E+0	2.51327412E+1	5.00000000E+0	3.53966067E+0	-6.30000000E+2	3.93854028E-1
272	02/09/2022	16:40:09.041	0.00000000E+0	2.53421296E+1	5.00000000E+0	4.44969477E+0	-6.30000000E+2	4.08182323E-1
273	02/09/2022	16:40:10.413	0.00000000E+0	2.55515180E+1	5.00000000E+0	6.89907859E-1	-6.29000000E+2	4.27102389E-1
274	02/09/2022	16:40:11.889	0.00000000E+0	2.57609064E+1	5.00000000E+0	6.20150083E+0	-6.31000000E+2	4.48162556E-1
275	02/09/2022	16:40:13.264	0.00000000E+0	2.59706782E+1	5.00000000E+0	3.85489372E+0	-6.31000000E+2	4.66688356E-1
276	02/09/2022	16:40:14.697	0.00000000E+0	2.61800666E+1	5.00000000E+0	5.53652016E+0	-6.30000000E+2	4.89955151E-1
277	02/09/2022	16:40:16.260	0.00000000E+0	2.63894550E+1	5.00000000E+0	4.27942290E+0	-6.30000000E+2	4.87467962E-1
278	02/09/2022	16:40:17.660	0.00000000E+0	2.65988434E+1	5.00000000E+0	4.55132100E+0	-6.30000000E+2	5.03313382E-1
279	02/09/2022	16:40:19.054	0.00000000E+0	2.68082317E+1	5.00000000E+0	4.36762680E+0	-6.31000000E+2	5.21368139E-1
280	02/09/2022	16:40:20.443	0.00000000E+0	2.70176201E+1	5.00000000E+0	3.60715582E+0	-6.30000000E+2	5.23036918E-1
281	02/09/2022	16:40:21.834	0.00000000E+0	2.72270085E+1	5.00000000E+0	1.55929147E+0	-6.30000000E+2	5.39032936E-1
282	02/09/2022	16:40:23.371	0.00000000E+0	2.74363969E+1	5.00000000E+0	5.17833564E+0	-6.30000000E+2	5.36909454E-1
283	02/09/2022	16:40:24.751	0.00000000E+0	2.76461687E+1	5.00000000E+0	1.96771386E+0	-6.30000000E+2	5.27886353E-1
284	02/09/2022	16:40:26.185	0.00000000E+0	2.78555571E+1	5.00000000E+0	5.74437456E+0	-6.31000000E+2	5.16111768E-1
285	02/09/2022	16:40:27.682	0.00000000E+0	2.80649455E+1	5.00000000E+0	4.66023363E+0	-6.31000000E+2	5.09268205E-1
286	02/09/2022	16:40:29.078	0.00000000E+0	2.82743339E+1	5.00000000E+0	5.51504443E+0	-6.30000000E+2	5.00006603E-1
287	02/09/2022	16:40:30.571	0.00000000E+0	2.84837223E+1	5.00000000E+0	2.01028182E+0	-6.30000000E+2	4.86903184E-1
288	02/09/2022	16:40:31.945	0.00000000E+0	2.86931106E+1	5.00000000E+0	5.75894737E+0	-6.30000000E+2	4.71386143E-1
289	02/09/2022	16:40:33.344	0.00000000E+0	2.89024990E+1	5.00000000E+0	2.28754885E+0	-6.31000000E+2	4.52621966E-1
290	02/09/2022	16:40:34.892	0.00000000E+0	2.91122709E+1	5.00000000E+0	3.29499073E+0	-6.31000000E+2	4.31688665E-1
291	02/09/2022	16:40:36.269	0.00000000E+0	2.93216593E+1	5.00000000E+0	2.41371877E+0	-6.30000000E+2	4.04189763E-1
292	02/09/2022	16:40:37.707	0.00000000E+0	2.95310476E+1	5.00000000E+0	3.07601497E+0	-6.30000000E+2	4.03791604E-1
293	02/09/2022	16:40:39.219	0.00000000E+0	2.97404360E+1	5.00000000E+0	6.14627752E+0	-6.31000000E+2	3.81779984E-1
294	02/09/2022	16:40:40.588	0.00000000E+0	2.99498244E+1	5.00000000E+0	5.66153959E+0	-6.31000000E+2	3.77240164E-1
295	02/09/2022	16:40:42.050	0.00000000E+0	3.01592128E+1	5.00000000E+0	1.45728175E-1	-6.30000000E+2	3.63928033E-1
296	02/09/2022	16:40:43.454	0.00000000E+0	3.03686012E+1	5.00000000E+0	1.56427691E+0	-6.30000000E+2	3.61732691E-1
297	02/09/2022	16:40:44.813	0.00000000E+0	3.05779895E+1	5.00000000E+0	5.19712691E+0	-6.30000000E+2	3.63632713E-1
298	02/09/2022	16:40:46.315	0.00000000E+0	3.07877614E+1	5.00000000E+0	4.52255886E+0	-6.30000000E+2	3.66666819E-1
299	02/09/2022	16:40:47.700	0.00000000E+0	3.09971498E+1	5.00000000E+0	2.97592273E+0	-6.30000000E+2	3.71354123E-1
300	02/09/2022	16:40:49.116	0.00000000E+0	3.12065382E+1	5.00000000E+0	1.78900509E+0	-6.30000000E+2	3.77961144E-1
301	02/09/2022	16:40:50.509	0.00000000E+0	3.14159265E+1	5.00000000E+0	3.17879169E+0	-6.30000000E+2	3.94201473E-1
