#Iteration	Date	Time	Chirp	Phase	RamanAxis	RTPhase	NFringe	Ratio
1	15/03/2023	17:36:00.023	0.00000000E+0	-6.28318531E+0	4.00000000E+0	4.90797153E+0	2.51800000E+3	3.11207108E-1
3	15/03/2023	17:36:03.046	0.00000000E+0	-6.17849112E+0	4.00000000E+0	2.62924307E+0	2.51800000E+3	3.13632638E-1
5	15/03/2023	17:36:05.998	0.00000000E+0	-6.07379693E+0	4.00000000E+0	8.52126328E-1	2.50500000E+3	5.38763697E-1
7	15/03/2023	17:36:08.955	0.00000000E+0	-5.96910274E+0	4.00000000E+0	2.45053431E+0	2.50900000E+3	6.32596455E-1
9	15/03/2023	17:36:11.971	0.00000000E+0	-5.86440855E+0	4.00000000E+0	1.10830112E+0	2.52800000E+3	6.15016615E-1
11	15/03/2023	17:36:15.027	0.00000000E+0	-5.75971436E+0	4.00000000E+0	1.08605840E+0	2.51500000E+3	4.60766393E-1
13	15/03/2023	17:36:18.049	0.00000000E+0	-5.65502017E+0	4.00000000E+0	4.45122875E+0	2.50000000E+3	3.61013995E-1
15	15/03/2023	17:36:21.012	0.00000000E+0	-5.55032599E+0	4.00000000E+0	1.13514578E+0	2.50700000E+3	4.26575734E-1
17	15/03/2023	17:36:24.023	0.00000000E+0	-5.44524830E+0	4.00000000E+0	1.98918959E+0	2.52300000E+3	5.40889378E-1
19	15/03/2023	17:36:26.989	0.00000000E+0	-5.34055411E+0	4.00000000E+0	5.24391332E+0	2.50500000E+3	3.20487747E-1
21	15/03/2023	17:36:29.987	0.00000000E+0	-5.23585992E+0	4.00000000E+0	5.34745703E+0	2.51000000E+3	4.95196012E-1
23	15/03/2023	17:36:32.943	0.00000000E+0	-5.13116574E+0	4.00000000E+0	5.05216572E+0	2.51200000E+3	4.97246771E-1
25	15/03/2023	17:36:35.937	0.00000000E+0	-5.02647155E+0	4.00000000E+0	3.17572373E+0	2.50500000E+3	3.42934454E-1
27	15/03/2023	17:36:38.964	0.00000000E+0	-4.92177736E+0	4.00000000E+0	4.19006852E+0	2.51200000E+3	5.40814161E-1
29	15/03/2023	17:36:41.953	0.00000000E+0	-4.81708317E+0	4.00000000E+0	1.13552928E+0	2.50400000E+3	3.84141154E-1
31	15/03/2023	17:36:44.931	0.00000000E+0	-4.71238898E+0	4.00000000E+0	2.17595175E+0	2.51900000E+3	3.46162868E-1
33	15/03/2023	17:36:47.872	0.00000000E+0	-4.60769479E+0	4.00000000E+0	3.45490823E+0	2.50700000E+3	4.22310830E-1
35	15/03/2023	17:36:50.902	0.00000000E+0	-4.50300060E+0	4.00000000E+0	7.47432139E-1	2.51300000E+3	4.38623707E-1
37	15/03/2023	17:36:53.803	0.00000000E+0	-4.39830641E+0	4.00000000E+0	2.26415564E+0	2.50800000E+3	3.43876829E-1
39	15/03/2023	17:36:56.807	0.00000000E+0	-4.29361223E+0	4.00000000E+0	3.21982567E+0	2.50800000E+3	3.96572722E-1
41	15/03/2023	17:36:59.787	0.00000000E+0	-4.18891804E+0	4.00000000E+0	4.43742292E+0	2.49900000E+3	5.71818036E-1
43	15/03/2023	17:37:02.784	0.00000000E+0	-4.08422385E+0	4.00000000E+0	2.30442264E+0	2.49300000E+3	3.70755024E-1
45	15/03/2023	17:37:05.826	0.00000000E+0	-3.97952966E+0	4.00000000E+0	2.72588386E+0	2.48600000E+3	4.39089680E-1
47	15/03/2023	17:37:08.763	0.00000000E+0	-3.87445198E+0	4.00000000E+0	5.94724351E+0	2.47600000E+3	3.42658738E-1
49	15/03/2023	17:37:11.719	0.00000000E+0	-3.76975779E+0	4.00000000E+0	5.53536967E+0	2.38700000E+3	4.12775385E-1
51	15/03/2023	17:37:14.719	0.00000000E+0	-3.66506360E+0	4.00000000E+0	3.25203927E+0	2.51600000E+3	6.13507550E-1
53	15/03/2023	17:37:17.708	0.00000000E+0	-3.56036941E+0	4.00000000E+0	3.23478199E+0	2.44300000E+3	6.34928337E-1
55	15/03/2023	17:37:20.714	0.00000000E+0	-3.45567522E+0	4.00000000E+0	4.33464621E+0	2.49900000E+3	4.35317536E-1
57	15/03/2023	17:37:23.647	0.00000000E+0	-3.35098103E+0	4.00000000E+0	9.47616632E-1	2.48800000E+3	6.04162690E-1
59	15/03/2023	17:37:26.632	0.00000000E+0	-3.24628684E+0	4.00000000E+0	1.19918948E+0	2.47800000E+3	3.58142066E-1
61	15/03/2023	17:37:29.605	0.00000000E+0	-3.14159265E+0	4.00000000E+0	4.24759280E+0	2.47000000E+3	6.76861538E-1
63	15/03/2023	17:37:32.617	0.00000000E+0	-3.03689846E+0	4.00000000E+0	6.03736489E+0	2.46700000E+3	6.10289162E-1
65	15/03/2023	17:37:35.603	0.00000000E+0	-2.93220428E+0	4.00000000E+0	4.05661219E+0	2.46600000E+3	6.67498144E-1
67	15/03/2023	17:37:38.623	0.00000000E+0	-2.82751009E+0	4.00000000E+0	5.93305419E+0	2.48600000E+3	6.03993318E-1
69	15/03/2023	17:37:41.588	0.00000000E+0	-2.72281590E+0	4.00000000E+0	2.91264602E+0	2.50000000E+3	6.53764016E-1
71	15/03/2023	17:37:44.621	0.00000000E+0	-2.61812171E+0	4.00000000E+0	1.49333030E+0	2.51000000E+3	5.65144025E-1
73	15/03/2023	17:37:47.592	0.00000000E+0	-2.51342752E+0	4.00000000E+0	2.92875282E+0	2.51200000E+3	6.38805795E-1
75	15/03/2023	17:37:50.583	0.00000000E+0	-2.40873333E+0	4.00000000E+0	4.92407833E+0	2.50700000E+3	6.05551515E-1
77	15/03/2023	17:37:53.540	0.00000000E+0	-2.30365565E+0	4.00000000E+0	7.48199129E-1	2.50900000E+3	5.06473257E-1
79	15/03/2023	17:37:56.582	0.00000000E+0	-2.19896146E+0	4.00000000E+0	1.37828174E+0	2.50600000E+3	4.05353879E-1
81	15/03/2023	17:37:59.530	0.00000000E+0	-2.09426727E+0	4.00000000E+0	9.97087512E-3	2.50400000E+3	5.25022355E-1
83	15/03/2023	17:38:02.492	0.00000000E+0	-1.98957308E+0	4.00000000E+0	6.54242806E-1	2.49200000E+3	6.37093049E-1
85	15/03/2023	17:38:05.484	0.00000000E+0	-1.88487889E+0	4.00000000E+0	1.32727688E+0	2.47600000E+3	6.18763910E-1
87	15/03/2023	17:38:08.451	0.00000000E+0	-1.78018470E+0	4.00000000E+0	1.28816037E+0	2.45700000E+3	4.71554231E-1
89	15/03/2023	17:38:11.437	0.00000000E+0	-1.67549052E+0	4.00000000E+0	3.16536936E+0	2.48600000E+3	5.41572878E-1
91	15/03/2023	17:38:14.396	0.00000000E+0	-1.57079633E+0	4.00000000E+0	3.31723345E+0	2.49700000E+3	4.64074075E-1
93	15/03/2023	17:38:17.461	0.00000000E+0	-1.46610214E+0	4.00000000E+0	4.51565594E+0	2.50200000E+3	5.32106853E-1
95	15/03/2023	17:38:20.546	0.00000000E+0	-1.36140795E+0	4.00000000E+0	2.99394700E+0	2.50300000E+3	6.35622921E-1
97	15/03/2023	17:38:23.543	0.00000000E+0	-1.25671376E+0	4.00000000E+0	2.62272365E+0	2.51100000E+3	6.41777954E-1
99	15/03/2023	17:38:26.536	0.00000000E+0	-1.15201957E+0	4.00000000E+0	6.15586490E+0	2.51000000E+3	6.36455800E-1
101	15/03/2023	17:38:29.549	0.00000000E+0	-1.04732538E+0	4.00000000E+0	5.22665604E+0	2.49000000E+3	6.35221614E-1
103	15/03/2023	17:38:32.533	0.00000000E+0	-9.42631194E-1	4.00000000E+0	2.84706834E+0	2.48100000E+3	6.09130346E-1
105	15/03/2023	17:38:35.544	0.00000000E+0	-8.37937005E-1	4.00000000E+0	5.20939876E+0	2.44300000E+3	3.18233422E-1
107	15/03/2023	17:38:38.471	0.00000000E+0	-7.32859321E-1	4.00000000E+0	5.38964150E+0	2.48600000E+3	3.37017767E-1
109	15/03/2023	17:38:41.388	0.00000000E+0	-6.28165133E-1	4.00000000E+0	5.85443768E+0	2.49900000E+3	6.36275072E-1
111	15/03/2023	17:38:44.472	0.00000000E+0	-5.23470944E-1	4.00000000E+0	5.26040362E+0	2.51400000E+3	5.70189277E-1
113	15/03/2023	17:38:47.541	0.00000000E+0	-4.18776755E-1	4.00000000E+0	1.10408267E+0	2.50100000E+3	3.16784104E-1
115	15/03/2023	17:38:50.563	0.00000000E+0	-3.14082566E-1	4.00000000E+0	3.75556846E+0	2.51500000E+3	3.12933012E-1
117	15/03/2023	17:38:53.556	0.00000000E+0	-2.09388378E-1	4.00000000E+0	1.42506815E+0	2.46300000E+3	3.96267443E-1
119	15/03/2023	17:38:56.566	0.00000000E+0	-1.04694189E-1	4.00000000E+0	9.85582656E-2	2.49300000E+3	3.38765608E-1
121	15/03/2023	17:38:59.571	0.00000000E+0	0.00000000E+0	4.00000000E+0	2.13184980E+0	2.48400000E+3	3.33173195E-1
123	15/03/2023	17:39:02.550	0.00000000E+0	1.04694189E-1	4.00000000E+0	5.72136484E+0	2.50600000E+3	3.52886765E-1
125	15/03/2023	17:39:05.528	0.00000000E+0	2.09388378E-1	4.00000000E+0	5.59596191E+0	2.51700000E+3	3.89699762E-1
127	15/03/2023	17:39:08.514	0.00000000E+0	3.14082566E-1	4.00000000E+0	5.09435020E+0	2.50300000E+3	5.39507292E-1
129	15/03/2023	17:39:11.508	0.00000000E+0	4.18776755E-1	4.00000000E+0	5.82529204E+0	2.48800000E+3	4.10019027E-1
131	15/03/2023	17:39:14.452	0.00000000E+0	5.23470944E-1	4.00000000E+0	2.29751973E+0	2.48100000E+3	3.40627467E-1
133	15/03/2023	17:39:17.445	0.00000000E+0	6.28165133E-1	4.00000000E+0	1.48144195E+0	2.49400000E+3	3.44603957E-1
135	15/03/2023	17:39:20.506	0.00000000E+0	7.32859321E-1	4.00000000E+0	4.31738893E+0	2.49900000E+3	3.05827708E-1
137	15/03/2023	17:39:23.565	0.00000000E+0	8.37937005E-1	4.00000000E+0	5.43681141E+0	2.52300000E+3	3.58252097E-1
139	15/03/2023	17:39:26.559	0.00000000E+0	9.42631194E-1	4.00000000E+0	2.24498088E+0	2.50700000E+3	4.28876945E-1
141	15/03/2023	17:39:29.493	0.00000000E+0	1.04732538E+0	4.00000000E+0	4.60999576E+0	2.48900000E+3	3.19194142E-1
143	15/03/2023	17:39:32.477	0.00000000E+0	1.15201957E+0	4.00000000E+0	9.90568094E-1	2.48000000E+3	4.65804860E-1
145	15/03/2023	17:39:35.440	0.00000000E+0	1.25671376E+0	4.00000000E+0	5.82951049E+0	2.47400000E+3	5.12296306E-1
147	15/03/2023	17:39:38.442	0.00000000E+0	1.36140795E+0	4.00000000E+0	1.68124294E+0	2.51100000E+3	3.64531934E-1
149	15/03/2023	17:39:41.430	0.00000000E+0	1.46610214E+0	4.00000000E+0	5.68071435E+0	2.51200000E+3	3.45647143E-1
151	15/03/2023	17:39:44.429	0.00000000E+0	1.57079633E+0	4.00000000E+0	5.87859787E+0	2.48700000E+3	3.15368762E-1
153	15/03/2023	17:39:47.417	0.00000000E+0	1.67549052E+0	4.00000000E+0	1.99072357E+0	2.47400000E+3	3.64092751E-1
155	15/03/2023	17:39:50.380	0.00000000E+0	1.78018470E+0	4.00000000E+0	2.67679647E+0	2.47000000E+3	4.50723049E-1
157	15/03/2023	17:39:53.440	0.00000000E+0	1.88487889E+0	4.00000000E+0	1.62601964E-1	2.48400000E+3	5.42581835E-1
159	15/03/2023	17:39:56.459	0.00000000E+0	1.98957308E+0	4.00000000E+0	5.56988424E+0	2.49500000E+3	5.38411012E-1
161	15/03/2023	17:39:59.500	0.00000000E+0	2.09426727E+0	4.00000000E+0	2.64343239E+0	2.52200000E+3	3.82538012E-1
163	15/03/2023	17:40:02.552	0.00000000E+0	2.19896146E+0	4.00000000E+0	2.48159742E+0	2.51200000E+3	3.30278182E-1
165	15/03/2023	17:40:05.628	0.00000000E+0	2.30365565E+0	4.00000000E+0	3.72412186E+0	2.50800000E+3	3.50894186E-1
167	15/03/2023	17:40:08.570	0.00000000E+0	2.40873333E+0	4.00000000E+0	1.65363129E+0	2.49000000E+3	3.79612122E-1
169	15/03/2023	17:40:11.535	0.00000000E+0	2.51342752E+0	4.00000000E+0	4.45928215E+0	2.47800000E+3	6.31341768E-1
171	15/03/2023	17:40:14.526	0.00000000E+0	2.61812171E+0	4.00000000E+0	5.48091336E+0	2.50900000E+3	5.19506016E-1
173	15/03/2023	17:40:17.499	0.00000000E+0	2.72281590E+0	4.00000000E+0	1.11980598E+0	2.51300000E+3	3.31428304E-1
175	15/03/2023	17:40:20.478	0.00000000E+0	2.82751009E+0	4.00000000E+0	3.51128202E+0	2.49700000E+3	3.81084765E-1
177	15/03/2023	17:40:23.442	0.00000000E+0	2.93220428E+0	4.00000000E+0	6.13630665E+0	2.47000000E+3	6.04085548E-1
179	15/03/2023	17:40:26.493	0.00000000E+0	3.03689846E+0	4.00000000E+0	2.62118967E+0	2.47100000E+3	6.60320850E-1
181	15/03/2023	17:40:29.531	0.00000000E+0	3.14159265E+0	4.00000000E+0	3.13353925E+0	2.49900000E+3	6.42042105E-1
183	15/03/2023	17:40:32.446	0.00000000E+0	3.24628684E+0	4.00000000E+0	4.14098114E+0	2.51600000E+3	3.98792859E-1
185	15/03/2023	17:40:35.459	0.00000000E+0	3.35098103E+0	4.00000000E+0	5.12848127E+0	2.50100000E+3	5.46130047E-1
187	15/03/2023	17:40:38.433	0.00000000E+0	3.45567522E+0	4.00000000E+0	5.67572892E-2	2.51100000E+3	4.65568782E-1
189	15/03/2023	17:40:41.436	0.00000000E+0	3.56036941E+0	4.00000000E+0	3.94348111E+0	2.48400000E+3	4.10629788E-1
191	15/03/2023	17:40:44.340	0.00000000E+0	3.66506360E+0	4.00000000E+0	5.84753476E+0	2.48700000E+3	4.60570003E-1
193	15/03/2023	17:40:47.318	0.00000000E+0	3.76975779E+0	4.00000000E+0	2.19397602E+0	2.50500000E+3	4.80524569E-1
195	15/03/2023	17:40:50.291	0.00000000E+0	3.87445198E+0	4.00000000E+0	1.65286430E+0	2.47300000E+3	5.36850373E-1
197	15/03/2023	17:40:53.266	0.00000000E+0	3.97952966E+0	4.00000000E+0	2.17671874E+0	2.47900000E+3	4.72578733E-1
199	15/03/2023	17:40:56.286	0.00000000E+0	4.08422385E+0	4.00000000E+0	2.61773821E+0	2.49300000E+3	5.65361922E-1
201	15/03/2023	17:40:59.249	0.00000000E+0	4.18891804E+0	4.00000000E+0	2.69635473E+0	2.51600000E+3	5.91480499E-1
203	15/03/2023	17:41:02.252	0.00000000E+0	4.29361223E+0	4.00000000E+0	4.17204425E+0	2.50100000E+3	5.30637235E-1
205	15/03/2023	17:41:05.231	0.00000000E+0	4.39830641E+0	4.00000000E+0	2.51802946E+0	2.51000000E+3	6.63627429E-1
207	15/03/2023	17:41:08.268	0.00000000E+0	4.50300060E+0	4.00000000E+0	1.79705849E+0	2.51400000E+3	6.36210853E-1
209	15/03/2023	17:41:11.245	0.00000000E+0	4.60769479E+0	4.00000000E+0	2.41410226E+0	2.49600000E+3	5.63749297E-1
211	15/03/2023	17:41:14.244	0.00000000E+0	4.71238898E+0	4.00000000E+0	4.40981127E+0	2.48100000E+3	5.84678040E-1
213	15/03/2023	17:41:17.173	0.00000000E+0	4.81708317E+0	4.00000000E+0	1.91018958E+0	2.47200000E+3	5.41793150E-1
215	15/03/2023	17:41:20.136	0.00000000E+0	4.92177736E+0	4.00000000E+0	4.59120450E+0	2.51000000E+3	5.05917893E-1
217	15/03/2023	17:41:23.100	0.00000000E+0	5.02647155E+0	4.00000000E+0	1.07186908E+0	2.51300000E+3	6.05076260E-1
219	15/03/2023	17:41:26.082	0.00000000E+0	5.13116574E+0	4.00000000E+0	4.34461709E+0	2.50400000E+3	5.98785449E-1
221	15/03/2023	17:41:29.046	0.00000000E+0	5.23585992E+0	4.00000000E+0	3.98950053E+0	2.49300000E+3	5.78781642E-1
223	15/03/2023	17:41:32.027	0.00000000E+0	5.34055411E+0	4.00000000E+0	6.69966109E-1	2.48500000E+3	4.39280338E-1
225	15/03/2023	17:41:35.023	0.00000000E+0	5.44524830E+0	4.00000000E+0	4.80634530E+0	2.47200000E+3	3.40757599E-1
227	15/03/2023	17:41:38.008	0.00000000E+0	5.55032599E+0	4.00000000E+0	1.36485941E+0	2.49800000E+3	4.78297408E-1
229	15/03/2023	17:41:40.993	0.00000000E+0	5.65502017E+0	4.00000000E+0	3.98068014E-1	2.50900000E+3	3.79786404E-1
231	15/03/2023	17:41:43.959	0.00000000E+0	5.75971436E+0	4.00000000E+0	5.10853952E+0	2.51600000E+3	4.98982135E-1
233	15/03/2023	17:41:46.968	0.00000000E+0	5.86440855E+0	4.00000000E+0	2.96825282E+0	2.49200000E+3	5.44931582E-1
235	15/03/2023	17:41:49.928	0.00000000E+0	5.96910274E+0	4.00000000E+0	3.81846168E+0	2.47000000E+3	3.40752505E-1
237	15/03/2023	17:41:52.883	0.00000000E+0	6.07379693E+0	4.00000000E+0	1.08145646E-1	2.47100000E+3	3.52021155E-1
239	15/03/2023	17:41:55.921	0.00000000E+0	6.17849112E+0	4.00000000E+0	3.78279662E+0	2.49700000E+3	3.09872932E-1
241	15/03/2023	17:41:58.918	0.00000000E+0	6.28318531E+0	4.00000000E+0	4.15133551E+0	2.51100000E+3	6.45825628E-1
