#Iteration	Date	Time	STSX	STSY	RotationRateX	RotationRateY	FrCntX	FrCntY	TiptiltCmd1	TiptiltCmd2	TiptiltMonitor1	TiptiltMonitor2
1	02/09/2022	16:52:17.747	0.00000E+0	0.00000E+0	1.00000E+2	0.00000E+0	0.00000E+0	0.00000E+0	2.00000E+1	1.40000E+1	2.00009E+1	1.39998E+1
2	02/09/2022	16:52:19.255	0.00000E+0	0.00000E+0	1.00000E+2	0.00000E+0	0.00000E+0	0.00000E+0	2.00000E+1	1.40000E+1	1.99989E+1	1.40013E+1
3	02/09/2022	16:52:20.653	0.00000E+0	0.00000E+0	1.00000E+2	0.00000E+0	0.00000E+0	0.00000E+0	2.00000E+1	1.40000E+1	1.99986E+1	1.40002E+1
4	02/09/2022	16:52:22.145	0.00000E+0	0.00000E+0	1.00000E+2	0.00000E+0	0.00000E+0	0.00000E+0	2.00000E+1	1.40000E+1	2.00008E+1	1.40012E+1
5	02/09/2022	16:52:23.554	0.00000E+0	0.00000E+0	1.00000E+2	0.00000E+0	0.00000E+0	0.00000E+0	2.00000E+1	1.40000E+1	2.00013E+1	1.40012E+1
6	02/09/2022	16:52:24.920	0.00000E+0	0.00000E+0	1.00000E+2	0.00000E+0	0.00000E+0	0.00000E+0	2.00000E+1	1.40000E+1	1.99988E+1	1.40001E+1
7	02/09/2022	16:52:26.472	0.00000E+0	0.00000E+0	1.00000E+2	0.00000E+0	0.00000E+0	0.00000E+0	2.00000E+1	1.40000E+1	1.99991E+1	1.40010E+1
8	02/09/2022	16:52:27.873	0.00000E+0	0.00000E+0	1.00000E+2	0.00000E+0	0.00000E+0	0.00000E+0	2.00000E+1	1.40000E+1	2.00007E+1	1.40000E+1
9	02/09/2022	16:52:29.332	0.00000E+0	0.00000E+0	1.00000E+2	0.00000E+0	0.00000E+0	0.00000E+0	2.00000E+1	1.40000E+1	2.00009E+1	1.40005E+1
10	02/09/2022	16:52:30.819	0.00000E+0	0.00000E+0	1.00000E+2	0.00000E+0	0.00000E+0	0.00000E+0	2.00000E+1	1.40000E+1	2.00017E+1	1.40012E+1
11	02/09/2022	16:52:32.206	0.00000E+0	0.00000E+0	1.00000E+2	0.00000E+0	0.00000E+0	0.00000E+0	2.00000E+1	1.40000E+1	1.99989E+1	1.39989E+1
12	02/09/2022	16:52:33.718	0.00000E+0	0.00000E+0	1.00000E+2	0.00000E+0	0.00000E+0	0.00000E+0	2.00000E+1	1.40000E+1	2.00014E+1	1.40020E+1
13	02/09/2022	16:52:35.114	0.00000E+0	0.00000E+0	1.00000E+2	0.00000E+0	0.00000E+0	0.00000E+0	2.00000E+1	1.40000E+1	1.99985E+1	1.40002E+1
14	02/09/2022	16:52:36.512	0.00000E+0	0.00000E+0	1.00000E+2	0.00000E+0	0.00000E+0	0.00000E+0	2.00000E+1	1.40000E+1	2.00012E+1	1.40004E+1
15	02/09/2022	16:52:37.977	0.00000E+0	0.00000E+0	1.00000E+2	0.00000E+0	0.00000E+0	0.00000E+0	2.00000E+1	1.40000E+1	2.00007E+1	1.40012E+1
16	02/09/2022	16:52:39.374	0.00000E+0	0.00000E+0	1.00000E+2	0.00000E+0	0.00000E+0	0.00000E+0	2.00000E+1	1.40000E+1	1.99993E+1	1.40011E+1
17	02/09/2022	16:52:40.854	0.00000E+0	0.00000E+0	1.00000E+2	0.00000E+0	0.00000E+0	0.00000E+0	2.00000E+1	1.40000E+1	2.00000E+1	1.40001E+1
18	02/09/2022	16:52:42.299	0.00000E+0	0.00000E+0	1.00000E+2	0.00000E+0	0.00000E+0	0.00000E+0	2.00000E+1	1.40000E+1	2.00020E+1	1.40008E+1
19	02/09/2022	16:52:43.693	0.00000E+0	0.00000E+0	1.00000E+2	0.00000E+0	0.00000E+0	0.00000E+0	2.00000E+1	1.40000E+1	2.00003E+1	1.39972E+1
20	02/09/2022	16:52:45.209	0.00000E+0	0.00000E+0	1.00000E+2	0.00000E+0	0.00000E+0	0.00000E+0	2.00000E+1	1.40000E+1	2.00004E+1	1.39985E+1
21	02/09/2022	16:52:46.584	0.00000E+0	0.00000E+0	1.00000E+2	0.00000E+0	0.00000E+0	0.00000E+0	2.00000E+1	1.40000E+1	2.00019E+1	1.40017E+1
22	02/09/2022	16:52:47.985	0.00000E+0	0.00000E+0	1.00000E+2	0.00000E+0	0.00000E+0	0.00000E+0	2.00000E+1	1.40000E+1	2.00014E+1	1.39989E+1
23	02/09/2022	16:52:49.510	0.00000E+0	0.00000E+0	1.00000E+2	0.00000E+0	0.00000E+0	0.00000E+0	2.00000E+1	1.40000E+1	1.99999E+1	1.40002E+1
24	02/09/2022	16:52:50.894	0.00000E+0	0.00000E+0	1.00000E+2	0.00000E+0	0.00000E+0	0.00000E+0	2.00000E+1	1.40000E+1	1.99999E+1	1.40017E+1
25	02/09/2022	16:52:52.428	0.00000E+0	0.00000E+0	1.00000E+2	0.00000E+0	0.00000E+0	0.00000E+0	2.00000E+1	1.40000E+1	1.99992E+1	1.39995E+1
26	02/09/2022	16:52:53.805	0.00000E+0	0.00000E+0	1.00000E+2	0.00000E+0	0.00000E+0	0.00000E+0	2.00000E+1	1.40000E+1	2.00005E+1	1.40010E+1
27	02/09/2022	16:52:55.197	0.00000E+0	0.00000E+0	1.00000E+2	0.00000E+0	0.00000E+0	0.00000E+0	2.00000E+1	1.40000E+1	2.00007E+1	1.40006E+1
28	02/09/2022	16:52:56.708	0.00000E+0	0.00000E+0	1.00000E+2	0.00000E+0	0.00000E+0	0.00000E+0	2.00000E+1	1.40000E+1	2.00000E+1	1.39992E+1
29	02/09/2022	16:52:58.104	0.00000E+0	0.00000E+0	1.00000E+2	0.00000E+0	0.00000E+0	0.00000E+0	2.00000E+1	1.40000E+1	2.00002E+1	1.39978E+1
30	02/09/2022	16:52:59.541	0.00000E+0	0.00000E+0	1.00000E+2	0.00000E+0	0.00000E+0	0.00000E+0	2.00000E+1	1.40000E+1	1.99994E+1	1.40021E+1
31	02/09/2022	16:53:01.038	0.00000E+0	0.00000E+0	1.00000E+2	0.00000E+0	0.00000E+0	0.00000E+0	2.00000E+1	1.40000E+1	1.99986E+1	1.40020E+1
32	02/09/2022	16:53:02.427	0.00000E+0	0.00000E+0	1.00000E+2	0.00000E+0	0.00000E+0	0.00000E+0	2.00000E+1	1.40000E+1	2.00037E+1	1.39999E+1
33	02/09/2022	16:53:03.959	0.00000E+0	0.00000E+0	1.00000E+2	0.00000E+0	0.00000E+0	0.00000E+0	2.00000E+1	1.40000E+1	2.00020E+1	1.39996E+1
34	02/09/2022	16:53:05.338	0.00000E+0	0.00000E+0	1.00000E+2	0.00000E+0	0.00000E+0	0.00000E+0	2.00000E+1	1.40000E+1	1.99992E+1	1.39994E+1
35	02/09/2022	16:53:06.724	0.00000E+0	0.00000E+0	1.00000E+2	0.00000E+0	0.00000E+0	0.00000E+0	2.00000E+1	1.40000E+1	1.99971E+1	1.39998E+1
36	02/09/2022	16:53:08.307	0.00000E+0	0.00000E+0	1.00000E+2	0.00000E+0	0.00000E+0	0.00000E+0	2.00000E+1	1.40000E+1	2.00000E+1	1.39999E+1
37	02/09/2022	16:53:09.700	0.00000E+0	0.00000E+0	1.00000E+2	0.00000E+0	0.00000E+0	0.00000E+0	2.00000E+1	1.40000E+1	1.99980E+1	1.40020E+1
38	02/09/2022	16:53:11.207	0.00000E+0	0.00000E+0	1.00000E+2	0.00000E+0	0.00000E+0	0.00000E+0	2.00000E+1	1.40000E+1	2.00034E+1	1.39996E+1
39	02/09/2022	16:53:12.700	0.00000E+0	0.00000E+0	1.00000E+2	0.00000E+0	0.00000E+0	0.00000E+0	2.00000E+1	1.40000E+1	1.99998E+1	1.40001E+1
40	02/09/2022	16:53:14.088	0.00000E+0	0.00000E+0	1.00000E+2	0.00000E+0	0.00000E+0	0.00000E+0	2.00000E+1	1.40000E+1	2.00005E+1	1.39994E+1
41	02/09/2022	16:53:15.605	0.00000E+0	0.00000E+0	1.00000E+2	0.00000E+0	0.00000E+0	0.00000E+0	2.00000E+1	1.40000E+1	1.99998E+1	1.39998E+1
42	02/09/2022	16:53:16.986	0.00000E+0	0.00000E+0	1.00000E+2	0.00000E+0	0.00000E+0	0.00000E+0	2.00000E+1	1.40000E+1	1.99998E+1	1.40016E+1
43	02/09/2022	16:53:18.416	0.00000E+0	0.00000E+0	1.00000E+2	0.00000E+0	0.00000E+0	0.00000E+0	2.00000E+1	1.40000E+1	2.00007E+1	1.39991E+1
44	02/09/2022	16:53:19.925	0.00000E+0	0.00000E+0	1.00000E+2	0.00000E+0	0.00000E+0	0.00000E+0	2.00000E+1	1.40000E+1	1.99995E+1	1.40001E+1
45	02/09/2022	16:53:21.294	0.00000E+0	0.00000E+0	1.00000E+2	0.00000E+0	0.00000E+0	0.00000E+0	2.00000E+1	1.40000E+1	2.00030E+1	1.40006E+1
46	02/09/2022	16:53:22.760	0.00000E+0	0.00000E+0	1.00000E+2	0.00000E+0	0.00000E+0	0.00000E+0	2.00000E+1	1.40000E+1	2.00011E+1	1.39997E+1
47	02/09/2022	16:53:24.168	0.00000E+0	0.00000E+0	1.00000E+2	0.00000E+0	0.00000E+0	0.00000E+0	2.00000E+1	1.40000E+1	2.00006E+1	1.39993E+1
48	02/09/2022	16:53:25.534	0.00000E+0	0.00000E+0	1.00000E+2	0.00000E+0	0.00000E+0	0.00000E+0	2.00000E+1	1.40000E+1	2.00014E+1	1.39996E+1
49	02/09/2022	16:53:27.113	0.00000E+0	0.00000E+0	1.00000E+2	0.00000E+0	0.00000E+0	0.00000E+0	2.00000E+1	1.40000E+1	2.00000E+1	1.40008E+1
50	02/09/2022	16:53:28.510	0.00000E+0	0.00000E+0	1.00000E+2	0.00000E+0	0.00000E+0	0.00000E+0	2.00000E+1	1.40000E+1	2.00013E+1	1.40005E+1
51	02/09/2022	16:53:29.897	0.00000E+0	0.00000E+0	1.00000E+2	0.00000E+0	0.00000E+0	0.00000E+0	2.00000E+1	1.40000E+1	2.00021E+1	1.39993E+1
52	02/09/2022	16:53:31.254	0.00000E+0	0.00000E+0	1.00000E+2	0.00000E+0	0.00000E+0	0.00000E+0	2.00000E+1	1.40000E+1	1.99991E+1	1.39998E+1
53	02/09/2022	16:53:32.639	0.00000E+0	0.00000E+0	1.00000E+2	0.00000E+0	0.00000E+0	0.00000E+0	2.00000E+1	1.40000E+1	2.00016E+1	1.39992E+1
54	02/09/2022	16:53:34.136	0.00000E+0	0.00000E+0	1.00000E+2	0.00000E+0	0.00000E+0	0.00000E+0	2.00000E+1	1.40000E+1	2.00012E+1	1.39996E+1
55	02/09/2022	16:53:35.557	0.00000E+0	0.00000E+0	1.00000E+2	0.00000E+0	0.00000E+0	0.00000E+0	2.00000E+1	1.40000E+1	1.99976E+1	1.40009E+1
56	02/09/2022	16:53:36.998	0.00000E+0	0.00000E+0	1.00000E+2	0.00000E+0	0.00000E+0	0.00000E+0	2.00000E+1	1.40000E+1	2.00001E+1	1.40010E+1
57	02/09/2022	16:53:38.513	0.00000E+0	0.00000E+0	1.00000E+2	0.00000E+0	0.00000E+0	0.00000E+0	2.00000E+1	1.40000E+1	2.00002E+1	1.39995E+1
58	02/09/2022	16:53:39.897	0.00000E+0	0.00000E+0	1.00000E+2	0.00000E+0	0.00000E+0	0.00000E+0	2.00000E+1	1.40000E+1	1.99986E+1	1.39991E+1
59	02/09/2022	16:53:41.424	0.00000E+0	0.00000E+0	1.00000E+2	0.00000E+0	0.00000E+0	0.00000E+0	2.00000E+1	1.40000E+1	1.99984E+1	1.40004E+1
60	02/09/2022	16:53:42.828	0.00000E+0	0.00000E+0	1.00000E+2	0.00000E+0	0.00000E+0	0.00000E+0	2.00000E+1	1.40000E+1	1.99994E+1	1.40008E+1
61	02/09/2022	16:53:44.217	0.00000E+0	0.00000E+0	1.00000E+2	0.00000E+0	0.00000E+0	0.00000E+0	2.00000E+1	1.40000E+1	1.99987E+1	1.39991E+1
62	02/09/2022	16:53:45.784	0.00000E+0	0.00000E+0	1.00000E+2	0.00000E+0	0.00000E+0	0.00000E+0	2.00000E+1	1.40000E+1	1.99997E+1	1.40013E+1
63	02/09/2022	16:53:47.170	0.00000E+0	0.00000E+0	1.00000E+2	0.00000E+0	0.00000E+0	0.00000E+0	2.00000E+1	1.40000E+1	2.00004E+1	1.39989E+1
64	02/09/2022	16:53:48.587	0.00000E+0	0.00000E+0	1.00000E+2	0.00000E+0	0.00000E+0	0.00000E+0	2.00000E+1	1.40000E+1	2.00007E+1	1.39986E+1
65	02/09/2022	16:53:50.105	0.00000E+0	0.00000E+0	1.00000E+2	0.00000E+0	0.00000E+0	0.00000E+0	2.00000E+1	1.40000E+1	1.99999E+1	1.39999E+1
66	02/09/2022	16:53:51.467	0.00000E+0	0.00000E+0	1.00000E+2	0.00000E+0	0.00000E+0	0.00000E+0	2.00000E+1	1.40000E+1	2.00005E+1	1.40000E+1
67	02/09/2022	16:53:52.972	0.00000E+0	0.00000E+0	1.00000E+2	0.00000E+0	0.00000E+0	0.00000E+0	2.00000E+1	1.40000E+1	1.99984E+1	1.39998E+1
68	02/09/2022	16:53:54.348	0.00000E+0	0.00000E+0	1.00000E+2	0.00000E+0	0.00000E+0	0.00000E+0	2.00000E+1	1.40000E+1	1.99998E+1	1.40002E+1
69	02/09/2022	16:53:55.743	0.00000E+0	0.00000E+0	1.00000E+2	0.00000E+0	0.00000E+0	0.00000E+0	2.00000E+1	1.40000E+1	2.00000E+1	1.39997E+1
70	02/09/2022	16:53:57.250	0.00000E+0	0.00000E+0	1.00000E+2	0.00000E+0	0.00000E+0	0.00000E+0	2.00000E+1	1.40000E+1	1.99976E+1	1.39999E+1
71	02/09/2022	16:53:58.621	0.00000E+0	0.00000E+0	1.00000E+2	0.00000E+0	0.00000E+0	0.00000E+0	2.00000E+1	1.40000E+1	2.00006E+1	1.40022E+1
72	02/09/2022	16:54:00.100	0.00000E+0	0.00000E+0	1.00000E+2	0.00000E+0	0.00000E+0	0.00000E+0	2.00000E+1	1.40000E+1	2.00013E+1	1.39988E+1
73	02/09/2022	16:54:01.579	0.00000E+0	0.00000E+0	1.00000E+2	0.00000E+0	0.00000E+0	0.00000E+0	2.00000E+1	1.40000E+1	2.00006E+1	1.40006E+1
74	02/09/2022	16:54:02.969	0.00000E+0	0.00000E+0	1.00000E+2	0.00000E+0	0.00000E+0	0.00000E+0	2.00000E+1	1.40000E+1	1.99980E+1	1.39992E+1
75	02/09/2022	16:54:04.440	0.00000E+0	0.00000E+0	1.00000E+2	0.00000E+0	0.00000E+0	0.00000E+0	2.00000E+1	1.40000E+1	2.00014E+1	1.40017E+1
76	02/09/2022	16:54:05.835	0.00000E+0	0.00000E+0	1.00000E+2	0.00000E+0	0.00000E+0	0.00000E+0	2.00000E+1	1.40000E+1	2.00024E+1	1.39999E+1
77	02/09/2022	16:54:07.310	0.00000E+0	0.00000E+0	1.00000E+2	0.00000E+0	0.00000E+0	0.00000E+0	2.00000E+1	1.40000E+1	2.00014E+1	1.39988E+1
78	02/09/2022	16:54:08.799	0.00000E+0	0.00000E+0	1.00000E+2	0.00000E+0	0.00000E+0	0.00000E+0	2.00000E+1	1.40000E+1	1.99990E+1	1.40011E+1
79	02/09/2022	16:54:10.183	0.00000E+0	0.00000E+0	1.00000E+2	0.00000E+0	0.00000E+0	0.00000E+0	2.00000E+1	1.40000E+1	1.99976E+1	1.39990E+1
80	02/09/2022	16:54:11.749	0.00000E+0	0.00000E+0	1.00000E+2	0.00000E+0	0.00000E+0	0.00000E+0	2.00000E+1	1.40000E+1	2.00021E+1	1.40006E+1
81	02/09/2022	16:54:13.157	0.00000E+0	0.00000E+0	1.00000E+2	0.00000E+0	0.00000E+0	0.00000E+0	2.00000E+1	1.40000E+1	2.00004E+1	1.40025E+1
82	02/09/2022	16:54:14.541	0.00000E+0	0.00000E+0	1.00000E+2	0.00000E+0	0.00000E+0	0.00000E+0	2.00000E+1	1.40000E+1	1.99996E+1	1.39978E+1
83	02/09/2022	16:54:16.097	0.00000E+0	0.00000E+0	1.00000E+2	0.00000E+0	0.00000E+0	0.00000E+0	2.00000E+1	1.40000E+1	2.00026E+1	1.40006E+1
84	02/09/2022	16:54:17.465	0.00000E+0	0.00000E+0	1.00000E+2	0.00000E+0	0.00000E+0	0.00000E+0	2.00000E+1	1.40000E+1	1.99993E+1	1.39984E+1
85	02/09/2022	16:54:18.886	0.00000E+0	0.00000E+0	1.00000E+2	0.00000E+0	0.00000E+0	0.00000E+0	2.00000E+1	1.40000E+1	1.99968E+1	1.39998E+1
86	02/09/2022	16:54:20.414	0.00000E+0	0.00000E+0	1.00000E+2	0.00000E+0	0.00000E+0	0.00000E+0	2.00000E+1	1.40000E+1	1.99996E+1	1.40014E+1
87	02/09/2022	16:54:21.798	0.00000E+0	0.00000E+0	1.00000E+2	0.00000E+0	0.00000E+0	0.00000E+0	2.00000E+1	1.40000E+1	2.00000E+1	1.40001E+1
88	02/09/2022	16:54:23.287	0.00000E+0	0.00000E+0	1.00000E+2	0.00000E+0	0.00000E+0	0.00000E+0	2.00000E+1	1.40000E+1	2.00001E+1	1.40002E+1
89	02/09/2022	16:54:24.681	0.00000E+0	0.00000E+0	1.00000E+2	0.00000E+0	0.00000E+0	0.00000E+0	2.00000E+1	1.40000E+1	1.99994E+1	1.40009E+1
90	02/09/2022	16:54:26.129	0.00000E+0	0.00000E+0	1.00000E+2	0.00000E+0	0.00000E+0	0.00000E+0	2.00000E+1	1.40000E+1	2.00001E+1	1.40009E+1
91	02/09/2022	16:54:27.643	0.00000E+0	0.00000E+0	1.00000E+2	0.00000E+0	0.00000E+0	0.00000E+0	2.00000E+1	1.40000E+1	1.99998E+1	1.39977E+1
92	02/09/2022	16:54:29.045	0.00000E+0	0.00000E+0	1.00000E+2	0.00000E+0	0.00000E+0	0.00000E+0	2.00000E+1	1.40000E+1	1.99998E+1	1.40017E+1
93	02/09/2022	16:54:30.541	0.00000E+0	0.00000E+0	1.00000E+2	0.00000E+0	0.00000E+0	0.00000E+0	2.00000E+1	1.40000E+1	1.99994E+1	1.40008E+1
94	02/09/2022	16:54:31.964	0.00000E+0	0.00000E+0	1.00000E+2	0.00000E+0	0.00000E+0	0.00000E+0	2.00000E+1	1.40000E+1	1.99997E+1	1.40018E+1
95	02/09/2022	16:54:33.351	0.00000E+0	0.00000E+0	1.00000E+2	0.00000E+0	0.00000E+0	0.00000E+0	2.00000E+1	1.40000E+1	1.99993E+1	1.40022E+1
96	02/09/2022	16:54:34.891	0.00000E+0	0.00000E+0	1.00000E+2	0.00000E+0	0.00000E+0	0.00000E+0	2.00000E+1	1.40000E+1	2.00008E+1	1.39999E+1
97	02/09/2022	16:54:36.287	0.00000E+0	0.00000E+0	1.00000E+2	0.00000E+0	0.00000E+0	0.00000E+0	2.00000E+1	1.40000E+1	1.99989E+1	1.40013E+1
98	02/09/2022	16:54:37.743	0.00000E+0	0.00000E+0	1.00000E+2	0.00000E+0	0.00000E+0	0.00000E+0	2.00000E+1	1.40000E+1	1.99991E+1	1.40002E+1
99	02/09/2022	16:54:39.247	0.00000E+0	0.00000E+0	1.00000E+2	0.00000E+0	0.00000E+0	0.00000E+0	2.00000E+1	1.40000E+1	1.99994E+1	1.40014E+1
100	02/09/2022	16:54:40.638	0.00000E+0	0.00000E+0	1.00000E+2	0.00000E+0	0.00000E+0	0.00000E+0	2.00000E+1	1.40000E+1	1.99997E+1	1.39998E+1
101	02/09/2022	16:54:42.116	0.00000E+0	0.00000E+0	1.00000E+2	0.00000E+0	0.00000E+0	0.00000E+0	2.00000E+1	1.40000E+1	2.00015E+1	1.39996E+1
102	02/09/2022	16:54:43.507	0.00000E+0	0.00000E+0	1.00000E+2	0.00000E+0	0.00000E+0	0.00000E+0	2.00000E+1	1.40000E+1	1.99996E+1	1.39960E+1
103	02/09/2022	16:54:44.875	0.00000E+0	0.00000E+0	1.00000E+2	0.00000E+0	0.00000E+0	0.00000E+0	2.00000E+1	1.40000E+1	2.00015E+1	1.39982E+1
104	02/09/2022	16:54:46.447	0.00000E+0	0.00000E+0	1.00000E+2	0.00000E+0	0.00000E+0	0.00000E+0	2.00000E+1	1.40000E+1	2.00006E+1	1.39993E+1
105	02/09/2022	16:54:47.818	0.00000E+0	0.00000E+0	1.00000E+2	0.00000E+0	0.00000E+0	0.00000E+0	2.00000E+1	1.40000E+1	1.99986E+1	1.39984E+1
106	02/09/2022	16:54:49.251	0.00000E+0	0.00000E+0	1.00000E+2	0.00000E+0	0.00000E+0	0.00000E+0	2.00000E+1	1.40000E+1	1.99990E+1	1.39979E+1
107	02/09/2022	16:54:50.653	0.00000E+0	0.00000E+0	1.00000E+2	0.00000E+0	0.00000E+0	0.00000E+0	2.00000E+1	1.40000E+1	1.99994E+1	1.39987E+1
108	02/09/2022	16:54:52.023	0.00000E+0	0.00000E+0	1.00000E+2	0.00000E+0	0.00000E+0	0.00000E+0	2.00000E+1	1.40000E+1	1.99983E+1	1.40004E+1
109	02/09/2022	16:54:53.530	0.00000E+0	0.00000E+0	1.00000E+2	0.00000E+0	0.00000E+0	0.00000E+0	2.00000E+1	1.40000E+1	2.00012E+1	1.39989E+1
110	02/09/2022	16:54:54.920	0.00000E+0	0.00000E+0	1.00000E+2	0.00000E+0	0.00000E+0	0.00000E+0	2.00000E+1	1.40000E+1	1.99997E+1	1.40000E+1
111	02/09/2022	16:54:56.289	0.00000E+0	0.00000E+0	1.00000E+2	0.00000E+0	0.00000E+0	0.00000E+0	2.00000E+1	1.40000E+1	2.00022E+1	1.40008E+1
112	02/09/2022	16:54:57.875	0.00000E+0	0.00000E+0	1.00000E+2	0.00000E+0	0.00000E+0	0.00000E+0	2.00000E+1	1.40000E+1	2.00001E+1	1.40001E+1
113	02/09/2022	16:54:59.252	0.00000E+0	0.00000E+0	1.00000E+2	0.00000E+0	0.00000E+0	0.00000E+0	2.00000E+1	1.40000E+1	1.99984E+1	1.39985E+1
114	02/09/2022	16:55:00.763	0.00000E+0	0.00000E+0	1.00000E+2	0.00000E+0	0.00000E+0	0.00000E+0	2.00000E+1	1.40000E+1	1.99991E+1	1.40010E+1
115	02/09/2022	16:55:02.148	0.00000E+0	0.00000E+0	1.00000E+2	0.00000E+0	0.00000E+0	0.00000E+0	2.00000E+1	1.40000E+1	2.00006E+1	1.40005E+1
116	02/09/2022	16:55:03.536	0.00000E+0	0.00000E+0	1.00000E+2	0.00000E+0	0.00000E+0	0.00000E+0	2.00000E+1	1.40000E+1	2.00021E+1	1.40003E+1
117	02/09/2022	16:55:05.015	0.00000E+0	0.00000E+0	1.00000E+2	0.00000E+0	0.00000E+0	0.00000E+0	2.00000E+1	1.40000E+1	2.00013E+1	1.40019E+1
118	02/09/2022	16:55:06.393	0.00000E+0	0.00000E+0	1.00000E+2	0.00000E+0	0.00000E+0	0.00000E+0	2.00000E+1	1.40000E+1	1.99991E+1	1.40009E+1
119	02/09/2022	16:55:07.808	0.00000E+0	0.00000E+0	1.00000E+2	0.00000E+0	0.00000E+0	0.00000E+0	2.00000E+1	1.40000E+1	2.00029E+1	1.39997E+1
120	02/09/2022	16:55:09.294	0.00000E+0	0.00000E+0	1.00000E+2	0.00000E+0	0.00000E+0	0.00000E+0	2.00000E+1	1.40000E+1	2.00004E+1	1.39992E+1
121	02/09/2022	16:55:10.693	0.00000E+0	0.00000E+0	1.00000E+2	0.00000E+0	0.00000E+0	0.00000E+0	2.00000E+1	1.40000E+1	1.99986E+1	1.40009E+1
122	02/09/2022	16:55:12.223	0.00000E+0	0.00000E+0	1.00000E+2	0.00000E+0	0.00000E+0	0.00000E+0	2.00000E+1	1.40000E+1	1.99975E+1	1.40015E+1
123	02/09/2022	16:55:13.599	0.00000E+0	0.00000E+0	1.00000E+2	0.00000E+0	0.00000E+0	0.00000E+0	2.00000E+1	1.40000E+1	1.99990E+1	1.40004E+1
124	02/09/2022	16:55:14.987	0.00000E+0	0.00000E+0	1.00000E+2	0.00000E+0	0.00000E+0	0.00000E+0	2.00000E+1	1.40000E+1	1.99993E+1	1.39984E+1
125	02/09/2022	16:55:16.506	0.00000E+0	0.00000E+0	1.00000E+2	0.00000E+0	0.00000E+0	0.00000E+0	2.00000E+1	1.40000E+1	2.00002E+1	1.39980E+1
126	02/09/2022	16:55:17.881	0.00000E+0	0.00000E+0	1.00000E+2	0.00000E+0	0.00000E+0	0.00000E+0	2.00000E+1	1.40000E+1	2.00005E+1	1.39984E+1
127	02/09/2022	16:55:19.417	0.00000E+0	0.00000E+0	1.00000E+2	0.00000E+0	0.00000E+0	0.00000E+0	2.00000E+1	1.40000E+1	1.99984E+1	1.40017E+1
128	02/09/2022	16:55:20.860	0.00000E+0	0.00000E+0	1.00000E+2	0.00000E+0	0.00000E+0	0.00000E+0	2.00000E+1	1.40000E+1	2.00000E+1	1.39985E+1
129	02/09/2022	16:55:22.222	0.00000E+0	0.00000E+0	1.00000E+2	0.00000E+0	0.00000E+0	0.00000E+0	2.00000E+1	1.40000E+1	2.00020E+1	1.40004E+1
130	02/09/2022	16:55:23.756	0.00000E+0	0.00000E+0	1.00000E+2	0.00000E+0	0.00000E+0	0.00000E+0	2.00000E+1	1.40000E+1	2.00016E+1	1.40002E+1
131	02/09/2022	16:55:25.146	0.00000E+0	0.00000E+0	1.00000E+2	0.00000E+0	0.00000E+0	0.00000E+0	2.00000E+1	1.40000E+1	1.99991E+1	1.40021E+1
132	02/09/2022	16:55:26.540	0.00000E+0	0.00000E+0	1.00000E+2	0.00000E+0	0.00000E+0	0.00000E+0	2.00000E+1	1.40000E+1	1.99970E+1	1.40000E+1
133	02/09/2022	16:55:28.034	0.00000E+0	0.00000E+0	1.00000E+2	0.00000E+0	0.00000E+0	0.00000E+0	2.00000E+1	1.40000E+1	2.00003E+1	1.40004E+1
134	02/09/2022	16:55:29.436	0.00000E+0	0.00000E+0	1.00000E+2	0.00000E+0	0.00000E+0	0.00000E+0	2.00000E+1	1.40000E+1	1.99998E+1	1.40003E+1
135	02/09/2022	16:55:30.942	0.00000E+0	0.00000E+0	1.00000E+2	0.00000E+0	0.00000E+0	0.00000E+0	2.00000E+1	1.40000E+1	2.00025E+1	1.40001E+1
136	02/09/2022	16:55:32.322	0.00000E+0	0.00000E+0	1.00000E+2	0.00000E+0	0.00000E+0	0.00000E+0	2.00000E+1	1.40000E+1	2.00012E+1	1.39978E+1
137	02/09/2022	16:55:33.711	0.00000E+0	0.00000E+0	1.00000E+2	0.00000E+0	0.00000E+0	0.00000E+0	2.00000E+1	1.40000E+1	1.99981E+1	1.40002E+1
138	02/09/2022	16:55:35.212	0.00000E+0	0.00000E+0	1.00000E+2	0.00000E+0	0.00000E+0	0.00000E+0	2.00000E+1	1.40000E+1	2.00019E+1	1.39996E+1
139	02/09/2022	16:55:36.603	0.00000E+0	0.00000E+0	1.00000E+2	0.00000E+0	0.00000E+0	0.00000E+0	2.00000E+1	1.40000E+1	2.00008E+1	1.40010E+1
140	02/09/2022	16:55:38.005	0.00000E+0	0.00000E+0	1.00000E+2	0.00000E+0	0.00000E+0	0.00000E+0	2.00000E+1	1.40000E+1	2.00016E+1	1.39998E+1
141	02/09/2022	16:55:39.479	0.00000E+0	0.00000E+0	1.00000E+2	0.00000E+0	0.00000E+0	0.00000E+0	2.00000E+1	1.40000E+1	1.99990E+1	1.39976E+1
142	02/09/2022	16:55:40.873	0.00000E+0	0.00000E+0	1.00000E+2	0.00000E+0	0.00000E+0	0.00000E+0	2.00000E+1	1.40000E+1	2.00009E+1	1.40015E+1
143	02/09/2022	16:55:42.353	0.00000E+0	0.00000E+0	1.00000E+2	0.00000E+0	0.00000E+0	0.00000E+0	2.00000E+1	1.40000E+1	2.00003E+1	1.39985E+1
144	02/09/2022	16:55:43.729	0.00000E+0	0.00000E+0	1.00000E+2	0.00000E+0	0.00000E+0	0.00000E+0	2.00000E+1	1.40000E+1	1.99993E+1	1.39995E+1
145	02/09/2022	16:55:45.176	0.00000E+0	0.00000E+0	1.00000E+2	0.00000E+0	0.00000E+0	0.00000E+0	2.00000E+1	1.40000E+1	2.00010E+1	1.39987E+1
146	02/09/2022	16:55:46.698	0.00000E+0	0.00000E+0	1.00000E+2	0.00000E+0	0.00000E+0	0.00000E+0	2.00000E+1	1.40000E+1	1.99990E+1	1.39995E+1
147	02/09/2022	16:55:48.075	0.00000E+0	0.00000E+0	1.00000E+2	0.00000E+0	0.00000E+0	0.00000E+0	2.00000E+1	1.40000E+1	1.99999E+1	1.40005E+1
148	02/09/2022	16:55:49.567	0.00000E+0	0.00000E+0	1.00000E+2	0.00000E+0	0.00000E+0	0.00000E+0	2.00000E+1	1.40000E+1	1.99981E+1	1.39980E+1
149	02/09/2022	16:55:50.950	0.00000E+0	0.00000E+0	1.00000E+2	0.00000E+0	0.00000E+0	0.00000E+0	2.00000E+1	1.40000E+1	1.99989E+1	1.40036E+1
150	02/09/2022	16:55:52.339	0.00000E+0	0.00000E+0	1.00000E+2	0.00000E+0	0.00000E+0	0.00000E+0	2.00000E+1	1.40000E+1	1.99999E+1	1.39988E+1
151	02/09/2022	16:55:53.838	0.00000E+0	0.00000E+0	1.00000E+2	0.00000E+0	0.00000E+0	0.00000E+0	2.00000E+1	1.40000E+1	1.99993E+1	1.40005E+1
152	02/09/2022	16:55:55.243	0.00000E+0	0.00000E+0	1.00000E+2	0.00000E+0	0.00000E+0	0.00000E+0	2.00000E+1	1.40000E+1	2.00006E+1	1.39997E+1
153	02/09/2022	16:55:56.669	0.00000E+0	0.00000E+0	1.00000E+2	0.00000E+0	0.00000E+0	0.00000E+0	2.00000E+1	1.40000E+1	2.00008E+1	1.39990E+1
154	02/09/2022	16:55:58.177	0.00000E+0	0.00000E+0	1.00000E+2	0.00000E+0	0.00000E+0	0.00000E+0	2.00000E+1	1.40000E+1	1.99990E+1	1.39998E+1
155	02/09/2022	16:55:59.568	0.00000E+0	0.00000E+0	1.00000E+2	0.00000E+0	0.00000E+0	0.00000E+0	2.00000E+1	1.40000E+1	2.00029E+1	1.40003E+1
156	02/09/2022	16:56:00.985	0.00000E+0	0.00000E+0	1.00000E+2	0.00000E+0	0.00000E+0	0.00000E+0	2.00000E+1	1.40000E+1	1.99987E+1	1.40003E+1
157	02/09/2022	16:56:02.388	0.00000E+0	0.00000E+0	1.00000E+2	0.00000E+0	0.00000E+0	0.00000E+0	2.00000E+1	1.40000E+1	1.99985E+1	1.40001E+1
158	02/09/2022	16:56:03.757	0.00000E+0	0.00000E+0	1.00000E+2	0.00000E+0	0.00000E+0	0.00000E+0	2.00000E+1	1.40000E+1	1.99979E+1	1.39961E+1
159	02/09/2022	16:56:05.322	0.00000E+0	0.00000E+0	1.00000E+2	0.00000E+0	0.00000E+0	0.00000E+0	2.00000E+1	1.40000E+1	1.99998E+1	1.39988E+1
160	02/09/2022	16:56:06.725	0.00000E+0	0.00000E+0	1.00000E+2	0.00000E+0	0.00000E+0	0.00000E+0	2.00000E+1	1.40000E+1	1.99997E+1	1.39985E+1
161	02/09/2022	16:56:08.124	0.00000E+0	0.00000E+0	1.00000E+2	0.00000E+0	0.00000E+0	0.00000E+0	2.00000E+1	1.40000E+1	1.99990E+1	1.39999E+1
162	02/09/2022	16:56:09.529	0.00000E+0	0.00000E+0	1.00000E+2	0.00000E+0	0.00000E+0	0.00000E+0	2.00000E+1	1.40000E+1	2.00000E+1	1.39977E+1
163	02/09/2022	16:56:10.913	0.00000E+0	0.00000E+0	1.00000E+2	0.00000E+0	0.00000E+0	0.00000E+0	2.00000E+1	1.40000E+1	1.99981E+1	1.40006E+1
164	02/09/2022	16:56:12.435	0.00000E+0	0.00000E+0	1.00000E+2	0.00000E+0	0.00000E+0	0.00000E+0	2.00000E+1	1.40000E+1	1.99998E+1	1.39964E+1
165	02/09/2022	16:56:13.810	0.00000E+0	0.00000E+0	1.00000E+2	0.00000E+0	0.00000E+0	0.00000E+0	2.00000E+1	1.40000E+1	2.00007E+1	1.39987E+1
166	02/09/2022	16:56:15.217	0.00000E+0	0.00000E+0	1.00000E+2	0.00000E+0	0.00000E+0	0.00000E+0	2.00000E+1	1.40000E+1	2.00012E+1	1.40026E+1
167	02/09/2022	16:56:16.730	0.00000E+0	0.00000E+0	1.00000E+2	0.00000E+0	0.00000E+0	0.00000E+0	2.00000E+1	1.40000E+1	2.00015E+1	1.39985E+1
168	02/09/2022	16:56:18.110	0.00000E+0	0.00000E+0	1.00000E+2	0.00000E+0	0.00000E+0	0.00000E+0	2.00000E+1	1.40000E+1	2.00010E+1	1.40001E+1
169	02/09/2022	16:56:19.626	0.00000E+0	0.00000E+0	1.00000E+2	0.00000E+0	0.00000E+0	0.00000E+0	2.00000E+1	1.40000E+1	2.00029E+1	1.40015E+1
170	02/09/2022	16:56:21.021	0.00000E+0	0.00000E+0	1.00000E+2	0.00000E+0	0.00000E+0	0.00000E+0	2.00000E+1	1.40000E+1	1.99989E+1	1.40008E+1
171	02/09/2022	16:56:22.395	0.00000E+0	0.00000E+0	1.00000E+2	0.00000E+0	0.00000E+0	0.00000E+0	2.00000E+1	1.40000E+1	2.00005E+1	1.40021E+1
172	02/09/2022	16:56:23.905	0.00000E+0	0.00000E+0	1.00000E+2	0.00000E+0	0.00000E+0	0.00000E+0	2.00000E+1	1.40000E+1	1.99995E+1	1.40005E+1
173	02/09/2022	16:56:25.291	0.00000E+0	0.00000E+0	1.00000E+2	0.00000E+0	0.00000E+0	0.00000E+0	2.00000E+1	1.40000E+1	2.00002E+1	1.39999E+1
174	02/09/2022	16:56:26.678	0.00000E+0	0.00000E+0	1.00000E+2	0.00000E+0	0.00000E+0	0.00000E+0	2.00000E+1	1.40000E+1	1.99999E+1	1.40018E+1
175	02/09/2022	16:56:28.177	0.00000E+0	0.00000E+0	1.00000E+2	0.00000E+0	0.00000E+0	0.00000E+0	2.00000E+1	1.40000E+1	2.00015E+1	1.40018E+1
176	02/09/2022	16:56:29.579	0.00000E+0	0.00000E+0	1.00000E+2	0.00000E+0	0.00000E+0	0.00000E+0	2.00000E+1	1.40000E+1	1.99980E+1	1.39995E+1
177	02/09/2022	16:56:31.117	0.00000E+0	0.00000E+0	1.00000E+2	0.00000E+0	0.00000E+0	0.00000E+0	2.00000E+1	1.40000E+1	2.00025E+1	1.40028E+1
178	02/09/2022	16:56:32.488	0.00000E+0	0.00000E+0	1.00000E+2	0.00000E+0	0.00000E+0	0.00000E+0	2.00000E+1	1.40000E+1	1.99987E+1	1.39987E+1
179	02/09/2022	16:56:33.877	0.00000E+0	0.00000E+0	1.00000E+2	0.00000E+0	0.00000E+0	0.00000E+0	2.00000E+1	1.40000E+1	1.99990E+1	1.40019E+1
180	02/09/2022	16:56:35.378	0.00000E+0	0.00000E+0	1.00000E+2	0.00000E+0	0.00000E+0	0.00000E+0	2.00000E+1	1.40000E+1	2.00013E+1	1.39981E+1
181	02/09/2022	16:56:36.781	0.00000E+0	0.00000E+0	1.00000E+2	0.00000E+0	0.00000E+0	0.00000E+0	2.00000E+1	1.40000E+1	1.99984E+1	1.39991E+1
182	02/09/2022	16:56:38.307	0.00000E+0	0.00000E+0	1.00000E+2	0.00000E+0	0.00000E+0	0.00000E+0	2.00000E+1	1.40000E+1	2.00007E+1	1.39995E+1
183	02/09/2022	16:56:39.714	0.00000E+0	0.00000E+0	1.00000E+2	0.00000E+0	0.00000E+0	0.00000E+0	2.00000E+1	1.40000E+1	2.00016E+1	1.40015E+1
184	02/09/2022	16:56:41.105	0.00000E+0	0.00000E+0	1.00000E+2	0.00000E+0	0.00000E+0	0.00000E+0	2.00000E+1	1.40000E+1	1.99996E+1	1.39977E+1
185	02/09/2022	16:56:42.633	0.00000E+0	0.00000E+0	1.00000E+2	0.00000E+0	0.00000E+0	0.00000E+0	2.00000E+1	1.40000E+1	2.00008E+1	1.39993E+1
186	02/09/2022	16:56:44.017	0.00000E+0	0.00000E+0	1.00000E+2	0.00000E+0	0.00000E+0	0.00000E+0	2.00000E+1	1.40000E+1	2.00035E+1	1.39996E+1
187	02/09/2022	16:56:45.445	0.00000E+0	0.00000E+0	1.00000E+2	0.00000E+0	0.00000E+0	0.00000E+0	2.00000E+1	1.40000E+1	1.99994E+1	1.40000E+1
188	02/09/2022	16:56:46.990	0.00000E+0	0.00000E+0	1.00000E+2	0.00000E+0	0.00000E+0	0.00000E+0	2.00000E+1	1.40000E+1	2.00000E+1	1.39999E+1
189	02/09/2022	16:56:48.382	0.00000E+0	0.00000E+0	1.00000E+2	0.00000E+0	0.00000E+0	0.00000E+0	2.00000E+1	1.40000E+1	2.00025E+1	1.39986E+1
190	02/09/2022	16:56:49.807	0.00000E+0	0.00000E+0	1.00000E+2	0.00000E+0	0.00000E+0	0.00000E+0	2.00000E+1	1.40000E+1	1.99989E+1	1.39994E+1
191	02/09/2022	16:56:51.208	0.00000E+0	0.00000E+0	1.00000E+2	0.00000E+0	0.00000E+0	0.00000E+0	2.00000E+1	1.40000E+1	1.99986E+1	1.39993E+1
192	02/09/2022	16:56:52.572	0.00000E+0	0.00000E+0	1.00000E+2	0.00000E+0	0.00000E+0	0.00000E+0	2.00000E+1	1.40000E+1	2.00003E+1	1.39981E+1
193	02/09/2022	16:56:54.142	0.00000E+0	0.00000E+0	1.00000E+2	0.00000E+0	0.00000E+0	0.00000E+0	2.00000E+1	1.40000E+1	1.99987E+1	1.40013E+1
194	02/09/2022	16:56:55.527	0.00000E+0	0.00000E+0	1.00000E+2	0.00000E+0	0.00000E+0	0.00000E+0	2.00000E+1	1.40000E+1	1.99992E+1	1.40010E+1
195	02/09/2022	16:56:56.954	0.00000E+0	0.00000E+0	1.00000E+2	0.00000E+0	0.00000E+0	0.00000E+0	2.00000E+1	1.40000E+1	2.00004E+1	1.40001E+1
196	02/09/2022	16:56:58.458	0.00000E+0	0.00000E+0	1.00000E+2	0.00000E+0	0.00000E+0	0.00000E+0	2.00000E+1	1.40000E+1	2.00006E+1	1.40009E+1
197	02/09/2022	16:56:59.855	0.00000E+0	0.00000E+0	1.00000E+2	0.00000E+0	0.00000E+0	0.00000E+0	2.00000E+1	1.40000E+1	1.99988E+1	1.39986E+1
198	02/09/2022	16:57:01.343	0.00000E+0	0.00000E+0	1.00000E+2	0.00000E+0	0.00000E+0	0.00000E+0	2.00000E+1	1.40000E+1	1.99989E+1	1.40004E+1
199	02/09/2022	16:57:02.746	0.00000E+0	0.00000E+0	1.00000E+2	0.00000E+0	0.00000E+0	0.00000E+0	2.00000E+1	1.40000E+1	2.00011E+1	1.39999E+1
200	02/09/2022	16:57:04.207	0.00000E+0	0.00000E+0	1.00000E+2	0.00000E+0	0.00000E+0	0.00000E+0	2.00000E+1	1.40000E+1	2.00001E+1	1.40002E+1
201	02/09/2022	16:57:05.732	0.00000E+0	0.00000E+0	1.00000E+2	0.00000E+0	0.00000E+0	0.00000E+0	2.00000E+1	1.40000E+1	1.99996E+1	1.40009E+1
202	02/09/2022	16:57:07.108	0.00000E+0	0.00000E+0	1.00000E+2	0.00000E+0	0.00000E+0	0.00000E+0	2.00000E+1	1.40000E+1	2.00007E+1	1.40006E+1
203	02/09/2022	16:57:08.564	0.00000E+0	0.00000E+0	1.00000E+2	0.00000E+0	0.00000E+0	0.00000E+0	2.00000E+1	1.40000E+1	2.00020E+1	1.39974E+1
204	02/09/2022	16:57:10.025	0.00000E+0	0.00000E+0	1.00000E+2	0.00000E+0	0.00000E+0	0.00000E+0	2.00000E+1	1.40000E+1	1.99979E+1	1.39981E+1
205	02/09/2022	16:57:11.410	0.00000E+0	0.00000E+0	1.00000E+2	0.00000E+0	0.00000E+0	0.00000E+0	2.00000E+1	1.40000E+1	1.99988E+1	1.40007E+1
206	02/09/2022	16:57:12.897	0.00000E+0	0.00000E+0	1.00000E+2	0.00000E+0	0.00000E+0	0.00000E+0	2.00000E+1	1.40000E+1	1.99989E+1	1.40007E+1
207	02/09/2022	16:57:14.277	0.00000E+0	0.00000E+0	1.00000E+2	0.00000E+0	0.00000E+0	0.00000E+0	2.00000E+1	1.40000E+1	1.99976E+1	1.39994E+1
208	02/09/2022	16:57:15.693	0.00000E+0	0.00000E+0	1.00000E+2	0.00000E+0	0.00000E+0	0.00000E+0	2.00000E+1	1.40000E+1	1.99994E+1	1.39978E+1
209	02/09/2022	16:57:17.213	0.00000E+0	0.00000E+0	1.00000E+2	0.00000E+0	0.00000E+0	0.00000E+0	2.00000E+1	1.40000E+1	1.99991E+1	1.40003E+1
210	02/09/2022	16:57:18.604	0.00000E+0	0.00000E+0	1.00000E+2	0.00000E+0	0.00000E+0	0.00000E+0	2.00000E+1	1.40000E+1	2.00012E+1	1.39984E+1
211	02/09/2022	16:57:20.063	0.00000E+0	0.00000E+0	1.00000E+2	0.00000E+0	0.00000E+0	0.00000E+0	2.00000E+1	1.40000E+1	1.99998E+1	1.40001E+1
212	02/09/2022	16:57:21.463	0.00000E+0	0.00000E+0	1.00000E+2	0.00000E+0	0.00000E+0	0.00000E+0	2.00000E+1	1.40000E+1	1.99979E+1	1.40001E+1
213	02/09/2022	16:57:22.855	0.00000E+0	0.00000E+0	1.00000E+2	0.00000E+0	0.00000E+0	0.00000E+0	2.00000E+1	1.40000E+1	1.99982E+1	1.40009E+1
214	02/09/2022	16:57:24.413	0.00000E+0	0.00000E+0	1.00000E+2	0.00000E+0	0.00000E+0	0.00000E+0	2.00000E+1	1.40000E+1	2.00001E+1	1.39994E+1
215	02/09/2022	16:57:25.812	0.00000E+0	0.00000E+0	1.00000E+2	0.00000E+0	0.00000E+0	0.00000E+0	2.00000E+1	1.40000E+1	1.99994E+1	1.39989E+1
216	02/09/2022	16:57:27.261	0.00000E+0	0.00000E+0	1.00000E+2	0.00000E+0	0.00000E+0	0.00000E+0	2.00000E+1	1.40000E+1	2.00015E+1	1.40020E+1
217	02/09/2022	16:57:28.614	0.00000E+0	0.00000E+0	1.00000E+2	0.00000E+0	0.00000E+0	0.00000E+0	2.00000E+1	1.40000E+1	1.99991E+1	1.39993E+1
218	02/09/2022	16:57:30.030	0.00000E+0	0.00000E+0	1.00000E+2	0.00000E+0	0.00000E+0	0.00000E+0	2.00000E+1	1.40000E+1	1.99998E+1	1.39993E+1
219	02/09/2022	16:57:31.528	0.00000E+0	0.00000E+0	1.00000E+2	0.00000E+0	0.00000E+0	0.00000E+0	2.00000E+1	1.40000E+1	1.99982E+1	1.40018E+1
220	02/09/2022	16:57:32.921	0.00000E+0	0.00000E+0	1.00000E+2	0.00000E+0	0.00000E+0	0.00000E+0	2.00000E+1	1.40000E+1	2.00012E+1	1.39987E+1
221	02/09/2022	16:57:34.338	0.00000E+0	0.00000E+0	1.00000E+2	0.00000E+0	0.00000E+0	0.00000E+0	2.00000E+1	1.40000E+1	1.99989E+1	1.39981E+1
222	02/09/2022	16:57:35.820	0.00000E+0	0.00000E+0	1.00000E+2	0.00000E+0	0.00000E+0	0.00000E+0	2.00000E+1	1.40000E+1	1.99978E+1	1.40008E+1
223	02/09/2022	16:57:37.201	0.00000E+0	0.00000E+0	1.00000E+2	0.00000E+0	0.00000E+0	0.00000E+0	2.00000E+1	1.40000E+1	1.99997E+1	1.40021E+1
224	02/09/2022	16:57:38.708	0.00000E+0	0.00000E+0	1.00000E+2	0.00000E+0	0.00000E+0	0.00000E+0	2.00000E+1	1.40000E+1	1.99970E+1	1.40014E+1
225	02/09/2022	16:57:40.093	0.00000E+0	0.00000E+0	1.00000E+2	0.00000E+0	0.00000E+0	0.00000E+0	2.00000E+1	1.40000E+1	2.00011E+1	1.39996E+1
226	02/09/2022	16:57:41.459	0.00000E+0	0.00000E+0	1.00000E+2	0.00000E+0	0.00000E+0	0.00000E+0	2.00000E+1	1.40000E+1	2.00016E+1	1.40011E+1
227	02/09/2022	16:57:42.958	0.00000E+0	0.00000E+0	1.00000E+2	0.00000E+0	0.00000E+0	0.00000E+0	2.00000E+1	1.40000E+1	2.00013E+1	1.40012E+1
228	02/09/2022	16:57:44.346	0.00000E+0	0.00000E+0	1.00000E+2	0.00000E+0	0.00000E+0	0.00000E+0	2.00000E+1	1.40000E+1	1.99996E+1	1.40006E+1
229	02/09/2022	16:57:45.761	0.00000E+0	0.00000E+0	1.00000E+2	0.00000E+0	0.00000E+0	0.00000E+0	2.00000E+1	1.40000E+1	2.00001E+1	1.39987E+1
230	02/09/2022	16:57:47.243	0.00000E+0	0.00000E+0	1.00000E+2	0.00000E+0	0.00000E+0	0.00000E+0	2.00000E+1	1.40000E+1	2.00011E+1	1.39986E+1
231	02/09/2022	16:57:48.639	0.00000E+0	0.00000E+0	1.00000E+2	0.00000E+0	0.00000E+0	0.00000E+0	2.00000E+1	1.40000E+1	2.00017E+1	1.40007E+1
232	02/09/2022	16:57:50.125	0.00000E+0	0.00000E+0	1.00000E+2	0.00000E+0	0.00000E+0	0.00000E+0	2.00000E+1	1.40000E+1	1.99998E+1	1.39998E+1
233	02/09/2022	16:57:51.508	0.00000E+0	0.00000E+0	1.00000E+2	0.00000E+0	0.00000E+0	0.00000E+0	2.00000E+1	1.40000E+1	2.00008E+1	1.39991E+1
234	02/09/2022	16:57:52.902	0.00000E+0	0.00000E+0	1.00000E+2	0.00000E+0	0.00000E+0	0.00000E+0	2.00000E+1	1.40000E+1	1.99989E+1	1.40003E+1
235	02/09/2022	16:57:54.421	0.00000E+0	0.00000E+0	1.00000E+2	0.00000E+0	0.00000E+0	0.00000E+0	2.00000E+1	1.40000E+1	1.99994E+1	1.39984E+1
236	02/09/2022	16:57:55.805	0.00000E+0	0.00000E+0	1.00000E+2	0.00000E+0	0.00000E+0	0.00000E+0	2.00000E+1	1.40000E+1	1.99990E+1	1.40001E+1
237	02/09/2022	16:57:57.251	0.00000E+0	0.00000E+0	1.00000E+2	0.00000E+0	0.00000E+0	0.00000E+0	2.00000E+1	1.40000E+1	2.00024E+1	1.40008E+1
238	02/09/2022	16:57:58.705	0.00000E+0	0.00000E+0	1.00000E+2	0.00000E+0	0.00000E+0	0.00000E+0	2.00000E+1	1.40000E+1	2.00019E+1	1.39993E+1
239	02/09/2022	16:58:00.105	0.00000E+0	0.00000E+0	1.00000E+2	0.00000E+0	0.00000E+0	0.00000E+0	2.00000E+1	1.40000E+1	2.00029E+1	1.40006E+1
240	02/09/2022	16:58:01.641	0.00000E+0	0.00000E+0	1.00000E+2	0.00000E+0	0.00000E+0	0.00000E+0	2.00000E+1	1.40000E+1	1.99983E+1	1.39982E+1
241	02/09/2022	16:58:03.024	0.00000E+0	0.00000E+0	1.00000E+2	0.00000E+0	0.00000E+0	0.00000E+0	2.00000E+1	1.40000E+1	1.99977E+1	1.39993E+1
242	02/09/2022	16:58:04.487	0.00000E+0	0.00000E+0	1.00000E+2	0.00000E+0	0.00000E+0	0.00000E+0	2.00000E+1	1.40000E+1	1.99987E+1	1.40000E+1
243	02/09/2022	16:58:05.981	0.00000E+0	0.00000E+0	1.00000E+2	0.00000E+0	0.00000E+0	0.00000E+0	2.00000E+1	1.40000E+1	2.00018E+1	1.39975E+1
244	02/09/2022	16:58:07.385	0.00000E+0	0.00000E+0	1.00000E+2	0.00000E+0	0.00000E+0	0.00000E+0	2.00000E+1	1.40000E+1	2.00006E+1	1.40005E+1
245	02/09/2022	16:58:08.882	0.00000E+0	0.00000E+0	1.00000E+2	0.00000E+0	0.00000E+0	0.00000E+0	2.00000E+1	1.40000E+1	2.00016E+1	1.40004E+1
246	02/09/2022	16:58:10.270	0.00000E+0	0.00000E+0	1.00000E+2	0.00000E+0	0.00000E+0	0.00000E+0	2.00000E+1	1.40000E+1	2.00027E+1	1.40010E+1
247	02/09/2022	16:58:11.653	0.00000E+0	0.00000E+0	1.00000E+2	0.00000E+0	0.00000E+0	0.00000E+0	2.00000E+1	1.40000E+1	1.99989E+1	1.39998E+1
248	02/09/2022	16:58:13.135	0.00000E+0	0.00000E+0	1.00000E+2	0.00000E+0	0.00000E+0	0.00000E+0	2.00000E+1	1.40000E+1	2.00004E+1	1.40000E+1
249	02/09/2022	16:58:14.515	0.00000E+0	0.00000E+0	1.00000E+2	0.00000E+0	0.00000E+0	0.00000E+0	2.00000E+1	1.40000E+1	2.00013E+1	1.40010E+1
250	02/09/2022	16:58:15.892	0.00000E+0	0.00000E+0	1.00000E+2	0.00000E+0	0.00000E+0	0.00000E+0	2.00000E+1	1.40000E+1	2.00006E+1	1.40002E+1
251	02/09/2022	16:58:17.438	0.00000E+0	0.00000E+0	1.00000E+2	0.00000E+0	0.00000E+0	0.00000E+0	2.00000E+1	1.40000E+1	2.00016E+1	1.40002E+1
252	02/09/2022	16:58:18.826	0.00000E+0	0.00000E+0	1.00000E+2	0.00000E+0	0.00000E+0	0.00000E+0	2.00000E+1	1.40000E+1	2.00013E+1	1.40002E+1
253	02/09/2022	16:58:20.292	0.00000E+0	0.00000E+0	1.00000E+2	0.00000E+0	0.00000E+0	0.00000E+0	2.00000E+1	1.40000E+1	1.99996E+1	1.39992E+1
254	02/09/2022	16:58:21.686	0.00000E+0	0.00000E+0	1.00000E+2	0.00000E+0	0.00000E+0	0.00000E+0	2.00000E+1	1.40000E+1	2.00008E+1	1.39993E+1
255	02/09/2022	16:58:23.120	0.00000E+0	0.00000E+0	1.00000E+2	0.00000E+0	0.00000E+0	0.00000E+0	2.00000E+1	1.40000E+1	2.00008E+1	1.40005E+1
256	02/09/2022	16:58:24.628	0.00000E+0	0.00000E+0	1.00000E+2	0.00000E+0	0.00000E+0	0.00000E+0	2.00000E+1	1.40000E+1	1.99947E+1	1.39993E+1
257	02/09/2022	16:58:26.014	0.00000E+0	0.00000E+0	1.00000E+2	0.00000E+0	0.00000E+0	0.00000E+0	2.00000E+1	1.40000E+1	1.99988E+1	1.39986E+1
258	02/09/2022	16:58:27.525	0.00000E+0	0.00000E+0	1.00000E+2	0.00000E+0	0.00000E+0	0.00000E+0	2.00000E+1	1.40000E+1	2.00008E+1	1.40029E+1
259	02/09/2022	16:58:28.910	0.00000E+0	0.00000E+0	1.00000E+2	0.00000E+0	0.00000E+0	0.00000E+0	2.00000E+1	1.40000E+1	2.00014E+1	1.40027E+1
260	02/09/2022	16:58:30.302	0.00000E+0	0.00000E+0	1.00000E+2	0.00000E+0	0.00000E+0	0.00000E+0	2.00000E+1	1.40000E+1	1.99981E+1	1.39996E+1
261	02/09/2022	16:58:31.776	0.00000E+0	0.00000E+0	1.00000E+2	0.00000E+0	0.00000E+0	0.00000E+0	2.00000E+1	1.40000E+1	2.00008E+1	1.39978E+1
262	02/09/2022	16:58:33.144	0.00000E+0	0.00000E+0	1.00000E+2	0.00000E+0	0.00000E+0	0.00000E+0	2.00000E+1	1.40000E+1	1.99967E+1	1.40008E+1
263	02/09/2022	16:58:34.563	0.00000E+0	0.00000E+0	1.00000E+2	0.00000E+0	0.00000E+0	0.00000E+0	2.00000E+1	1.40000E+1	1.99991E+1	1.39991E+1
264	02/09/2022	16:58:36.072	0.00000E+0	0.00000E+0	1.00000E+2	0.00000E+0	0.00000E+0	0.00000E+0	2.00000E+1	1.40000E+1	2.00017E+1	1.39999E+1
265	02/09/2022	16:58:37.462	0.00000E+0	0.00000E+0	1.00000E+2	0.00000E+0	0.00000E+0	0.00000E+0	2.00000E+1	1.40000E+1	2.00008E+1	1.40016E+1
266	02/09/2022	16:58:38.900	0.00000E+0	0.00000E+0	1.00000E+2	0.00000E+0	0.00000E+0	0.00000E+0	2.00000E+1	1.40000E+1	1.99982E+1	1.39993E+1
267	02/09/2022	16:58:40.296	0.00000E+0	0.00000E+0	1.00000E+2	0.00000E+0	0.00000E+0	0.00000E+0	2.00000E+1	1.40000E+1	2.00001E+1	1.39998E+1
268	02/09/2022	16:58:41.689	0.00000E+0	0.00000E+0	1.00000E+2	0.00000E+0	0.00000E+0	0.00000E+0	2.00000E+1	1.40000E+1	2.00006E+1	1.39986E+1
269	02/09/2022	16:58:43.272	0.00000E+0	0.00000E+0	1.00000E+2	0.00000E+0	0.00000E+0	0.00000E+0	2.00000E+1	1.40000E+1	1.99986E+1	1.39994E+1
270	02/09/2022	16:58:44.663	0.00000E+0	0.00000E+0	1.00000E+2	0.00000E+0	0.00000E+0	0.00000E+0	2.00000E+1	1.40000E+1	2.00010E+1	1.40002E+1
271	02/09/2022	16:58:46.057	0.00000E+0	0.00000E+0	1.00000E+2	0.00000E+0	0.00000E+0	0.00000E+0	2.00000E+1	1.40000E+1	1.99990E+1	1.39985E+1
272	02/09/2022	16:58:47.475	0.00000E+0	0.00000E+0	1.00000E+2	0.00000E+0	0.00000E+0	0.00000E+0	2.00000E+1	1.40000E+1	1.99997E+1	1.40001E+1
273	02/09/2022	16:58:48.871	0.00000E+0	0.00000E+0	1.00000E+2	0.00000E+0	0.00000E+0	0.00000E+0	2.00000E+1	1.40000E+1	1.99996E+1	1.39987E+1
274	02/09/2022	16:58:50.357	0.00000E+0	0.00000E+0	1.00000E+2	0.00000E+0	0.00000E+0	0.00000E+0	2.00000E+1	1.40000E+1	2.00001E+1	1.39998E+1
275	02/09/2022	16:58:51.755	0.00000E+0	0.00000E+0	1.00000E+2	0.00000E+0	0.00000E+0	0.00000E+0	2.00000E+1	1.40000E+1	1.99971E+1	1.39998E+1
276	02/09/2022	16:58:53.158	0.00000E+0	0.00000E+0	1.00000E+2	0.00000E+0	0.00000E+0	0.00000E+0	2.00000E+1	1.40000E+1	2.00006E+1	1.40006E+1
277	02/09/2022	16:58:54.675	0.00000E+0	0.00000E+0	1.00000E+2	0.00000E+0	0.00000E+0	0.00000E+0	2.00000E+1	1.40000E+1	1.99998E+1	1.39985E+1
278	02/09/2022	16:58:56.060	0.00000E+0	0.00000E+0	1.00000E+2	0.00000E+0	0.00000E+0	0.00000E+0	2.00000E+1	1.40000E+1	1.99991E+1	1.39988E+1
279	02/09/2022	16:58:57.609	0.00000E+0	0.00000E+0	1.00000E+2	0.00000E+0	0.00000E+0	0.00000E+0	2.00000E+1	1.40000E+1	2.00012E+1	1.39993E+1
280	02/09/2022	16:58:59.009	0.00000E+0	0.00000E+0	1.00000E+2	0.00000E+0	0.00000E+0	0.00000E+0	2.00000E+1	1.40000E+1	2.00007E+1	1.40004E+1
281	02/09/2022	16:59:00.631	0.00000E+0	0.00000E+0	1.00000E+2	0.00000E+0	0.00000E+0	0.00000E+0	2.00000E+1	1.40000E+1	1.99997E+1	1.40000E+1
282	02/09/2022	16:59:02.096	0.00000E+0	0.00000E+0	1.00000E+2	0.00000E+0	0.00000E+0	0.00000E+0	2.00000E+1	1.40000E+1	1.99990E+1	1.40011E+1
283	02/09/2022	16:59:03.491	0.00000E+0	0.00000E+0	1.00000E+2	0.00000E+0	0.00000E+0	0.00000E+0	2.00000E+1	1.40000E+1	2.00002E+1	1.40023E+1
284	02/09/2022	16:59:04.880	0.00000E+0	0.00000E+0	1.00000E+2	0.00000E+0	0.00000E+0	0.00000E+0	2.00000E+1	1.40000E+1	1.99989E+1	1.39977E+1
285	02/09/2022	16:59:06.408	0.00000E+0	0.00000E+0	1.00000E+2	0.00000E+0	0.00000E+0	0.00000E+0	2.00000E+1	1.40000E+1	2.00020E+1	1.39997E+1
286	02/09/2022	16:59:07.807	0.00000E+0	0.00000E+0	1.00000E+2	0.00000E+0	0.00000E+0	0.00000E+0	2.00000E+1	1.40000E+1	1.99984E+1	1.39977E+1
287	02/09/2022	16:59:09.341	0.00000E+0	0.00000E+0	1.00000E+2	0.00000E+0	0.00000E+0	0.00000E+0	2.00000E+1	1.40000E+1	2.00003E+1	1.40017E+1
288	02/09/2022	16:59:10.719	0.00000E+0	0.00000E+0	1.00000E+2	0.00000E+0	0.00000E+0	0.00000E+0	2.00000E+1	1.40000E+1	1.99986E+1	1.39995E+1
289	02/09/2022	16:59:12.114	0.00000E+0	0.00000E+0	1.00000E+2	0.00000E+0	0.00000E+0	0.00000E+0	2.00000E+1	1.40000E+1	1.99972E+1	1.40001E+1
290	02/09/2022	16:59:13.576	0.00000E+0	0.00000E+0	1.00000E+2	0.00000E+0	0.00000E+0	0.00000E+0	2.00000E+1	1.40000E+1	2.00012E+1	1.39990E+1
291	02/09/2022	16:59:14.968	0.00000E+0	0.00000E+0	1.00000E+2	0.00000E+0	0.00000E+0	0.00000E+0	2.00000E+1	1.40000E+1	1.99969E+1	1.40011E+1
292	02/09/2022	16:59:16.457	0.00000E+0	0.00000E+0	1.00000E+2	0.00000E+0	0.00000E+0	0.00000E+0	2.00000E+1	1.40000E+1	2.00020E+1	1.40017E+1
293	02/09/2022	16:59:17.940	0.00000E+0	0.00000E+0	1.00000E+2	0.00000E+0	0.00000E+0	0.00000E+0	2.00000E+1	1.40000E+1	2.00017E+1	1.40014E+1
294	02/09/2022	16:59:19.317	0.00000E+0	0.00000E+0	1.00000E+2	0.00000E+0	0.00000E+0	0.00000E+0	2.00000E+1	1.40000E+1	1.99990E+1	1.40010E+1
295	02/09/2022	16:59:20.862	0.00000E+0	0.00000E+0	1.00000E+2	0.00000E+0	0.00000E+0	0.00000E+0	2.00000E+1	1.40000E+1	1.99990E+1	1.39996E+1
296	02/09/2022	16:59:22.257	0.00000E+0	0.00000E+0	1.00000E+2	0.00000E+0	0.00000E+0	0.00000E+0	2.00000E+1	1.40000E+1	1.99987E+1	1.39994E+1
297	02/09/2022	16:59:23.660	0.00000E+0	0.00000E+0	1.00000E+2	0.00000E+0	0.00000E+0	0.00000E+0	2.00000E+1	1.40000E+1	1.99988E+1	1.39989E+1
298	02/09/2022	16:59:25.165	0.00000E+0	0.00000E+0	1.00000E+2	0.00000E+0	0.00000E+0	0.00000E+0	2.00000E+1	1.40000E+1	2.00002E+1	1.39963E+1
299	02/09/2022	16:59:26.538	0.00000E+0	0.00000E+0	1.00000E+2	0.00000E+0	0.00000E+0	0.00000E+0	2.00000E+1	1.40000E+1	1.99996E+1	1.39984E+1
300	02/09/2022	16:59:28.015	0.00000E+0	0.00000E+0	1.00000E+2	0.00000E+0	0.00000E+0	0.00000E+0	2.00000E+1	1.40000E+1	1.99985E+1	1.39996E+1
301	02/09/2022	16:59:29.421	0.00000E+0	0.00000E+0	1.00000E+2	0.00000E+0	0.00000E+0	0.00000E+0	2.00000E+1	1.40000E+1	2.00000E+1	1.39985E+1
