#Iteration	Date	Time	Chirp	Phase	RamanAxis	RatioMean	RatioStdDev
1	02/09/2022	16:08:21.273	0.00000000E+0	-3.14159265E+1	5.00000000E+0	2.72983079E-1	0.00000000E+0
2	02/09/2022	16:08:22.827	0.00000000E+0	-3.12065382E+1	5.00000000E+0	2.76795250E-1	0.00000000E+0
3	02/09/2022	16:08:24.404	0.00000000E+0	-3.09971498E+1	5.00000000E+0	3.00357809E-1	0.00000000E+0
4	02/09/2022	16:08:25.793	0.00000000E+0	-3.07877614E+1	5.00000000E+0	3.27372691E-1	0.00000000E+0
5	02/09/2022	16:08:27.168	0.00000000E+0	-3.05779895E+1	5.00000000E+0	3.61364951E-1	0.00000000E+0
6	02/09/2022	16:08:28.696	0.00000000E+0	-3.03686012E+1	5.00000000E+0	4.12457669E-1	0.00000000E+0
7	02/09/2022	16:08:30.083	0.00000000E+0	-3.01592128E+1	5.00000000E+0	4.37665817E-1	0.00000000E+0
8	02/09/2022	16:08:31.577	0.00000000E+0	-2.99498244E+1	5.00000000E+0	4.85545386E-1	0.00000000E+0
9	02/09/2022	16:08:32.976	0.00000000E+0	-2.97404360E+1	5.00000000E+0	5.24472878E-1	0.00000000E+0
10	02/09/2022	16:08:34.359	0.00000000E+0	-2.95310476E+1	5.00000000E+0	5.67508344E-1	0.00000000E+0
11	02/09/2022	16:08:35.838	0.00000000E+0	-2.93216593E+1	5.00000000E+0	5.92390566E-1	0.00000000E+0
12	02/09/2022	16:08:37.229	0.00000000E+0	-2.91122709E+1	5.00000000E+0	6.23094706E-1	0.00000000E+0
13	02/09/2022	16:08:38.618	0.00000000E+0	-2.89024990E+1	5.00000000E+0	6.35651839E-1	0.00000000E+0
14	02/09/2022	16:08:40.049	0.00000000E+0	-2.86931106E+1	5.00000000E+0	6.47665238E-1	0.00000000E+0
15	02/09/2022	16:08:41.441	0.00000000E+0	-2.84837223E+1	5.00000000E+0	6.48606988E-1	0.00000000E+0
16	02/09/2022	16:08:43.013	0.00000000E+0	-2.82743339E+1	5.00000000E+0	6.43272778E-1	0.00000000E+0
17	02/09/2022	16:08:44.403	0.00000000E+0	-2.80649455E+1	5.00000000E+0	6.26078361E-1	0.00000000E+0
18	02/09/2022	16:08:45.787	0.00000000E+0	-2.78555571E+1	5.00000000E+0	6.08307792E-1	0.00000000E+0
19	02/09/2022	16:08:47.245	0.00000000E+0	-2.76461687E+1	5.00000000E+0	5.88462290E-1	0.00000000E+0
20	02/09/2022	16:08:48.637	0.00000000E+0	-2.74363969E+1	5.00000000E+0	5.49412141E-1	0.00000000E+0
21	02/09/2022	16:08:50.197	0.00000000E+0	-2.72270085E+1	5.00000000E+0	5.14119551E-1	0.00000000E+0
22	02/09/2022	16:08:51.592	0.00000000E+0	-2.70176201E+1	5.00000000E+0	4.64248552E-1	0.00000000E+0
23	02/09/2022	16:08:52.990	0.00000000E+0	-2.68082317E+1	5.00000000E+0	4.32421268E-1	0.00000000E+0
24	02/09/2022	16:08:54.536	0.00000000E+0	-2.65988434E+1	5.00000000E+0	3.89179933E-1	0.00000000E+0
25	02/09/2022	16:08:55.914	0.00000000E+0	-2.63894550E+1	5.00000000E+0	3.48167882E-1	0.00000000E+0
26	02/09/2022	16:08:57.367	0.00000000E+0	-2.61800666E+1	5.00000000E+0	3.26888390E-1	0.00000000E+0
27	02/09/2022	16:08:58.862	0.00000000E+0	-2.59706782E+1	5.00000000E+0	3.02997327E-1	0.00000000E+0
28	02/09/2022	16:09:00.237	0.00000000E+0	-2.57609064E+1	5.00000000E+0	2.80032147E-1	0.00000000E+0
29	02/09/2022	16:09:01.708	0.00000000E+0	-2.55515180E+1	5.00000000E+0	2.70036751E-1	0.00000000E+0
30	02/09/2022	16:09:03.149	0.00000000E+0	-2.53421296E+1	5.00000000E+0	2.68340625E-1	0.00000000E+0
31	02/09/2022	16:09:04.540	0.00000000E+0	-2.51327412E+1	5.00000000E+0	2.68977867E-1	0.00000000E+0
32	02/09/2022	16:09:06.023	0.00000000E+0	-2.49233529E+1	5.00000000E+0	2.88940288E-1	0.00000000E+0
33	02/09/2022	16:09:07.457	0.00000000E+0	-2.47139645E+1	5.00000000E+0	3.02660553E-1	0.00000000E+0
34	02/09/2022	16:09:08.940	0.00000000E+0	-2.45045761E+1	5.00000000E+0	3.37036289E-1	0.00000000E+0
35	02/09/2022	16:09:10.384	0.00000000E+0	-2.42948042E+1	5.00000000E+0	3.69690436E-1	0.00000000E+0
36	02/09/2022	16:09:11.777	0.00000000E+0	-2.40854158E+1	5.00000000E+0	3.87249797E-1	0.00000000E+0
37	02/09/2022	16:09:13.259	0.00000000E+0	-2.38760275E+1	5.00000000E+0	4.46959371E-1	0.00000000E+0
38	02/09/2022	16:09:14.644	0.00000000E+0	-2.36666391E+1	5.00000000E+0	4.86790221E-1	0.00000000E+0
39	02/09/2022	16:09:16.034	0.00000000E+0	-2.34572507E+1	5.00000000E+0	5.12949040E-1	0.00000000E+0
40	02/09/2022	16:09:17.599	0.00000000E+0	-2.32478623E+1	5.00000000E+0	5.62503388E-1	0.00000000E+0
41	02/09/2022	16:09:18.977	0.00000000E+0	-2.30384740E+1	5.00000000E+0	5.89932110E-1	0.00000000E+0
42	02/09/2022	16:09:20.515	0.00000000E+0	-2.28290856E+1	5.00000000E+0	6.14190659E-1	0.00000000E+0
43	02/09/2022	16:09:21.898	0.00000000E+0	-2.26193137E+1	5.00000000E+0	6.35250741E-1	0.00000000E+0
44	02/09/2022	16:09:23.279	0.00000000E+0	-2.24099253E+1	5.00000000E+0	6.47458978E-1	0.00000000E+0
45	02/09/2022	16:09:24.778	0.00000000E+0	-2.22005370E+1	5.00000000E+0	6.47843452E-1	0.00000000E+0
46	02/09/2022	16:09:26.181	0.00000000E+0	-2.19911486E+1	5.00000000E+0	6.44876277E-1	0.00000000E+0
47	02/09/2022	16:09:27.570	0.00000000E+0	-2.17817602E+1	5.00000000E+0	6.25048896E-1	0.00000000E+0
48	02/09/2022	16:09:29.073	0.00000000E+0	-2.15723718E+1	5.00000000E+0	6.14954954E-1	0.00000000E+0
49	02/09/2022	16:09:30.483	0.00000000E+0	-2.13629834E+1	5.00000000E+0	5.79014518E-1	0.00000000E+0
50	02/09/2022	16:09:32.014	0.00000000E+0	-2.11532116E+1	5.00000000E+0	5.39280270E-1	0.00000000E+0
51	02/09/2022	16:09:33.394	0.00000000E+0	-2.09438232E+1	5.00000000E+0	4.98050796E-1	0.00000000E+0
52	02/09/2022	16:09:34.785	0.00000000E+0	-2.07344348E+1	5.00000000E+0	4.83872368E-1	0.00000000E+0
53	02/09/2022	16:09:36.345	0.00000000E+0	-2.05250464E+1	5.00000000E+0	4.13170596E-1	0.00000000E+0
54	02/09/2022	16:09:37.729	0.00000000E+0	-2.03156581E+1	5.00000000E+0	3.87389756E-1	0.00000000E+0
55	02/09/2022	16:09:39.168	0.00000000E+0	-2.01062697E+1	5.00000000E+0	3.47834550E-1	0.00000000E+0
56	02/09/2022	16:09:40.570	0.00000000E+0	-1.98968813E+1	5.00000000E+0	3.32004600E-1	0.00000000E+0
57	02/09/2022	16:09:41.952	0.00000000E+0	-1.96874929E+1	5.00000000E+0	2.99565763E-1	0.00000000E+0
58	02/09/2022	16:09:43.491	0.00000000E+0	-1.94777211E+1	5.00000000E+0	2.88966088E-1	0.00000000E+0
59	02/09/2022	16:09:44.867	0.00000000E+0	-1.92683327E+1	5.00000000E+0	2.70627593E-1	0.00000000E+0
60	02/09/2022	16:09:46.321	0.00000000E+0	-1.90589443E+1	5.00000000E+0	2.60347350E-1	0.00000000E+0
61	02/09/2022	16:09:47.842	0.00000000E+0	-1.88495559E+1	5.00000000E+0	2.64250534E-1	0.00000000E+0
62	02/09/2022	16:09:49.233	0.00000000E+0	-1.86401675E+1	5.00000000E+0	2.81445269E-1	0.00000000E+0
63	02/09/2022	16:09:50.773	0.00000000E+0	-1.84307792E+1	5.00000000E+0	3.18716828E-1	0.00000000E+0
64	02/09/2022	16:09:52.154	0.00000000E+0	-1.82213908E+1	5.00000000E+0	3.26902360E-1	0.00000000E+0
65	02/09/2022	16:09:53.568	0.00000000E+0	-1.80116189E+1	5.00000000E+0	3.62114406E-1	0.00000000E+0
66	02/09/2022	16:09:55.066	0.00000000E+0	-1.78022305E+1	5.00000000E+0	4.10822111E-1	0.00000000E+0
67	02/09/2022	16:09:56.470	0.00000000E+0	-1.75928422E+1	5.00000000E+0	4.39087867E-1	0.00000000E+0
68	02/09/2022	16:09:57.909	0.00000000E+0	-1.73834538E+1	5.00000000E+0	4.76747117E-1	0.00000000E+0
69	02/09/2022	16:09:59.397	0.00000000E+0	-1.71740654E+1	5.00000000E+0	5.36860357E-1	0.00000000E+0
70	02/09/2022	16:10:00.802	0.00000000E+0	-1.69646770E+1	5.00000000E+0	5.69818990E-1	0.00000000E+0
71	02/09/2022	16:10:02.284	0.00000000E+0	-1.67552887E+1	5.00000000E+0	5.92716222E-1	0.00000000E+0
72	02/09/2022	16:10:03.673	0.00000000E+0	-1.65459003E+1	5.00000000E+0	6.17845865E-1	0.00000000E+0
73	02/09/2022	16:10:05.058	0.00000000E+0	-1.63361284E+1	5.00000000E+0	6.25922688E-1	0.00000000E+0
74	02/09/2022	16:10:06.570	0.00000000E+0	-1.61267400E+1	5.00000000E+0	6.40710878E-1	0.00000000E+0
75	02/09/2022	16:10:07.954	0.00000000E+0	-1.59173516E+1	5.00000000E+0	6.47638909E-1	0.00000000E+0
76	02/09/2022	16:10:09.448	0.00000000E+0	-1.57079633E+1	5.00000000E+0	6.43164339E-1	0.00000000E+0
77	02/09/2022	16:10:10.886	0.00000000E+0	-1.54985749E+1	5.00000000E+0	6.33929302E-1	0.00000000E+0
78	02/09/2022	16:10:12.282	0.00000000E+0	-1.52891865E+1	5.00000000E+0	6.05075030E-1	0.00000000E+0
79	02/09/2022	16:10:13.787	0.00000000E+0	-1.50797981E+1	5.00000000E+0	5.90361764E-1	0.00000000E+0
80	02/09/2022	16:10:15.187	0.00000000E+0	-1.48700263E+1	5.00000000E+0	5.40867300E-1	0.00000000E+0
81	02/09/2022	16:10:16.627	0.00000000E+0	-1.46606379E+1	5.00000000E+0	5.10471560E-1	0.00000000E+0
82	02/09/2022	16:10:18.122	0.00000000E+0	-1.44512495E+1	5.00000000E+0	4.67353016E-1	0.00000000E+0
83	02/09/2022	16:10:19.553	0.00000000E+0	-1.42418611E+1	5.00000000E+0	4.35817835E-1	0.00000000E+0
84	02/09/2022	16:10:21.037	0.00000000E+0	-1.40324728E+1	5.00000000E+0	4.02869697E-1	0.00000000E+0
85	02/09/2022	16:10:22.417	0.00000000E+0	-1.38230844E+1	5.00000000E+0	3.59537232E-1	0.00000000E+0
86	02/09/2022	16:10:23.814	0.00000000E+0	-1.36136960E+1	5.00000000E+0	3.33270626E-1	0.00000000E+0
87	02/09/2022	16:10:25.407	0.00000000E+0	-1.34043076E+1	5.00000000E+0	2.97508158E-1	0.00000000E+0
88	02/09/2022	16:10:26.800	0.00000000E+0	-1.31945357E+1	5.00000000E+0	2.79729601E-1	0.00000000E+0
89	02/09/2022	16:10:28.244	0.00000000E+0	-1.29851474E+1	5.00000000E+0	2.72752249E-1	0.00000000E+0
90	02/09/2022	16:10:29.737	0.00000000E+0	-1.27757590E+1	5.00000000E+0	2.66203865E-1	0.00000000E+0
91	02/09/2022	16:10:31.135	0.00000000E+0	-1.25663706E+1	5.00000000E+0	2.65634865E-1	0.00000000E+0
92	02/09/2022	16:10:32.710	0.00000000E+0	-1.23569822E+1	5.00000000E+0	2.83567505E-1	0.00000000E+0
93	02/09/2022	16:10:34.091	0.00000000E+0	-1.21475939E+1	5.00000000E+0	2.94974228E-1	0.00000000E+0
94	02/09/2022	16:10:35.554	0.00000000E+0	-1.19382055E+1	5.00000000E+0	3.17581401E-1	0.00000000E+0
95	02/09/2022	16:10:37.057	0.00000000E+0	-1.17284336E+1	5.00000000E+0	3.56101311E-1	0.00000000E+0
96	02/09/2022	16:10:38.444	0.00000000E+0	-1.15190452E+1	5.00000000E+0	4.11100904E-1	0.00000000E+0
97	02/09/2022	16:10:39.941	0.00000000E+0	-1.13096569E+1	5.00000000E+0	4.25791401E-1	0.00000000E+0
98	02/09/2022	16:10:41.330	0.00000000E+0	-1.11002685E+1	5.00000000E+0	4.68993292E-1	0.00000000E+0
99	02/09/2022	16:10:42.712	0.00000000E+0	-1.08908801E+1	5.00000000E+0	5.09810455E-1	0.00000000E+0
100	02/09/2022	16:10:44.197	0.00000000E+0	-1.06814917E+1	5.00000000E+0	5.50586207E-1	0.00000000E+0
101	02/09/2022	16:10:45.586	0.00000000E+0	-1.04721033E+1	5.00000000E+0	5.82678703E-1	0.00000000E+0
102	02/09/2022	16:10:47.003	0.00000000E+0	-1.02627150E+1	5.00000000E+0	6.11025608E-1	0.00000000E+0
103	02/09/2022	16:10:48.503	0.00000000E+0	-1.00529431E+1	5.00000000E+0	6.20796991E-1	0.00000000E+0
104	02/09/2022	16:10:49.884	0.00000000E+0	-9.84355472E+0	5.00000000E+0	6.40233782E-1	0.00000000E+0
105	02/09/2022	16:10:51.350	0.00000000E+0	-9.63416634E+0	5.00000000E+0	6.42944045E-1	0.00000000E+0
106	02/09/2022	16:10:52.742	0.00000000E+0	-9.42477796E+0	5.00000000E+0	6.39405962E-1	0.00000000E+0
107	02/09/2022	16:10:54.155	0.00000000E+0	-9.21538958E+0	5.00000000E+0	6.21025912E-1	0.00000000E+0
108	02/09/2022	16:10:55.716	0.00000000E+0	-9.00600121E+0	5.00000000E+0	6.13020985E-1	0.00000000E+0
109	02/09/2022	16:10:57.114	0.00000000E+0	-8.79661283E+0	5.00000000E+0	5.69275855E-1	0.00000000E+0
110	02/09/2022	16:10:58.543	0.00000000E+0	-8.58684096E+0	5.00000000E+0	5.58626672E-1	0.00000000E+0
111	02/09/2022	16:11:00.004	0.00000000E+0	-8.37745258E+0	5.00000000E+0	5.22498895E-1	0.00000000E+0
112	02/09/2022	16:11:01.383	0.00000000E+0	-8.16806420E+0	5.00000000E+0	4.86200226E-1	0.00000000E+0
113	02/09/2022	16:11:02.864	0.00000000E+0	-7.95867582E+0	5.00000000E+0	4.32860101E-1	0.00000000E+0
114	02/09/2022	16:11:04.244	0.00000000E+0	-7.74928745E+0	5.00000000E+0	4.02315142E-1	0.00000000E+0
115	02/09/2022	16:11:05.712	0.00000000E+0	-7.53989907E+0	5.00000000E+0	3.73913561E-1	0.00000000E+0
116	02/09/2022	16:11:07.193	0.00000000E+0	-7.33051069E+0	5.00000000E+0	3.36891735E-1	0.00000000E+0
117	02/09/2022	16:11:08.568	0.00000000E+0	-7.12112231E+0	5.00000000E+0	3.03487039E-1	0.00000000E+0
118	02/09/2022	16:11:10.068	0.00000000E+0	-6.91135044E+0	5.00000000E+0	2.76002587E-1	0.00000000E+0
119	02/09/2022	16:11:11.507	0.00000000E+0	-6.70196206E+0	5.00000000E+0	2.75212696E-1	0.00000000E+0
120	02/09/2022	16:11:12.892	0.00000000E+0	-6.49257368E+0	5.00000000E+0	2.66993522E-1	0.00000000E+0
121	02/09/2022	16:11:14.361	0.00000000E+0	-6.28318531E+0	5.00000000E+0	2.77366677E-1	0.00000000E+0
122	02/09/2022	16:11:15.747	0.00000000E+0	-6.07379693E+0	5.00000000E+0	2.83831360E-1	0.00000000E+0
123	02/09/2022	16:11:17.175	0.00000000E+0	-5.86440855E+0	5.00000000E+0	3.14190302E-1	0.00000000E+0
124	02/09/2022	16:11:18.690	0.00000000E+0	-5.65502017E+0	5.00000000E+0	3.39512326E-1	0.00000000E+0
125	02/09/2022	16:11:20.076	0.00000000E+0	-5.44524830E+0	5.00000000E+0	3.56196976E-1	0.00000000E+0
126	02/09/2022	16:11:21.552	0.00000000E+0	-5.23585992E+0	5.00000000E+0	4.00869941E-1	0.00000000E+0
127	02/09/2022	16:11:22.945	0.00000000E+0	-5.02647155E+0	5.00000000E+0	4.33461606E-1	0.00000000E+0
128	02/09/2022	16:11:24.333	0.00000000E+0	-4.81708317E+0	5.00000000E+0	4.77516281E-1	0.00000000E+0
129	02/09/2022	16:11:25.826	0.00000000E+0	-4.60769479E+0	5.00000000E+0	5.06524031E-1	0.00000000E+0
130	02/09/2022	16:11:27.224	0.00000000E+0	-4.39830641E+0	5.00000000E+0	5.49937744E-1	0.00000000E+0
131	02/09/2022	16:11:28.767	0.00000000E+0	-4.18891804E+0	5.00000000E+0	5.87735271E-1	0.00000000E+0
132	02/09/2022	16:11:30.210	0.00000000E+0	-3.97952966E+0	5.00000000E+0	6.07225478E-1	0.00000000E+0
133	02/09/2022	16:11:31.586	0.00000000E+0	-3.76975779E+0	5.00000000E+0	6.34379726E-1	0.00000000E+0
134	02/09/2022	16:11:33.072	0.00000000E+0	-3.56036941E+0	5.00000000E+0	6.39088331E-1	0.00000000E+0
135	02/09/2022	16:11:34.489	0.00000000E+0	-3.35098103E+0	5.00000000E+0	6.35761889E-1	0.00000000E+0
136	02/09/2022	16:11:35.938	0.00000000E+0	-3.14159265E+0	5.00000000E+0	6.40336641E-1	0.00000000E+0
137	02/09/2022	16:11:37.436	0.00000000E+0	-2.93220428E+0	5.00000000E+0	6.19909681E-1	0.00000000E+0
138	02/09/2022	16:11:38.823	0.00000000E+0	-2.72281590E+0	5.00000000E+0	6.07728578E-1	0.00000000E+0
139	02/09/2022	16:11:40.276	0.00000000E+0	-2.51342752E+0	5.00000000E+0	5.75941871E-1	0.00000000E+0
140	02/09/2022	16:11:41.661	0.00000000E+0	-2.30365565E+0	5.00000000E+0	5.43724314E-1	0.00000000E+0
141	02/09/2022	16:11:43.055	0.00000000E+0	-2.09426727E+0	5.00000000E+0	5.04972824E-1	0.00000000E+0
142	02/09/2022	16:11:44.540	0.00000000E+0	-1.88487889E+0	5.00000000E+0	4.75845916E-1	0.00000000E+0
143	02/09/2022	16:11:45.935	0.00000000E+0	-1.67549052E+0	5.00000000E+0	4.37366714E-1	0.00000000E+0
144	02/09/2022	16:11:47.328	0.00000000E+0	-1.46610214E+0	5.00000000E+0	3.96890179E-1	0.00000000E+0
145	02/09/2022	16:11:48.820	0.00000000E+0	-1.25671376E+0	5.00000000E+0	3.62625829E-1	0.00000000E+0
146	02/09/2022	16:11:50.215	0.00000000E+0	-1.04732538E+0	5.00000000E+0	3.17010894E-1	0.00000000E+0
147	02/09/2022	16:11:51.712	0.00000000E+0	-8.37937005E-1	5.00000000E+0	2.97372962E-1	0.00000000E+0
148	02/09/2022	16:11:53.080	0.00000000E+0	-6.28165133E-1	5.00000000E+0	2.76473574E-1	0.00000000E+0
149	02/09/2022	16:11:54.455	0.00000000E+0	-4.18776755E-1	5.00000000E+0	2.70097800E-1	0.00000000E+0
150	02/09/2022	16:11:56.026	0.00000000E+0	-2.09388378E-1	5.00000000E+0	2.69758376E-1	0.00000000E+0
151	02/09/2022	16:11:57.406	0.00000000E+0	0.00000000E+0	5.00000000E+0	2.71941836E-1	0.00000000E+0
152	02/09/2022	16:11:58.917	0.00000000E+0	2.09388378E-1	5.00000000E+0	2.84975161E-1	0.00000000E+0
153	02/09/2022	16:12:00.304	0.00000000E+0	4.18776755E-1	5.00000000E+0	3.06512845E-1	0.00000000E+0
154	02/09/2022	16:12:01.713	0.00000000E+0	6.28165133E-1	5.00000000E+0	3.38593725E-1	0.00000000E+0
155	02/09/2022	16:12:03.191	0.00000000E+0	8.37937005E-1	5.00000000E+0	3.52763739E-1	0.00000000E+0
156	02/09/2022	16:12:04.570	0.00000000E+0	1.04732538E+0	5.00000000E+0	3.91371886E-1	0.00000000E+0
157	02/09/2022	16:12:05.970	0.00000000E+0	1.25671376E+0	5.00000000E+0	4.41210915E-1	0.00000000E+0
158	02/09/2022	16:12:07.471	0.00000000E+0	1.46610214E+0	5.00000000E+0	4.85733825E-1	0.00000000E+0
159	02/09/2022	16:12:08.854	0.00000000E+0	1.67549052E+0	5.00000000E+0	5.12656067E-1	0.00000000E+0
160	02/09/2022	16:12:10.338	0.00000000E+0	1.88487889E+0	5.00000000E+0	5.66069219E-1	0.00000000E+0
161	02/09/2022	16:12:11.740	0.00000000E+0	2.09426727E+0	5.00000000E+0	5.81012341E-1	0.00000000E+0
162	02/09/2022	16:12:13.124	0.00000000E+0	2.30365565E+0	5.00000000E+0	6.07906245E-1	0.00000000E+0
163	02/09/2022	16:12:14.694	0.00000000E+0	2.51342752E+0	5.00000000E+0	6.26692720E-1	0.00000000E+0
164	02/09/2022	16:12:16.075	0.00000000E+0	2.72281590E+0	5.00000000E+0	6.46311166E-1	0.00000000E+0
165	02/09/2022	16:12:17.542	0.00000000E+0	2.93220428E+0	5.00000000E+0	6.46221820E-1	0.00000000E+0
166	02/09/2022	16:12:18.888	0.00000000E+0	3.14159265E+0	5.00000000E+0	6.35590370E-1	0.00000000E+0
167	02/09/2022	16:12:20.269	0.00000000E+0	3.35098103E+0	5.00000000E+0	6.27044771E-1	0.00000000E+0
168	02/09/2022	16:12:21.733	0.00000000E+0	3.56036941E+0	5.00000000E+0	6.05441284E-1	0.00000000E+0
169	02/09/2022	16:12:23.132	0.00000000E+0	3.76975779E+0	5.00000000E+0	5.79990843E-1	0.00000000E+0
170	02/09/2022	16:12:24.529	0.00000000E+0	3.97952966E+0	5.00000000E+0	5.45465794E-1	0.00000000E+0
171	02/09/2022	16:12:26.031	0.00000000E+0	4.18891804E+0	5.00000000E+0	4.90382659E-1	0.00000000E+0
172	02/09/2022	16:12:27.412	0.00000000E+0	4.39830641E+0	5.00000000E+0	4.66525830E-1	0.00000000E+0
173	02/09/2022	16:12:28.947	0.00000000E+0	4.60769479E+0	5.00000000E+0	4.10127123E-1	0.00000000E+0
174	02/09/2022	16:12:30.346	0.00000000E+0	4.81708317E+0	5.00000000E+0	4.03140282E-1	0.00000000E+0
175	02/09/2022	16:12:31.727	0.00000000E+0	5.02647155E+0	5.00000000E+0	3.51314945E-1	0.00000000E+0
176	02/09/2022	16:12:33.188	0.00000000E+0	5.23585992E+0	5.00000000E+0	3.24017345E-1	0.00000000E+0
177	02/09/2022	16:12:34.571	0.00000000E+0	5.44524830E+0	5.00000000E+0	3.03238908E-1	0.00000000E+0
178	02/09/2022	16:12:35.975	0.00000000E+0	5.65502017E+0	5.00000000E+0	2.80496098E-1	0.00000000E+0
179	02/09/2022	16:12:37.469	0.00000000E+0	5.86440855E+0	5.00000000E+0	2.70075671E-1	0.00000000E+0
180	02/09/2022	16:12:38.843	0.00000000E+0	6.07379693E+0	5.00000000E+0	2.70375612E-1	0.00000000E+0
181	02/09/2022	16:12:40.346	0.00000000E+0	6.28318531E+0	5.00000000E+0	2.79937314E-1	0.00000000E+0
182	02/09/2022	16:12:41.745	0.00000000E+0	6.49257368E+0	5.00000000E+0	2.85327711E-1	0.00000000E+0
183	02/09/2022	16:12:43.128	0.00000000E+0	6.70196206E+0	5.00000000E+0	3.08936962E-1	0.00000000E+0
184	02/09/2022	16:12:44.626	0.00000000E+0	6.91135044E+0	5.00000000E+0	3.40705315E-1	0.00000000E+0
185	02/09/2022	16:12:46.016	0.00000000E+0	7.12112231E+0	5.00000000E+0	3.75936912E-1	0.00000000E+0
186	02/09/2022	16:12:47.526	0.00000000E+0	7.33051069E+0	5.00000000E+0	4.17086194E-1	0.00000000E+0
187	02/09/2022	16:12:48.962	0.00000000E+0	7.53989907E+0	5.00000000E+0	4.45992496E-1	0.00000000E+0
188	02/09/2022	16:12:50.350	0.00000000E+0	7.74928745E+0	5.00000000E+0	4.89557702E-1	0.00000000E+0
189	02/09/2022	16:12:51.861	0.00000000E+0	7.95867582E+0	5.00000000E+0	5.18553077E-1	0.00000000E+0
190	02/09/2022	16:12:53.253	0.00000000E+0	8.16806420E+0	5.00000000E+0	5.63039898E-1	0.00000000E+0
191	02/09/2022	16:12:54.700	0.00000000E+0	8.37745258E+0	5.00000000E+0	5.77900762E-1	0.00000000E+0
192	02/09/2022	16:12:56.203	0.00000000E+0	8.58684096E+0	5.00000000E+0	6.14330439E-1	0.00000000E+0
193	02/09/2022	16:12:57.637	0.00000000E+0	8.79661283E+0	5.00000000E+0	6.29136064E-1	0.00000000E+0
194	02/09/2022	16:12:59.136	0.00000000E+0	9.00600121E+0	5.00000000E+0	6.40489134E-1	0.00000000E+0
195	02/09/2022	16:13:00.533	0.00000000E+0	9.21538958E+0	5.00000000E+0	6.51294979E-1	0.00000000E+0
196	02/09/2022	16:13:01.925	0.00000000E+0	9.42477796E+0	5.00000000E+0	6.38261443E-1	0.00000000E+0
197	02/09/2022	16:13:03.361	0.00000000E+0	9.63416634E+0	5.00000000E+0	6.29530044E-1	0.00000000E+0
198	02/09/2022	16:13:04.743	0.00000000E+0	9.84355472E+0	5.00000000E+0	6.08886718E-1	0.00000000E+0
199	02/09/2022	16:13:06.127	0.00000000E+0	1.00529431E+1	5.00000000E+0	5.75678284E-1	0.00000000E+0
200	02/09/2022	16:13:07.633	0.00000000E+0	1.02627150E+1	5.00000000E+0	5.42991315E-1	0.00000000E+0
201	02/09/2022	16:13:09.042	0.00000000E+0	1.04721033E+1	5.00000000E+0	5.06167054E-1	0.00000000E+0
202	02/09/2022	16:13:10.561	0.00000000E+0	1.06814917E+1	5.00000000E+0	4.65201053E-1	0.00000000E+0
203	02/09/2022	16:13:11.935	0.00000000E+0	1.08908801E+1	5.00000000E+0	4.28214482E-1	0.00000000E+0
204	02/09/2022	16:13:13.378	0.00000000E+0	1.11002685E+1	5.00000000E+0	3.85703322E-1	0.00000000E+0
205	02/09/2022	16:13:14.887	0.00000000E+0	1.13096569E+1	5.00000000E+0	3.51400609E-1	0.00000000E+0
206	02/09/2022	16:13:16.258	0.00000000E+0	1.15190452E+1	5.00000000E+0	3.17124144E-1	0.00000000E+0
207	02/09/2022	16:13:17.706	0.00000000E+0	1.17284336E+1	5.00000000E+0	3.06233039E-1	0.00000000E+0
208	02/09/2022	16:13:19.164	0.00000000E+0	1.19382055E+1	5.00000000E+0	2.80785433E-1	0.00000000E+0
209	02/09/2022	16:13:20.535	0.00000000E+0	1.21475939E+1	5.00000000E+0	2.70406350E-1	0.00000000E+0
210	02/09/2022	16:13:22.012	0.00000000E+0	1.23569822E+1	5.00000000E+0	2.64011811E-1	0.00000000E+0
211	02/09/2022	16:13:23.411	0.00000000E+0	1.25663706E+1	5.00000000E+0	2.72973016E-1	0.00000000E+0
212	02/09/2022	16:13:24.839	0.00000000E+0	1.27757590E+1	5.00000000E+0	2.89101817E-1	0.00000000E+0
213	02/09/2022	16:13:26.342	0.00000000E+0	1.29851474E+1	5.00000000E+0	3.15053849E-1	0.00000000E+0
214	02/09/2022	16:13:27.746	0.00000000E+0	1.31945357E+1	5.00000000E+0	3.38386421E-1	0.00000000E+0
215	02/09/2022	16:13:29.209	0.00000000E+0	1.34043076E+1	5.00000000E+0	3.70684639E-1	0.00000000E+0
216	02/09/2022	16:13:30.603	0.00000000E+0	1.36136960E+1	5.00000000E+0	3.84943307E-1	0.00000000E+0
217	02/09/2022	16:13:32.018	0.00000000E+0	1.38230844E+1	5.00000000E+0	4.52771533E-1	0.00000000E+0
218	02/09/2022	16:13:33.573	0.00000000E+0	1.40324728E+1	5.00000000E+0	4.81264214E-1	0.00000000E+0
219	02/09/2022	16:13:34.972	0.00000000E+0	1.42418611E+1	5.00000000E+0	5.31485107E-1	0.00000000E+0
220	02/09/2022	16:13:36.416	0.00000000E+0	1.44512495E+1	5.00000000E+0	5.57652783E-1	0.00000000E+0
221	02/09/2022	16:13:37.810	0.00000000E+0	1.46606379E+1	5.00000000E+0	5.81536192E-1	0.00000000E+0
222	02/09/2022	16:13:39.193	0.00000000E+0	1.48700263E+1	5.00000000E+0	6.01435124E-1	0.00000000E+0
223	02/09/2022	16:13:40.745	0.00000000E+0	1.50797981E+1	5.00000000E+0	6.29906525E-1	0.00000000E+0
224	02/09/2022	16:13:42.132	0.00000000E+0	1.52891865E+1	5.00000000E+0	6.42254604E-1	0.00000000E+0
225	02/09/2022	16:13:43.543	0.00000000E+0	1.54985749E+1	5.00000000E+0	6.38916808E-1	0.00000000E+0
226	02/09/2022	16:13:45.043	0.00000000E+0	1.57079633E+1	5.00000000E+0	6.36811293E-1	0.00000000E+0
227	02/09/2022	16:13:46.428	0.00000000E+0	1.59173516E+1	5.00000000E+0	6.22627094E-1	0.00000000E+0
228	02/09/2022	16:13:47.912	0.00000000E+0	1.61267400E+1	5.00000000E+0	6.01902986E-1	0.00000000E+0
229	02/09/2022	16:13:49.349	0.00000000E+0	1.63361284E+1	5.00000000E+0	5.81356118E-1	0.00000000E+0
230	02/09/2022	16:13:50.729	0.00000000E+0	1.65459003E+1	5.00000000E+0	5.50868142E-1	0.00000000E+0
231	02/09/2022	16:13:52.219	0.00000000E+0	1.67552887E+1	5.00000000E+0	5.08249398E-1	0.00000000E+0
232	02/09/2022	16:13:53.602	0.00000000E+0	1.69646770E+1	5.00000000E+0	4.77545811E-1	0.00000000E+0
233	02/09/2022	16:13:55.038	0.00000000E+0	1.71740654E+1	5.00000000E+0	4.35319468E-1	0.00000000E+0
234	02/09/2022	16:13:56.546	0.00000000E+0	1.73834538E+1	5.00000000E+0	3.87156349E-1	0.00000000E+0
235	02/09/2022	16:13:57.939	0.00000000E+0	1.75928422E+1	5.00000000E+0	3.59866783E-1	0.00000000E+0
236	02/09/2022	16:13:59.405	0.00000000E+0	1.78022305E+1	5.00000000E+0	3.28102802E-1	0.00000000E+0
237	02/09/2022	16:14:00.787	0.00000000E+0	1.80116189E+1	5.00000000E+0	2.96403842E-1	0.00000000E+0
238	02/09/2022	16:14:02.180	0.00000000E+0	1.82213908E+1	5.00000000E+0	2.78305415E-1	0.00000000E+0
239	02/09/2022	16:14:03.672	0.00000000E+0	1.84307792E+1	5.00000000E+0	2.69011907E-1	0.00000000E+0
240	02/09/2022	16:14:05.049	0.00000000E+0	1.86401675E+1	5.00000000E+0	2.67854421E-1	0.00000000E+0
241	02/09/2022	16:14:06.619	0.00000000E+0	1.88495559E+1	5.00000000E+0	2.79043922E-1	0.00000000E+0
242	02/09/2022	16:14:08.035	0.00000000E+0	1.90589443E+1	5.00000000E+0	2.82317296E-1	0.00000000E+0
243	02/09/2022	16:14:09.424	0.00000000E+0	1.92683327E+1	5.00000000E+0	3.13438441E-1	0.00000000E+0
244	02/09/2022	16:14:11.008	0.00000000E+0	1.94777211E+1	5.00000000E+0	3.40326157E-1	0.00000000E+0
245	02/09/2022	16:14:12.402	0.00000000E+0	1.96874929E+1	5.00000000E+0	3.71068993E-1	0.00000000E+0
246	02/09/2022	16:14:13.851	0.00000000E+0	1.98968813E+1	5.00000000E+0	4.02506472E-1	0.00000000E+0
247	02/09/2022	16:14:15.367	0.00000000E+0	2.01062697E+1	5.00000000E+0	4.41026838E-1	0.00000000E+0
248	02/09/2022	16:14:16.744	0.00000000E+0	2.03156581E+1	5.00000000E+0	4.83589833E-1	0.00000000E+0
249	02/09/2022	16:14:18.207	0.00000000E+0	2.05250464E+1	5.00000000E+0	5.23716000E-1	0.00000000E+0
250	02/09/2022	16:14:19.618	0.00000000E+0	2.07344348E+1	5.00000000E+0	5.55661050E-1	0.00000000E+0
251	02/09/2022	16:14:20.994	0.00000000E+0	2.09438232E+1	5.00000000E+0	5.80963223E-1	0.00000000E+0
252	02/09/2022	16:14:22.537	0.00000000E+0	2.11532116E+1	5.00000000E+0	6.13753716E-1	0.00000000E+0
253	02/09/2022	16:14:23.937	0.00000000E+0	2.13629834E+1	5.00000000E+0	6.35029570E-1	0.00000000E+0
254	02/09/2022	16:14:25.362	0.00000000E+0	2.15723718E+1	5.00000000E+0	6.42109056E-1	0.00000000E+0
255	02/09/2022	16:14:26.756	0.00000000E+0	2.17817602E+1	5.00000000E+0	6.46516119E-1	0.00000000E+0
256	02/09/2022	16:14:28.144	0.00000000E+0	2.19911486E+1	5.00000000E+0	6.43020333E-1	0.00000000E+0
257	02/09/2022	16:14:29.702	0.00000000E+0	2.22005370E+1	5.00000000E+0	6.18678328E-1	0.00000000E+0
258	02/09/2022	16:14:31.074	0.00000000E+0	2.24099253E+1	5.00000000E+0	6.08114983E-1	0.00000000E+0
259	02/09/2022	16:14:32.522	0.00000000E+0	2.26193137E+1	5.00000000E+0	5.76083205E-1	0.00000000E+0
260	02/09/2022	16:14:34.031	0.00000000E+0	2.28290856E+1	5.00000000E+0	5.33873727E-1	0.00000000E+0
261	02/09/2022	16:14:35.412	0.00000000E+0	2.30384740E+1	5.00000000E+0	5.04340458E-1	0.00000000E+0
262	02/09/2022	16:14:36.892	0.00000000E+0	2.32478623E+1	5.00000000E+0	4.77748438E-1	0.00000000E+0
263	02/09/2022	16:14:38.284	0.00000000E+0	2.34572507E+1	5.00000000E+0	4.33884199E-1	0.00000000E+0
264	02/09/2022	16:14:39.664	0.00000000E+0	2.36666391E+1	5.00000000E+0	3.87749766E-1	0.00000000E+0
265	02/09/2022	16:14:41.161	0.00000000E+0	2.38760275E+1	5.00000000E+0	3.46642065E-1	0.00000000E+0
266	02/09/2022	16:14:42.566	0.00000000E+0	2.40854158E+1	5.00000000E+0	3.20497398E-1	0.00000000E+0
267	02/09/2022	16:14:44.000	0.00000000E+0	2.42948042E+1	5.00000000E+0	2.91331993E-1	0.00000000E+0
268	02/09/2022	16:14:45.523	0.00000000E+0	2.45045761E+1	5.00000000E+0	2.81136123E-1	0.00000000E+0
269	02/09/2022	16:14:46.953	0.00000000E+0	2.47139645E+1	5.00000000E+0	2.65734556E-1	0.00000000E+0
270	02/09/2022	16:14:48.456	0.00000000E+0	2.49233529E+1	5.00000000E+0	2.63546601E-1	0.00000000E+0
271	02/09/2022	16:14:49.849	0.00000000E+0	2.51327412E+1	5.00000000E+0	2.69864998E-1	0.00000000E+0
272	02/09/2022	16:14:51.222	0.00000000E+0	2.53421296E+1	5.00000000E+0	2.79776210E-1	0.00000000E+0
273	02/09/2022	16:14:52.687	0.00000000E+0	2.55515180E+1	5.00000000E+0	2.99752116E-1	0.00000000E+0
274	02/09/2022	16:14:54.098	0.00000000E+0	2.57609064E+1	5.00000000E+0	3.28448313E-1	0.00000000E+0
275	02/09/2022	16:14:55.544	0.00000000E+0	2.59706782E+1	5.00000000E+0	3.80945091E-1	0.00000000E+0
276	02/09/2022	16:14:56.933	0.00000000E+0	2.61800666E+1	5.00000000E+0	4.01530311E-1	0.00000000E+0
277	02/09/2022	16:14:58.323	0.00000000E+0	2.63894550E+1	5.00000000E+0	4.44460394E-1	0.00000000E+0
278	02/09/2022	16:14:59.883	0.00000000E+0	2.65988434E+1	5.00000000E+0	4.82851521E-1	0.00000000E+0
279	02/09/2022	16:15:01.265	0.00000000E+0	2.68082317E+1	5.00000000E+0	5.21477261E-1	0.00000000E+0
280	02/09/2022	16:15:02.653	0.00000000E+0	2.70176201E+1	5.00000000E+0	5.49624295E-1	0.00000000E+0
281	02/09/2022	16:15:04.155	0.00000000E+0	2.72270085E+1	5.00000000E+0	5.86010716E-1	0.00000000E+0
282	02/09/2022	16:15:05.529	0.00000000E+0	2.74363969E+1	5.00000000E+0	6.14980765E-1	0.00000000E+0
283	02/09/2022	16:15:07.043	0.00000000E+0	2.76461687E+1	5.00000000E+0	6.32377856E-1	0.00000000E+0
284	02/09/2022	16:15:08.438	0.00000000E+0	2.78555571E+1	5.00000000E+0	6.41851583E-1	0.00000000E+0
285	02/09/2022	16:15:09.811	0.00000000E+0	2.80649455E+1	5.00000000E+0	6.41479291E-1	0.00000000E+0
286	02/09/2022	16:15:11.314	0.00000000E+0	2.82743339E+1	5.00000000E+0	6.28978871E-1	0.00000000E+0
287	02/09/2022	16:15:12.702	0.00000000E+0	2.84837223E+1	5.00000000E+0	6.23032712E-1	0.00000000E+0
288	02/09/2022	16:15:14.118	0.00000000E+0	2.86931106E+1	5.00000000E+0	6.04819008E-1	0.00000000E+0
289	02/09/2022	16:15:15.622	0.00000000E+0	2.89024990E+1	5.00000000E+0	5.73148204E-1	0.00000000E+0
290	02/09/2022	16:15:17.017	0.00000000E+0	2.91122709E+1	5.00000000E+0	5.31728893E-1	0.00000000E+0
291	02/09/2022	16:15:18.502	0.00000000E+0	2.93216593E+1	5.00000000E+0	5.01080107E-1	0.00000000E+0
292	02/09/2022	16:15:19.889	0.00000000E+0	2.95310476E+1	5.00000000E+0	4.67049846E-1	0.00000000E+0
293	02/09/2022	16:15:21.328	0.00000000E+0	2.97404360E+1	5.00000000E+0	4.19986794E-1	0.00000000E+0
294	02/09/2022	16:15:22.853	0.00000000E+0	2.99498244E+1	5.00000000E+0	3.79384286E-1	0.00000000E+0
295	02/09/2022	16:15:24.240	0.00000000E+0	3.01592128E+1	5.00000000E+0	3.47727443E-1	0.00000000E+0
296	02/09/2022	16:15:25.808	0.00000000E+0	3.03686012E+1	5.00000000E+0	3.21085045E-1	0.00000000E+0
297	02/09/2022	16:15:27.217	0.00000000E+0	3.05779895E+1	5.00000000E+0	3.01270436E-1	0.00000000E+0
298	02/09/2022	16:15:28.599	0.00000000E+0	3.07877614E+1	5.00000000E+0	2.78475430E-1	0.00000000E+0
299	02/09/2022	16:15:30.133	0.00000000E+0	3.09971498E+1	5.00000000E+0	2.70286966E-1	0.00000000E+0
300	02/09/2022	16:15:31.519	0.00000000E+0	3.12065382E+1	5.00000000E+0	2.65979026E-1	0.00000000E+0
301	02/09/2022	16:15:33.059	0.00000000E+0	3.14159265E+1	5.00000000E+0	2.74564489E-1	0.00000000E+0
