#Iteration	Date	Time	RTPhase	NFringe	AccelAxis	AccelMean	AccelTemp
1	02/09/2022	16:08:21.273	4.12755881E+0	-1.23300000E+3	2.00000000E+0	-9.80596393E+0	7.16081300E+6
2	02/09/2022	16:08:22.827	4.00714131E+0	-1.23300000E+3	2.00000000E+0	-9.80596393E+0	7.16081300E+6
3	02/09/2022	16:08:24.404	1.81584976E+0	-1.23500000E+3	2.00000000E+0	-9.80596393E+0	7.16081300E+6
4	02/09/2022	16:08:25.793	6.26822899E+0	-1.23300000E+3	2.00000000E+0	-9.80596393E+0	7.16081300E+6
5	02/09/2022	16:08:27.168	5.14880651E+0	-1.23300000E+3	2.00000000E+0	-9.80596393E+0	7.16081300E+6
6	02/09/2022	16:08:28.696	1.75947596E+0	-1.23500000E+3	2.00000000E+0	-9.80596393E+0	7.16081300E+6
7	02/09/2022	16:08:30.083	4.11988890E+0	-1.23300000E+3	2.00000000E+0	-9.80596393E+0	7.16081300E+6
8	02/09/2022	16:08:31.577	4.16092289E+0	-1.23400000E+3	2.00000000E+0	-9.80596393E+0	7.16081300E+6
9	02/09/2022	16:08:32.976	3.78164614E+0	-1.23500000E+3	2.00000000E+0	-9.80596393E+0	7.16081300E+6
10	02/09/2022	16:08:34.359	2.20778185E+0	-1.23400000E+3	2.00000000E+0	-9.80596393E+0	7.16081300E+6
11	02/09/2022	16:08:35.838	2.30327215E+0	-1.23300000E+3	2.00000000E+0	-9.80596393E+0	7.16081300E+6
12	02/09/2022	16:08:37.229	3.89209275E+0	-1.23500000E+3	2.00000000E+0	-9.80596393E+0	7.16081300E+6
13	02/09/2022	16:08:38.618	4.15248599E+0	-1.23300000E+3	2.00000000E+0	-9.80596393E+0	7.16081300E+6
14	02/09/2022	16:08:40.049	3.88173838E+0	-1.23500000E+3	2.00000000E+0	-9.80596393E+0	7.16081300E+6
15	02/09/2022	16:08:41.441	4.04318986E+0	-1.23300000E+3	2.00000000E+0	-9.80596393E+0	7.16081300E+6
16	02/09/2022	16:08:43.013	4.48612681E+0	-1.23500000E+3	2.00000000E+0	-9.80596393E+0	7.16081300E+6
17	02/09/2022	16:08:44.403	7.29407865E-1	-1.23300000E+3	2.00000000E+0	-9.80596393E+0	7.16081300E+6
18	02/09/2022	16:08:45.787	5.49932112E+0	-1.23400000E+3	2.00000000E+0	-9.80596393E+0	7.16081300E+6
19	02/09/2022	16:08:47.245	1.89446627E+0	-1.23300000E+3	2.00000000E+0	-9.80596393E+0	7.16081300E+6
20	02/09/2022	16:08:48.637	6.19344743E-1	-1.23400000E+3	2.00000000E+0	-9.80596393E+0	7.16081300E+6
21	02/09/2022	16:08:50.197	2.72665085E+0	-1.23300000E+3	2.00000000E+0	-9.80596393E+0	7.16081300E+6
22	02/09/2022	16:08:51.592	2.50959257E+0	-1.23500000E+3	2.00000000E+0	-9.80596393E+0	7.16081300E+6
23	02/09/2022	16:08:52.990	2.17633524E+0	-1.23300000E+3	2.00000000E+0	-9.80596393E+0	7.16081300E+6
24	02/09/2022	16:08:54.536	5.50775802E+0	-1.23300000E+3	2.00000000E+0	-9.80596393E+0	7.16081300E+6
25	02/09/2022	16:08:55.914	2.46510713E+0	-1.23300000E+3	2.00000000E+0	-9.80596393E+0	7.16081300E+6
26	02/09/2022	16:08:57.367	4.86156861E+0	-1.23300000E+3	2.00000000E+0	-9.80596393E+0	7.16081300E+6
27	02/09/2022	16:08:58.862	6.08491829E+0	-1.23400000E+3	2.00000000E+0	-9.80596393E+0	7.16081300E+6
28	02/09/2022	16:09:00.237	1.87874297E+0	-1.23300000E+3	2.00000000E+0	-9.80596393E+0	7.16081300E+6
29	02/09/2022	16:09:01.708	3.67426748E+0	-1.23300000E+3	2.00000000E+0	-9.80596393E+0	7.16081300E+6
30	02/09/2022	16:09:03.149	6.19651539E+0	-1.23500000E+3	2.00000000E+0	-9.80596393E+0	7.16081300E+6
31	02/09/2022	16:09:04.540	9.53752555E-1	-1.23300000E+3	2.00000000E+0	-9.80596393E+0	7.16081300E+6
32	02/09/2022	16:09:06.023	5.44563180E-2	-1.23400000E+3	2.00000000E+0	-9.80596393E+0	7.16081300E+6
33	02/09/2022	16:09:07.457	2.73010231E+0	-1.23300000E+3	2.00000000E+0	-9.80596393E+0	7.16081300E+6
34	02/09/2022	16:09:08.940	3.75978691E+0	-1.23500000E+3	2.00000000E+0	-9.80596393E+0	7.16081300E+6
35	02/09/2022	16:09:10.384	1.27550503E+0	-1.23400000E+3	2.00000000E+0	-9.80596393E+0	7.16081300E+6
36	02/09/2022	16:09:11.777	2.24919933E+0	-1.23300000E+3	2.00000000E+0	-9.80596393E+0	7.16081300E+6
37	02/09/2022	16:09:13.259	1.35987397E+0	-1.23400000E+3	2.00000000E+0	-9.80596393E+0	7.16081300E+6
38	02/09/2022	16:09:14.644	6.83388441E-1	-1.23400000E+3	2.00000000E+0	-9.80596393E+0	7.16081300E+6
39	02/09/2022	16:09:16.034	2.09388378E+0	-1.23300000E+3	2.00000000E+0	-9.80596393E+0	7.16081300E+6
40	02/09/2022	16:09:17.599	4.94018513E+0	-1.23500000E+3	2.00000000E+0	-9.80596393E+0	7.16081300E+6
41	02/09/2022	16:09:18.977	3.14082566E-1	-1.23400000E+3	2.00000000E+0	-9.80596393E+0	7.16081300E+6
42	02/09/2022	16:09:20.515	5.49702015E+0	-1.23500000E+3	2.00000000E+0	-9.80596393E+0	7.16081300E+6
43	02/09/2022	16:09:21.898	2.30864109E+0	-1.23400000E+3	2.00000000E+0	-9.80596393E+0	7.16081300E+6
44	02/09/2022	16:09:23.279	5.07019000E+0	-1.23300000E+3	2.00000000E+0	-9.80596393E+0	7.16081300E+6
45	02/09/2022	16:09:24.778	5.34055411E+0	-1.23400000E+3	2.00000000E+0	-9.80596393E+0	7.16081300E+6
46	02/09/2022	16:09:26.181	2.64956832E+0	-1.23500000E+3	2.00000000E+0	-9.80596393E+0	7.16081300E+6
47	02/09/2022	16:09:27.570	3.84108789E+0	-1.23300000E+3	2.00000000E+0	-9.80596393E+0	7.16081300E+6
48	02/09/2022	16:09:29.073	4.81516569E+0	-1.23300000E+3	2.00000000E+0	-9.80596393E+0	7.16081300E+6
49	02/09/2022	16:09:30.483	9.22305949E-1	-1.23300000E+3	2.00000000E+0	-9.80596393E+0	7.16081300E+6
50	02/09/2022	16:09:32.014	3.07754896E+0	-1.23500000E+3	2.00000000E+0	-9.80596393E+0	7.16081300E+6
51	02/09/2022	16:09:33.394	4.98582106E+0	-1.23500000E+3	2.00000000E+0	-9.80596393E+0	7.16081300E+6
52	02/09/2022	16:09:34.785	1.76062645E+0	-1.23300000E+3	2.00000000E+0	-9.80596393E+0	7.16081300E+6
53	02/09/2022	16:09:36.345	3.19451499E-1	-1.23400000E+3	2.00000000E+0	-9.80596393E+0	7.16081300E+6
54	02/09/2022	16:09:37.729	6.22642802E+0	-1.23500000E+3	2.00000000E+0	-9.80596393E+0	7.16081300E+6
55	02/09/2022	16:09:39.168	5.91886487E+0	-1.23400000E+3	2.00000000E+0	-9.80596393E+0	7.16081300E+6
56	02/09/2022	16:09:40.570	4.53521420E+0	-1.23300000E+3	2.00000000E+0	-9.80596393E+0	7.16081300E+6
57	02/09/2022	16:09:41.952	4.14903454E+0	-1.23400000E+3	2.00000000E+0	-9.80596393E+0	7.16081300E+6
58	02/09/2022	16:09:43.491	4.25718018E+0	-1.23300000E+3	2.00000000E+0	-9.80596393E+0	7.16081300E+6
59	02/09/2022	16:09:44.867	2.64841783E+0	-1.23300000E+3	2.00000000E+0	-9.80596393E+0	7.16081300E+6
60	02/09/2022	16:09:46.321	4.56282585E+0	-1.23300000E+3	2.00000000E+0	-9.80596393E+0	7.16081300E+6
61	02/09/2022	16:09:47.842	2.22197117E+0	-1.23400000E+3	2.00000000E+0	-9.80596393E+0	7.16081300E+6
62	02/09/2022	16:09:49.233	4.60846178E+0	-1.23400000E+3	2.00000000E+0	-9.80596393E+0	7.16081300E+6
63	02/09/2022	16:09:50.773	3.02232565E+0	-1.23500000E+3	2.00000000E+0	-9.80596393E+0	7.16081300E+6
64	02/09/2022	16:09:52.154	4.44470933E-1	-1.23300000E+3	2.00000000E+0	-9.80596393E+0	7.16081300E+6
65	02/09/2022	16:09:53.568	5.34975800E-1	-1.23300000E+3	2.00000000E+0	-9.80596393E+0	7.16081300E+6
66	02/09/2022	16:09:55.066	5.72941824E+0	-1.23500000E+3	2.00000000E+0	-9.80596393E+0	7.16081300E+6
67	02/09/2022	16:09:56.470	5.50162210E+0	-1.23600000E+3	2.00000000E+0	-9.80596393E+0	7.16081300E+6
68	02/09/2022	16:09:57.909	5.21054924E+0	-1.23300000E+3	2.00000000E+0	-9.80596393E+0	7.16081300E+6
69	02/09/2022	16:09:59.397	3.19183052E+0	-1.23500000E+3	2.00000000E+0	-9.80596393E+0	7.16081300E+6
70	02/09/2022	16:10:00.802	3.73754419E+0	-1.23500000E+3	2.00000000E+0	-9.80596393E+0	7.16081300E+6
71	02/09/2022	16:10:02.284	1.88679637E+0	-1.23300000E+3	2.00000000E+0	-9.80596393E+0	7.16081300E+6
72	02/09/2022	16:10:03.673	1.45344680E+0	-1.23400000E+3	2.00000000E+0	-9.80596393E+0	7.16081300E+6
73	02/09/2022	16:10:05.058	3.98835005E-1	-1.23400000E+3	2.00000000E+0	-9.80596393E+0	7.16081300E+6
74	02/09/2022	16:10:06.570	4.16935978E+0	-1.23400000E+3	2.00000000E+0	-9.80596393E+0	7.16081300E+6
75	02/09/2022	16:10:07.954	3.33218977E+0	-1.23300000E+3	2.00000000E+0	-9.80596393E+0	7.16081300E+6
76	02/09/2022	16:10:09.448	2.61428676E+0	-1.23300000E+3	2.00000000E+0	-9.80596393E+0	7.16081300E+6
77	02/09/2022	16:10:10.886	3.99065102E+0	-1.23500000E+3	2.00000000E+0	-9.80596393E+0	7.16081300E+6
78	02/09/2022	16:10:12.282	5.15417545E+0	-1.23300000E+3	2.00000000E+0	-9.80596393E+0	7.16081300E+6
79	02/09/2022	16:10:13.787	3.88097139E+0	-1.23300000E+3	2.00000000E+0	-9.80596393E+0	7.16081300E+6
80	02/09/2022	16:10:15.187	6.18117558E+0	-1.23500000E+3	2.00000000E+0	-9.80596393E+0	7.16081300E+6
81	02/09/2022	16:10:16.627	3.11206352E+0	-1.23400000E+3	2.00000000E+0	-9.80596393E+0	7.16081300E+6
82	02/09/2022	16:10:18.122	4.43972390E+0	-1.23300000E+3	2.00000000E+0	-9.80596393E+0	7.16081300E+6
83	02/09/2022	16:10:19.553	5.03720941E+0	-1.23500000E+3	2.00000000E+0	-9.80596393E+0	7.16081300E+6
84	02/09/2022	16:10:21.037	3.35289851E+0	-1.23300000E+3	2.00000000E+0	-9.80596393E+0	7.16081300E+6
85	02/09/2022	16:10:22.417	1.18883511E-1	-1.23300000E+3	2.00000000E+0	-9.80596393E+0	7.16081300E+6
86	02/09/2022	16:10:23.814	3.74483060E+0	-1.23400000E+3	2.00000000E+0	-9.80596393E+0	7.16081300E+6
87	02/09/2022	16:10:25.407	5.69336969E+0	-1.23500000E+3	2.00000000E+0	-9.80596393E+0	7.16081300E+6
88	02/09/2022	16:10:26.800	5.41495218E-1	-1.23300000E+3	2.00000000E+0	-9.80596393E+0	7.16081300E+6
89	02/09/2022	16:10:28.244	2.23577700E-1	-1.23300000E+3	2.00000000E+0	-9.80596393E+0	7.16081300E+6
90	02/09/2022	16:10:29.737	3.56842281E+0	-1.23500000E+3	2.00000000E+0	-9.80596393E+0	7.16081300E+6
91	02/09/2022	16:10:31.135	4.93098124E+0	-1.23400000E+3	2.00000000E+0	-9.80596393E+0	7.16081300E+6
92	02/09/2022	16:10:32.710	3.04917031E+0	-1.23400000E+3	2.00000000E+0	-9.80596393E+0	7.16081300E+6
93	02/09/2022	16:10:34.091	4.17357823E+0	-1.23300000E+3	2.00000000E+0	-9.80596393E+0	7.16081300E+6
94	02/09/2022	16:10:35.554	4.13216075E+0	-1.23300000E+3	2.00000000E+0	-9.80596393E+0	7.16081300E+6
95	02/09/2022	16:10:37.057	7.48582624E-1	-1.23200000E+3	2.00000000E+0	-9.80596393E+0	7.16081300E+6
96	02/09/2022	16:10:38.444	2.95137904E+0	-1.23500000E+3	2.00000000E+0	-9.80596393E+0	7.16081300E+6
97	02/09/2022	16:10:39.941	1.50061671E+0	-1.23400000E+3	2.00000000E+0	-9.80596393E+0	7.16081300E+6
98	02/09/2022	16:10:41.330	2.64611686E-2	-1.23400000E+3	2.00000000E+0	-9.80596393E+0	7.16081300E+6
99	02/09/2022	16:10:42.712	4.35228699E+0	-1.23300000E+3	2.00000000E+0	-9.80596393E+0	7.16081300E+6
100	02/09/2022	16:10:44.197	1.36332543E+0	-1.23500000E+3	2.00000000E+0	-9.80596393E+0	7.16081300E+6
101	02/09/2022	16:10:45.586	4.71238898E+0	-1.23300000E+3	2.00000000E+0	-9.80596393E+0	7.16081300E+6
102	02/09/2022	16:10:47.003	4.36839379E+0	-1.23300000E+3	2.00000000E+0	-9.80596393E+0	7.16081300E+6
103	02/09/2022	16:10:48.503	1.85113132E+0	-1.23300000E+3	2.00000000E+0	-9.80596393E+0	7.16081300E+6
104	02/09/2022	16:10:49.884	4.66023363E+0	-1.23400000E+3	2.00000000E+0	-9.80596393E+0	7.16081300E+6
105	02/09/2022	16:10:51.350	1.83310704E-1	-1.23400000E+3	2.00000000E+0	-9.80596393E+0	7.16081300E+6
106	02/09/2022	16:10:52.742	5.48743277E+0	-1.23400000E+3	2.00000000E+0	-9.80596393E+0	7.16081300E+6
107	02/09/2022	16:10:54.155	3.18185965E+0	-1.23400000E+3	2.00000000E+0	-9.80596393E+0	7.16081300E+6
108	02/09/2022	16:10:55.716	3.97761218E+0	-1.23300000E+3	2.00000000E+0	-9.80596393E+0	7.16081300E+6
109	02/09/2022	16:10:57.114	3.21905868E+0	-1.23500000E+3	2.00000000E+0	-9.80596393E+0	7.16081300E+6
110	02/09/2022	16:10:58.543	5.19329196E+0	-1.23300000E+3	2.00000000E+0	-9.80596393E+0	7.16081300E+6
111	02/09/2022	16:11:00.004	5.42530655E+0	-1.23300000E+3	2.00000000E+0	-9.80596393E+0	7.16081300E+6
112	02/09/2022	16:11:01.383	5.22128711E+0	-1.23400000E+3	2.00000000E+0	-9.80596393E+0	7.16081300E+6
113	02/09/2022	16:11:02.864	5.41993762E+0	-1.23500000E+3	2.00000000E+0	-9.80596393E+0	7.16081300E+6
114	02/09/2022	16:11:04.244	2.45091780E+0	-1.23300000E+3	2.00000000E+0	-9.80596393E+0	7.16081300E+6
115	02/09/2022	16:11:05.712	3.94156363E+0	-1.23300000E+3	2.00000000E+0	-9.80596393E+0	7.16081300E+6
116	02/09/2022	16:11:07.193	2.29368477E+0	-1.23500000E+3	2.00000000E+0	-9.80596393E+0	7.16081300E+6
117	02/09/2022	16:11:08.568	3.06335963E+0	-1.23400000E+3	2.00000000E+0	-9.80596393E+0	7.16081300E+6
118	02/09/2022	16:11:10.068	2.88848582E+0	-1.23500000E+3	2.00000000E+0	-9.80596393E+0	7.16081300E+6
119	02/09/2022	16:11:11.507	1.58000021E+0	-1.23300000E+3	2.00000000E+0	-9.80596393E+0	7.16081300E+6
120	02/09/2022	16:11:12.892	3.12510236E+0	-1.23500000E+3	2.00000000E+0	-9.80596393E+0	7.16081300E+6
121	02/09/2022	16:11:14.361	1.91364103E-1	-1.23400000E+3	2.00000000E+0	-9.80596393E+0	7.16081300E+6
122	02/09/2022	16:11:15.747	3.20256839E+0	-1.23300000E+3	2.00000000E+0	-9.80596393E+0	7.16081300E+6
123	02/09/2022	16:11:17.175	5.71062698E+0	-1.23500000E+3	2.00000000E+0	-9.80596393E+0	7.16081300E+6
124	02/09/2022	16:11:18.690	3.70111215E+0	-1.23500000E+3	2.00000000E+0	-9.80596393E+0	7.16081300E+6
125	02/09/2022	16:11:20.076	5.01803465E+0	-1.23300000E+3	2.00000000E+0	-9.80596393E+0	7.16081300E+6
126	02/09/2022	16:11:21.552	1.56811186E+0	-1.23400000E+3	2.00000000E+0	-9.80596393E+0	7.16081300E+6
127	02/09/2022	16:11:22.945	2.92223340E-1	-1.23300000E+3	2.00000000E+0	-9.80596393E+0	7.16081300E+6
128	02/09/2022	16:11:24.333	4.36187437E+0	-1.23400000E+3	2.00000000E+0	-9.80596393E+0	7.16081300E+6
129	02/09/2022	16:11:25.826	5.32137935E+0	-1.23300000E+3	2.00000000E+0	-9.80596393E+0	7.16081300E+6
130	02/09/2022	16:11:27.224	2.77573824E+0	-1.23500000E+3	2.00000000E+0	-9.80596393E+0	7.16081300E+6
131	02/09/2022	16:11:28.767	2.30787410E+0	-1.23500000E+3	2.00000000E+0	-9.80596393E+0	7.16081300E+6
132	02/09/2022	16:11:30.210	4.92139386E+0	-1.23300000E+3	2.00000000E+0	-9.80596393E+0	7.16081300E+6
133	02/09/2022	16:11:31.586	5.90774351E+0	-1.23400000E+3	2.00000000E+0	-9.80596393E+0	7.16081300E+6
134	02/09/2022	16:11:33.072	3.32873831E+0	-1.23400000E+3	2.00000000E+0	-9.80596393E+0	7.16081300E+6
135	02/09/2022	16:11:34.489	5.38619004E+0	-1.23400000E+3	2.00000000E+0	-9.80596393E+0	7.16081300E+6
136	02/09/2022	16:11:35.938	3.03076254E+0	-1.23500000E+3	2.00000000E+0	-9.80596393E+0	7.16081300E+6
137	02/09/2022	16:11:37.436	2.74659260E+0	-1.23500000E+3	2.00000000E+0	-9.80596393E+0	7.16081300E+6
138	02/09/2022	16:11:38.823	1.42736912E+0	-1.23300000E+3	2.00000000E+0	-9.80596393E+0	7.16081300E+6
139	02/09/2022	16:11:40.276	6.28050084E+0	-1.23500000E+3	2.00000000E+0	-9.80596393E+0	7.16081300E+6
140	02/09/2022	16:11:41.661	2.65915570E+0	-1.23300000E+3	2.00000000E+0	-9.80596393E+0	7.16081300E+6
141	02/09/2022	16:11:43.055	3.58146164E+0	-1.23500000E+3	2.00000000E+0	-9.80596393E+0	7.16081300E+6
142	02/09/2022	16:11:44.540	4.96242785E-1	-1.23300000E+3	2.00000000E+0	-9.80596393E+0	7.16081300E+6
143	02/09/2022	16:11:45.935	2.77190328E+0	-1.23400000E+3	2.00000000E+0	-9.80596393E+0	7.16081300E+6
144	02/09/2022	16:11:47.328	1.14550015E+0	-1.23300000E+3	2.00000000E+0	-9.80596393E+0	7.16081300E+6
145	02/09/2022	16:11:48.820	4.74997151E+0	-1.23300000E+3	2.00000000E+0	-9.80596393E+0	7.16081300E+6
146	02/09/2022	16:11:50.215	2.07931096E+0	-1.23500000E+3	2.00000000E+0	-9.80596393E+0	7.16081300E+6
147	02/09/2022	16:11:51.712	4.14213162E+0	-1.23500000E+3	2.00000000E+0	-9.80596393E+0	7.16081300E+6
148	02/09/2022	16:11:53.080	5.69988911E+0	-1.23500000E+3	2.00000000E+0	-9.80596393E+0	7.16081300E+6
149	02/09/2022	16:11:54.455	5.65156872E+0	-1.23600000E+3	2.00000000E+0	-9.80596393E+0	7.16081300E+6
150	02/09/2022	16:11:56.026	3.49364124E+0	-1.23300000E+3	2.00000000E+0	-9.80596393E+0	7.16081300E+6
151	02/09/2022	16:11:57.406	1.02661664E+0	-1.23300000E+3	2.00000000E+0	-9.80596393E+0	7.16081300E+6
152	02/09/2022	16:11:58.917	1.20800987E+0	-1.23400000E+3	2.00000000E+0	-9.80596393E+0	7.16081300E+6
153	02/09/2022	16:12:00.304	5.97408818E+0	-1.23500000E+3	2.00000000E+0	-9.80596393E+0	7.16081300E+6
154	02/09/2022	16:12:01.713	2.28333040E+0	-1.23500000E+3	2.00000000E+0	-9.80596393E+0	7.16081300E+6
155	02/09/2022	16:12:03.191	2.44746635E+0	-1.23300000E+3	2.00000000E+0	-9.80596393E+0	7.16081300E+6
156	02/09/2022	16:12:04.570	5.97869012E-1	-1.23300000E+3	2.00000000E+0	-9.80596393E+0	7.16081300E+6
157	02/09/2022	16:12:05.970	1.25709726E+0	-1.23300000E+3	2.00000000E+0	-9.80596393E+0	7.16081300E+6
158	02/09/2022	16:12:07.471	4.61383071E+0	-1.23400000E+3	2.00000000E+0	-9.80596393E+0	7.16081300E+6
159	02/09/2022	16:12:08.854	3.49479173E+0	-1.23300000E+3	2.00000000E+0	-9.80596393E+0	7.16081300E+6
160	02/09/2022	16:12:10.338	1.80281092E+0	-1.23500000E+3	2.00000000E+0	-9.80596393E+0	7.16081300E+6
161	02/09/2022	16:12:11.740	5.62280658E+0	-1.23500000E+3	2.00000000E+0	-9.80596393E+0	7.16081300E+6
162	02/09/2022	16:12:13.124	4.08115589E+0	-1.23500000E+3	2.00000000E+0	-9.80596393E+0	7.16081300E+6
163	02/09/2022	16:12:14.694	3.23439849E+0	-1.23300000E+3	2.00000000E+0	-9.80596393E+0	7.16081300E+6
164	02/09/2022	16:12:16.075	5.02685504E+0	-1.23500000E+3	2.00000000E+0	-9.80596393E+0	7.16081300E+6
165	02/09/2022	16:12:17.542	2.58705860E+0	-1.23500000E+3	2.00000000E+0	-9.80596393E+0	7.16081300E+6
166	02/09/2022	16:12:18.888	6.03506391E+0	-1.23300000E+3	2.00000000E+0	-9.80596393E+0	7.16081300E+6
167	02/09/2022	16:12:20.269	2.30288866E+0	-1.23400000E+3	2.00000000E+0	-9.80596393E+0	7.16081300E+6
168	02/09/2022	16:12:21.733	5.21169973E+0	-1.23500000E+3	2.00000000E+0	-9.80596393E+0	7.16081300E+6
169	02/09/2022	16:12:23.132	2.57363627E+0	-1.23300000E+3	2.00000000E+0	-9.80596393E+0	7.16081300E+6
170	02/09/2022	16:12:24.529	5.77888912E+0	-1.23500000E+3	2.00000000E+0	-9.80596393E+0	7.16081300E+6
171	02/09/2022	16:12:26.031	2.21046632E+0	-1.23500000E+3	2.00000000E+0	-9.80596393E+0	7.16081300E+6
172	02/09/2022	16:12:27.412	5.40152985E+0	-1.23400000E+3	2.00000000E+0	-9.80596393E+0	7.16081300E+6
173	02/09/2022	16:12:28.947	2.78647610E+0	-1.23500000E+3	2.00000000E+0	-9.80596393E+0	7.16081300E+6
174	02/09/2022	16:12:30.346	1.76331092E+0	-1.23300000E+3	2.00000000E+0	-9.80596393E+0	7.16081300E+6
175	02/09/2022	16:12:31.727	2.89538874E+0	-1.23500000E+3	2.00000000E+0	-9.80596393E+0	7.16081300E+6
176	02/09/2022	16:12:33.188	4.04165588E+0	-1.23500000E+3	2.00000000E+0	-9.80596393E+0	7.16081300E+6
177	02/09/2022	16:12:34.571	3.88749081E+0	-1.23400000E+3	2.00000000E+0	-9.80596393E+0	7.16081300E+6
178	02/09/2022	16:12:35.975	1.93281579E+0	-1.23500000E+3	2.00000000E+0	-9.80596393E+0	7.16081300E+6
179	02/09/2022	16:12:37.469	2.28448089E+0	-1.23400000E+3	2.00000000E+0	-9.80596393E+0	7.16081300E+6
180	02/09/2022	16:12:38.843	6.24790375E+0	-1.23500000E+3	2.00000000E+0	-9.80596393E+0	7.16081300E+6
181	02/09/2022	16:12:40.346	5.73823863E+0	-1.23500000E+3	2.00000000E+0	-9.80596393E+0	7.16081300E+6
182	02/09/2022	16:12:41.745	4.21384522E+0	-1.23300000E+3	2.00000000E+0	-9.80596393E+0	7.16081300E+6
183	02/09/2022	16:12:43.128	3.60485485E-1	-1.23400000E+3	2.00000000E+0	-9.80596393E+0	7.16081300E+6
184	02/09/2022	16:12:44.626	5.33595217E+0	-1.23400000E+3	2.00000000E+0	-9.80596393E+0	7.16081300E+6
185	02/09/2022	16:12:46.016	3.71376749E+0	-1.23500000E+3	2.00000000E+0	-9.80596393E+0	7.16081300E+6
186	02/09/2022	16:12:47.526	4.83970939E-1	-1.23400000E+3	2.00000000E+0	-9.80596393E+0	7.16081300E+6
187	02/09/2022	16:12:48.962	2.61773821E+0	-1.23300000E+3	2.00000000E+0	-9.80596393E+0	7.16081300E+6
188	02/09/2022	16:12:50.350	3.83111702E+0	-1.23500000E+3	2.00000000E+0	-9.80596393E+0	7.16081300E+6
189	02/09/2022	16:12:51.861	4.25142775E+0	-1.23500000E+3	2.00000000E+0	-9.80596393E+0	7.16081300E+6
190	02/09/2022	16:12:53.253	4.76339384E+0	-1.23400000E+3	2.00000000E+0	-9.80596393E+0	7.16081300E+6
191	02/09/2022	16:12:54.700	4.05392773E+0	-1.23300000E+3	2.00000000E+0	-9.80596393E+0	7.16081300E+6
192	02/09/2022	16:12:56.203	4.48037439E+0	-1.23300000E+3	2.00000000E+0	-9.80596393E+0	7.16081300E+6
193	02/09/2022	16:12:57.637	1.20072346E+0	-1.23400000E+3	2.00000000E+0	-9.80596393E+0	7.16081300E+6
194	02/09/2022	16:12:59.136	2.02562163E+0	-1.23300000E+3	2.00000000E+0	-9.80596393E+0	7.16081300E+6
195	02/09/2022	16:13:00.533	5.76815126E+0	-1.23400000E+3	2.00000000E+0	-9.80596393E+0	7.16081300E+6
196	02/09/2022	16:13:01.925	1.40934485E+0	-1.23400000E+3	2.00000000E+0	-9.80596393E+0	7.16081300E+6
197	02/09/2022	16:13:03.361	1.49563127E-2	-1.23300000E+3	2.00000000E+0	-9.80596393E+0	7.16081300E+6
198	02/09/2022	16:13:04.743	3.50437911E+0	-1.23300000E+3	2.00000000E+0	-9.80596393E+0	7.16081300E+6
199	02/09/2022	16:13:06.127	2.22810709E-1	-1.23400000E+3	2.00000000E+0	-9.80596393E+0	7.16081300E+6
200	02/09/2022	16:13:07.633	3.80158789E+0	-1.23500000E+3	2.00000000E+0	-9.80596393E+0	7.16081300E+6
201	02/09/2022	16:13:09.042	4.54250061E+0	-1.23400000E+3	2.00000000E+0	-9.80596393E+0	7.16081300E+6
202	02/09/2022	16:13:10.561	2.66107317E+0	-1.23500000E+3	2.00000000E+0	-9.80596393E+0	7.16081300E+6
203	02/09/2022	16:13:11.935	4.51949090E+0	-1.23500000E+3	2.00000000E+0	-9.80596393E+0	7.16081300E+6
204	02/09/2022	16:13:13.378	9.66407896E-2	-1.23400000E+3	2.00000000E+0	-9.80596393E+0	7.16081300E+6
205	02/09/2022	16:13:14.887	3.74789856E+0	-1.23500000E+3	2.00000000E+0	-9.80596393E+0	7.16081300E+6
206	02/09/2022	16:13:16.258	1.68852935E+0	-1.23500000E+3	2.00000000E+0	-9.80596393E+0	7.16081300E+6
207	02/09/2022	16:13:17.706	8.28349625E-2	-1.23300000E+3	2.00000000E+0	-9.80596393E+0	7.16081300E+6
208	02/09/2022	16:13:19.164	2.18247117E+0	-1.23300000E+3	2.00000000E+0	-9.80596393E+0	7.16081300E+6
209	02/09/2022	16:13:20.535	5.66690853E+0	-1.23400000E+3	2.00000000E+0	-9.80596393E+0	7.16081300E+6
210	02/09/2022	16:13:22.012	3.93696169E+0	-1.23500000E+3	2.00000000E+0	-9.80596393E+0	7.16081300E+6
211	02/09/2022	16:13:23.411	5.14497156E+0	-1.23400000E+3	2.00000000E+0	-9.80596393E+0	7.16081300E+6
212	02/09/2022	16:13:24.839	2.40067993E+0	-1.23500000E+3	2.00000000E+0	-9.80596393E+0	7.16081300E+6
213	02/09/2022	16:13:26.342	4.41939865E+0	-1.23500000E+3	2.00000000E+0	-9.80596393E+0	7.16081300E+6
214	02/09/2022	16:13:27.746	2.89270427E+0	-1.23400000E+3	2.00000000E+0	-9.80596393E+0	7.16081300E+6
215	02/09/2022	16:13:29.209	5.18485506E-1	-1.23400000E+3	2.00000000E+0	-9.80596393E+0	7.16081300E+6
216	02/09/2022	16:13:30.603	1.66513615E+0	-1.23300000E+3	2.00000000E+0	-9.80596393E+0	7.16081300E+6
217	02/09/2022	16:13:32.018	1.02968460E+0	-1.23300000E+3	2.00000000E+0	-9.80596393E+0	7.16081300E+6
218	02/09/2022	16:13:33.573	2.84553436E+0	-1.23300000E+3	2.00000000E+0	-9.80596393E+0	7.16081300E+6
219	02/09/2022	16:13:34.972	3.34369462E+0	-1.23500000E+3	2.00000000E+0	-9.80596393E+0	7.16081300E+6
220	02/09/2022	16:13:36.416	2.16981582E+0	-1.23400000E+3	2.00000000E+0	-9.80596393E+0	7.16081300E+6
221	02/09/2022	16:13:37.810	6.21147171E+0	-1.23400000E+3	2.00000000E+0	-9.80596393E+0	7.16081300E+6
222	02/09/2022	16:13:39.193	1.11290306E+0	-1.23300000E+3	2.00000000E+0	-9.80596393E+0	7.16081300E+6
223	02/09/2022	16:13:40.745	2.80718484E-1	-1.23300000E+3	2.00000000E+0	-9.80596393E+0	7.16081300E+6
224	02/09/2022	16:13:42.132	3.18531111E+0	-1.23500000E+3	2.00000000E+0	-9.80596393E+0	7.16081300E+6
225	02/09/2022	16:13:43.543	2.00376240E+0	-1.23500000E+3	2.00000000E+0	-9.80596393E+0	7.16081300E+6
226	02/09/2022	16:13:45.043	3.93657820E+0	-1.23500000E+3	2.00000000E+0	-9.80596393E+0	7.16081300E+6
227	02/09/2022	16:13:46.428	1.47492253E+0	-1.23400000E+3	2.00000000E+0	-9.80596393E+0	7.16081300E+6
228	02/09/2022	16:13:47.912	1.99724299E+0	-1.23400000E+3	2.00000000E+0	-9.80596393E+0	7.16081300E+6
229	02/09/2022	16:13:49.349	1.24290793E+0	-1.23400000E+3	2.00000000E+0	-9.80596393E+0	7.16081300E+6
230	02/09/2022	16:13:50.729	3.89439373E+0	-1.23300000E+3	2.00000000E+0	-9.80596393E+0	7.16081300E+6
231	02/09/2022	16:13:52.219	4.60270935E+0	-1.23500000E+3	2.00000000E+0	-9.80596393E+0	7.16081300E+6
232	02/09/2022	16:13:53.602	5.04794728E+0	-1.23300000E+3	2.00000000E+0	-9.80596393E+0	7.16081300E+6
233	02/09/2022	16:13:55.038	1.77059732E+0	-1.23500000E+3	2.00000000E+0	-9.80596393E+0	7.16081300E+6
234	02/09/2022	16:13:56.546	1.18500016E+0	-1.23500000E+3	2.00000000E+0	-9.80596393E+0	7.16081300E+6
235	02/09/2022	16:13:57.939	5.71177746E+0	-1.23300000E+3	2.00000000E+0	-9.80596393E+0	7.16081300E+6
236	02/09/2022	16:13:59.405	2.79529649E+0	-1.23300000E+3	2.00000000E+0	-9.80596393E+0	7.16081300E+6
237	02/09/2022	16:14:00.787	1.60876235E+0	-1.23500000E+3	2.00000000E+0	-9.80596393E+0	7.16081300E+6
238	02/09/2022	16:14:02.180	4.61996664E+0	-1.23300000E+3	2.00000000E+0	-9.80596393E+0	7.16081300E+6
239	02/09/2022	16:14:03.672	9.56820516E-1	-1.23400000E+3	2.00000000E+0	-9.80596393E+0	7.16081300E+6
240	02/09/2022	16:14:05.049	4.30396660E+0	-1.23300000E+3	2.00000000E+0	-9.80596393E+0	7.16081300E+6
241	02/09/2022	16:14:06.619	1.84998083E+0	-1.23400000E+3	2.00000000E+0	-9.80596393E+0	7.16081300E+6
242	02/09/2022	16:14:08.035	5.37621917E+0	-1.23500000E+3	2.00000000E+0	-9.80596393E+0	7.16081300E+6
243	02/09/2022	16:14:09.424	3.32835481E+0	-1.23400000E+3	2.00000000E+0	-9.80596393E+0	7.16081300E+6
244	02/09/2022	16:14:11.008	2.44708285E+0	-1.23500000E+3	2.00000000E+0	-9.80596393E+0	7.16081300E+6
245	02/09/2022	16:14:12.402	4.54135012E+0	-1.23300000E+3	2.00000000E+0	-9.80596393E+0	7.16081300E+6
246	02/09/2022	16:14:13.851	5.60708327E+0	-1.23400000E+3	2.00000000E+0	-9.80596393E+0	7.16081300E+6
247	02/09/2022	16:14:15.367	3.09212177E+0	-1.23300000E+3	2.00000000E+0	-9.80596393E+0	7.16081300E+6
248	02/09/2022	16:14:16.744	3.12701984E+0	-1.23400000E+3	2.00000000E+0	-9.80596393E+0	7.16081300E+6
249	02/09/2022	16:14:18.207	1.90635462E+0	-1.23400000E+3	2.00000000E+0	-9.80596393E+0	7.16081300E+6
250	02/09/2022	16:14:19.618	5.99671440E+0	-1.23400000E+3	2.00000000E+0	-9.80596393E+0	7.16081300E+6
251	02/09/2022	16:14:20.994	4.04434035E+0	-1.23500000E+3	2.00000000E+0	-9.80596393E+0	7.16081300E+6
252	02/09/2022	16:14:22.537	8.10325351E-1	-1.23300000E+3	2.00000000E+0	-9.80596393E+0	7.16081300E+6
253	02/09/2022	16:14:23.937	2.52071393E+0	-1.23300000E+3	2.00000000E+0	-9.80596393E+0	7.16081300E+6
254	02/09/2022	16:14:25.362	4.26216562E+0	-1.23300000E+3	2.00000000E+0	-9.80596393E+0	7.16081300E+6
255	02/09/2022	16:14:26.756	4.28632582E+0	-1.23500000E+3	2.00000000E+0	-9.80596393E+0	7.16081300E+6
256	02/09/2022	16:14:28.144	4.21499571E+0	-1.23300000E+3	2.00000000E+0	-9.80596393E+0	7.16081300E+6
257	02/09/2022	16:14:29.702	5.55876288E+0	-1.23400000E+3	2.00000000E+0	-9.80596393E+0	7.16081300E+6
258	02/09/2022	16:14:31.074	6.16315131E+0	-1.23500000E+3	2.00000000E+0	-9.80596393E+0	7.16081300E+6
259	02/09/2022	16:14:32.522	5.11122399E+0	-1.23300000E+3	2.00000000E+0	-9.80596393E+0	7.16081300E+6
260	02/09/2022	16:14:34.031	2.65570424E+0	-1.23300000E+3	2.00000000E+0	-9.80596393E+0	7.16081300E+6
261	02/09/2022	16:14:35.412	5.25235022E+0	-1.23500000E+3	2.00000000E+0	-9.80596393E+0	7.16081300E+6
262	02/09/2022	16:14:36.892	3.54541310E+0	-1.23400000E+3	2.00000000E+0	-9.80596393E+0	7.16081300E+6
263	02/09/2022	16:14:38.284	9.59121488E-1	-1.23400000E+3	2.00000000E+0	-9.80596393E+0	7.16081300E+6
264	02/09/2022	16:14:39.664	1.85228180E+0	-1.23500000E+3	2.00000000E+0	-9.80596393E+0	7.16081300E+6
265	02/09/2022	16:14:41.161	3.73447623E+0	-1.23500000E+3	2.00000000E+0	-9.80596393E+0	7.16081300E+6
266	02/09/2022	16:14:42.566	2.55599549E+0	-1.23300000E+3	2.00000000E+0	-9.80596393E+0	7.16081300E+6
267	02/09/2022	16:14:44.000	2.26338865E+0	-1.23500000E+3	2.00000000E+0	-9.80596393E+0	7.16081300E+6
268	02/09/2022	16:14:45.523	4.87844240E+0	-1.23300000E+3	2.00000000E+0	-9.80596393E+0	7.16081300E+6
269	02/09/2022	16:14:46.953	5.76239883E+0	-1.23500000E+3	2.00000000E+0	-9.80596393E+0	7.16081300E+6
270	02/09/2022	16:14:48.456	1.67203906E+0	-1.23400000E+3	2.00000000E+0	-9.80596393E+0	7.16081300E+6
271	02/09/2022	16:14:49.849	6.23793287E+0	-1.23400000E+3	2.00000000E+0	-9.80596393E+0	7.16081300E+6
272	02/09/2022	16:14:51.222	5.24084536E+0	-1.23300000E+3	2.00000000E+0	-9.80596393E+0	7.16081300E+6
273	02/09/2022	16:14:52.687	3.91663645E+0	-1.23300000E+3	2.00000000E+0	-9.80596393E+0	7.16081300E+6
274	02/09/2022	16:14:54.098	4.97508319E+0	-1.23300000E+3	2.00000000E+0	-9.80596393E+0	7.16081300E+6
275	02/09/2022	16:14:55.544	1.07033509E+0	-1.23400000E+3	2.00000000E+0	-9.80596393E+0	7.16081300E+6
276	02/09/2022	16:14:56.933	3.27926743E+0	-1.23300000E+3	2.00000000E+0	-9.80596393E+0	7.16081300E+6
277	02/09/2022	16:14:58.323	3.82076265E+0	-1.23500000E+3	2.00000000E+0	-9.80596393E+0	7.16081300E+6
278	02/09/2022	16:14:59.883	2.41947120E+0	-1.23400000E+3	2.00000000E+0	-9.80596393E+0	7.16081300E+6
279	02/09/2022	16:15:01.265	4.97086474E+0	-1.23300000E+3	2.00000000E+0	-9.80596393E+0	7.16081300E+6
280	02/09/2022	16:15:02.653	3.10132566E+0	-1.23500000E+3	2.00000000E+0	-9.80596393E+0	7.16081300E+6
281	02/09/2022	16:15:04.155	4.85198123E+0	-1.23500000E+3	2.00000000E+0	-9.80596393E+0	7.16081300E+6
282	02/09/2022	16:15:05.529	2.02447114E+0	-1.23500000E+3	2.00000000E+0	-9.80596393E+0	7.16081300E+6
283	02/09/2022	16:15:07.043	5.63507842E+0	-1.23500000E+3	2.00000000E+0	-9.80596393E+0	7.16081300E+6
284	02/09/2022	16:15:08.438	2.87889844E+0	-1.23400000E+3	2.00000000E+0	-9.80596393E+0	7.16081300E+6
285	02/09/2022	16:15:09.811	4.15363648E+0	-1.23500000E+3	2.00000000E+0	-9.80596393E+0	7.16081300E+6
286	02/09/2022	16:15:11.314	2.78801008E-1	-1.23400000E+3	2.00000000E+0	-9.80596393E+0	7.16081300E+6
287	02/09/2022	16:15:12.702	2.09388378E-1	-1.23400000E+3	2.00000000E+0	-9.80596393E+0	7.16081300E+6
288	02/09/2022	16:15:14.118	2.35811197E+0	-1.23400000E+3	2.00000000E+0	-9.80596393E+0	7.16081300E+6
289	02/09/2022	16:15:15.622	2.38265566E+0	-1.23400000E+3	2.00000000E+0	-9.80596393E+0	7.16081300E+6
290	02/09/2022	16:15:17.017	2.15639349E+0	-1.23400000E+3	2.00000000E+0	-9.80596393E+0	7.16081300E+6
291	02/09/2022	16:15:18.502	3.95767043E-1	-1.23300000E+3	2.00000000E+0	-9.80596393E+0	7.16081300E+6
292	02/09/2022	16:15:19.889	2.57056831E+0	-1.23400000E+3	2.00000000E+0	-9.80596393E+0	7.16081300E+6
293	02/09/2022	16:15:21.328	3.02347613E+0	-1.23400000E+3	2.00000000E+0	-9.80596393E+0	7.16081300E+6
294	02/09/2022	16:15:22.853	6.18002510E+0	-1.23400000E+3	2.00000000E+0	-9.80596393E+0	7.16081300E+6
295	02/09/2022	16:15:24.240	3.05223827E+0	-1.23500000E+3	2.00000000E+0	-9.80596393E+0	7.16081300E+6
296	02/09/2022	16:15:25.808	3.65470923E+0	-1.23300000E+3	2.00000000E+0	-9.80596393E+0	7.16081300E+6
297	02/09/2022	16:15:27.217	2.21545175E+0	-1.23300000E+3	2.00000000E+0	-9.80596393E+0	7.16081300E+6
298	02/09/2022	16:15:28.599	4.14251512E+0	-1.23300000E+3	2.00000000E+0	-9.80596393E+0	7.16081300E+6
299	02/09/2022	16:15:30.133	3.10017517E+0	-1.23400000E+3	2.00000000E+0	-9.80596393E+0	7.16081300E+6
300	02/09/2022	16:15:31.519	2.34967507E+0	-1.23300000E+3	2.00000000E+0	-9.80596393E+0	7.16081300E+6
301	02/09/2022	16:15:33.059	2.17250029E+0	-1.23300000E+3	2.00000000E+0	-9.80596393E+0	7.16081300E+6
