#Iteration	Date	Time	STSX	STSY	RotationRateX	RotationRateY	FrCntX	FrCntY	TiptiltCmd1	TiptiltCmd2	TiptiltMonitor1	TiptiltMonitor2
1	02/09/2022	16:08:21.273	0.00000E+0	0.00000E+0	0.00000E+0	0.00000E+0	0.00000E+0	0.00000E+0	2.00000E+1	1.40000E+1	1.99996E+1	1.40019E+1
2	02/09/2022	16:08:22.827	0.00000E+0	0.00000E+0	0.00000E+0	0.00000E+0	0.00000E+0	0.00000E+0	2.00000E+1	1.40000E+1	2.00002E+1	1.39974E+1
3	02/09/2022	16:08:24.404	0.00000E+0	0.00000E+0	0.00000E+0	0.00000E+0	0.00000E+0	0.00000E+0	2.00000E+1	1.40000E+1	1.99990E+1	1.39997E+1
4	02/09/2022	16:08:25.793	0.00000E+0	0.00000E+0	0.00000E+0	0.00000E+0	0.00000E+0	0.00000E+0	2.00000E+1	1.40000E+1	1.99983E+1	1.40012E+1
5	02/09/2022	16:08:27.168	0.00000E+0	0.00000E+0	0.00000E+0	0.00000E+0	0.00000E+0	0.00000E+0	2.00000E+1	1.40000E+1	2.00010E+1	1.39994E+1
6	02/09/2022	16:08:28.696	0.00000E+0	0.00000E+0	0.00000E+0	0.00000E+0	0.00000E+0	0.00000E+0	2.00000E+1	1.40000E+1	1.99993E+1	1.39998E+1
7	02/09/2022	16:08:30.083	0.00000E+0	0.00000E+0	0.00000E+0	0.00000E+0	0.00000E+0	0.00000E+0	2.00000E+1	1.40000E+1	2.00028E+1	1.39999E+1
8	02/09/2022	16:08:31.577	0.00000E+0	0.00000E+0	0.00000E+0	0.00000E+0	0.00000E+0	0.00000E+0	2.00000E+1	1.40000E+1	2.00002E+1	1.40006E+1
9	02/09/2022	16:08:32.976	0.00000E+0	0.00000E+0	0.00000E+0	0.00000E+0	0.00000E+0	0.00000E+0	2.00000E+1	1.40000E+1	2.00003E+1	1.39997E+1
10	02/09/2022	16:08:34.359	0.00000E+0	0.00000E+0	0.00000E+0	0.00000E+0	0.00000E+0	0.00000E+0	2.00000E+1	1.40000E+1	1.99995E+1	1.40011E+1
11	02/09/2022	16:08:35.838	0.00000E+0	0.00000E+0	0.00000E+0	0.00000E+0	0.00000E+0	0.00000E+0	2.00000E+1	1.40000E+1	1.99982E+1	1.39997E+1
12	02/09/2022	16:08:37.229	0.00000E+0	0.00000E+0	0.00000E+0	0.00000E+0	0.00000E+0	0.00000E+0	2.00000E+1	1.40000E+1	1.99997E+1	1.40004E+1
13	02/09/2022	16:08:38.618	0.00000E+0	0.00000E+0	0.00000E+0	0.00000E+0	0.00000E+0	0.00000E+0	2.00000E+1	1.40000E+1	2.00003E+1	1.40003E+1
14	02/09/2022	16:08:40.049	0.00000E+0	0.00000E+0	0.00000E+0	0.00000E+0	0.00000E+0	0.00000E+0	2.00000E+1	1.40000E+1	2.00009E+1	1.40020E+1
15	02/09/2022	16:08:41.441	0.00000E+0	0.00000E+0	0.00000E+0	0.00000E+0	0.00000E+0	0.00000E+0	2.00000E+1	1.40000E+1	1.99998E+1	1.39998E+1
16	02/09/2022	16:08:43.013	0.00000E+0	0.00000E+0	0.00000E+0	0.00000E+0	0.00000E+0	0.00000E+0	2.00000E+1	1.40000E+1	1.99996E+1	1.39997E+1
17	02/09/2022	16:08:44.403	0.00000E+0	0.00000E+0	0.00000E+0	0.00000E+0	0.00000E+0	0.00000E+0	2.00000E+1	1.40000E+1	1.99984E+1	1.39988E+1
18	02/09/2022	16:08:45.787	0.00000E+0	0.00000E+0	0.00000E+0	0.00000E+0	0.00000E+0	0.00000E+0	2.00000E+1	1.40000E+1	1.99979E+1	1.40000E+1
19	02/09/2022	16:08:47.245	0.00000E+0	0.00000E+0	0.00000E+0	0.00000E+0	0.00000E+0	0.00000E+0	2.00000E+1	1.40000E+1	1.99991E+1	1.40021E+1
20	02/09/2022	16:08:48.637	0.00000E+0	0.00000E+0	0.00000E+0	0.00000E+0	0.00000E+0	0.00000E+0	2.00000E+1	1.40000E+1	1.99998E+1	1.40008E+1
21	02/09/2022	16:08:50.197	0.00000E+0	0.00000E+0	0.00000E+0	0.00000E+0	0.00000E+0	0.00000E+0	2.00000E+1	1.40000E+1	2.00002E+1	1.39996E+1
22	02/09/2022	16:08:51.592	0.00000E+0	0.00000E+0	0.00000E+0	0.00000E+0	0.00000E+0	0.00000E+0	2.00000E+1	1.40000E+1	2.00005E+1	1.40009E+1
23	02/09/2022	16:08:52.990	0.00000E+0	0.00000E+0	0.00000E+0	0.00000E+0	0.00000E+0	0.00000E+0	2.00000E+1	1.40000E+1	2.00011E+1	1.40000E+1
24	02/09/2022	16:08:54.536	0.00000E+0	0.00000E+0	0.00000E+0	0.00000E+0	0.00000E+0	0.00000E+0	2.00000E+1	1.40000E+1	2.00003E+1	1.39984E+1
25	02/09/2022	16:08:55.914	0.00000E+0	0.00000E+0	0.00000E+0	0.00000E+0	0.00000E+0	0.00000E+0	2.00000E+1	1.40000E+1	1.99990E+1	1.40018E+1
26	02/09/2022	16:08:57.367	0.00000E+0	0.00000E+0	0.00000E+0	0.00000E+0	0.00000E+0	0.00000E+0	2.00000E+1	1.40000E+1	2.00024E+1	1.40009E+1
27	02/09/2022	16:08:58.862	0.00000E+0	0.00000E+0	0.00000E+0	0.00000E+0	0.00000E+0	0.00000E+0	2.00000E+1	1.40000E+1	2.00015E+1	1.39996E+1
28	02/09/2022	16:09:00.237	0.00000E+0	0.00000E+0	0.00000E+0	0.00000E+0	0.00000E+0	0.00000E+0	2.00000E+1	1.40000E+1	1.99993E+1	1.39994E+1
29	02/09/2022	16:09:01.708	0.00000E+0	0.00000E+0	0.00000E+0	0.00000E+0	0.00000E+0	0.00000E+0	2.00000E+1	1.40000E+1	1.99990E+1	1.40034E+1
30	02/09/2022	16:09:03.149	0.00000E+0	0.00000E+0	0.00000E+0	0.00000E+0	0.00000E+0	0.00000E+0	2.00000E+1	1.40000E+1	1.99990E+1	1.40000E+1
31	02/09/2022	16:09:04.540	0.00000E+0	0.00000E+0	0.00000E+0	0.00000E+0	0.00000E+0	0.00000E+0	2.00000E+1	1.40000E+1	2.00021E+1	1.40009E+1
32	02/09/2022	16:09:06.023	0.00000E+0	0.00000E+0	0.00000E+0	0.00000E+0	0.00000E+0	0.00000E+0	2.00000E+1	1.40000E+1	1.99995E+1	1.40009E+1
33	02/09/2022	16:09:07.457	0.00000E+0	0.00000E+0	0.00000E+0	0.00000E+0	0.00000E+0	0.00000E+0	2.00000E+1	1.40000E+1	2.00029E+1	1.40021E+1
34	02/09/2022	16:09:08.940	0.00000E+0	0.00000E+0	0.00000E+0	0.00000E+0	0.00000E+0	0.00000E+0	2.00000E+1	1.40000E+1	2.00019E+1	1.39989E+1
35	02/09/2022	16:09:10.384	0.00000E+0	0.00000E+0	0.00000E+0	0.00000E+0	0.00000E+0	0.00000E+0	2.00000E+1	1.40000E+1	2.00014E+1	1.40011E+1
36	02/09/2022	16:09:11.777	0.00000E+0	0.00000E+0	0.00000E+0	0.00000E+0	0.00000E+0	0.00000E+0	2.00000E+1	1.40000E+1	1.99989E+1	1.40011E+1
37	02/09/2022	16:09:13.259	0.00000E+0	0.00000E+0	0.00000E+0	0.00000E+0	0.00000E+0	0.00000E+0	2.00000E+1	1.40000E+1	2.00005E+1	1.39991E+1
38	02/09/2022	16:09:14.644	0.00000E+0	0.00000E+0	0.00000E+0	0.00000E+0	0.00000E+0	0.00000E+0	2.00000E+1	1.40000E+1	2.00003E+1	1.40001E+1
39	02/09/2022	16:09:16.034	0.00000E+0	0.00000E+0	0.00000E+0	0.00000E+0	0.00000E+0	0.00000E+0	2.00000E+1	1.40000E+1	1.99998E+1	1.39991E+1
40	02/09/2022	16:09:17.599	0.00000E+0	0.00000E+0	0.00000E+0	0.00000E+0	0.00000E+0	0.00000E+0	2.00000E+1	1.40000E+1	2.00025E+1	1.39990E+1
41	02/09/2022	16:09:18.977	0.00000E+0	0.00000E+0	0.00000E+0	0.00000E+0	0.00000E+0	0.00000E+0	2.00000E+1	1.40000E+1	1.99991E+1	1.39984E+1
42	02/09/2022	16:09:20.515	0.00000E+0	0.00000E+0	0.00000E+0	0.00000E+0	0.00000E+0	0.00000E+0	2.00000E+1	1.40000E+1	1.99981E+1	1.39987E+1
43	02/09/2022	16:09:21.898	0.00000E+0	0.00000E+0	0.00000E+0	0.00000E+0	0.00000E+0	0.00000E+0	2.00000E+1	1.40000E+1	1.99997E+1	1.40017E+1
44	02/09/2022	16:09:23.279	0.00000E+0	0.00000E+0	0.00000E+0	0.00000E+0	0.00000E+0	0.00000E+0	2.00000E+1	1.40000E+1	2.00008E+1	1.39997E+1
45	02/09/2022	16:09:24.778	0.00000E+0	0.00000E+0	0.00000E+0	0.00000E+0	0.00000E+0	0.00000E+0	2.00000E+1	1.40000E+1	2.00002E+1	1.39998E+1
46	02/09/2022	16:09:26.181	0.00000E+0	0.00000E+0	0.00000E+0	0.00000E+0	0.00000E+0	0.00000E+0	2.00000E+1	1.40000E+1	1.99984E+1	1.39995E+1
47	02/09/2022	16:09:27.570	0.00000E+0	0.00000E+0	0.00000E+0	0.00000E+0	0.00000E+0	0.00000E+0	2.00000E+1	1.40000E+1	1.99991E+1	1.40022E+1
48	02/09/2022	16:09:29.073	0.00000E+0	0.00000E+0	0.00000E+0	0.00000E+0	0.00000E+0	0.00000E+0	2.00000E+1	1.40000E+1	1.99973E+1	1.39995E+1
49	02/09/2022	16:09:30.483	0.00000E+0	0.00000E+0	0.00000E+0	0.00000E+0	0.00000E+0	0.00000E+0	2.00000E+1	1.40000E+1	2.00011E+1	1.40003E+1
50	02/09/2022	16:09:32.014	0.00000E+0	0.00000E+0	0.00000E+0	0.00000E+0	0.00000E+0	0.00000E+0	2.00000E+1	1.40000E+1	2.00021E+1	1.40018E+1
51	02/09/2022	16:09:33.394	0.00000E+0	0.00000E+0	0.00000E+0	0.00000E+0	0.00000E+0	0.00000E+0	2.00000E+1	1.40000E+1	1.99997E+1	1.40025E+1
52	02/09/2022	16:09:34.785	0.00000E+0	0.00000E+0	0.00000E+0	0.00000E+0	0.00000E+0	0.00000E+0	2.00000E+1	1.40000E+1	1.99998E+1	1.39990E+1
53	02/09/2022	16:09:36.345	0.00000E+0	0.00000E+0	0.00000E+0	0.00000E+0	0.00000E+0	0.00000E+0	2.00000E+1	1.40000E+1	1.99987E+1	1.39981E+1
54	02/09/2022	16:09:37.729	0.00000E+0	0.00000E+0	0.00000E+0	0.00000E+0	0.00000E+0	0.00000E+0	2.00000E+1	1.40000E+1	2.00028E+1	1.39980E+1
55	02/09/2022	16:09:39.168	0.00000E+0	0.00000E+0	0.00000E+0	0.00000E+0	0.00000E+0	0.00000E+0	2.00000E+1	1.40000E+1	1.99991E+1	1.40015E+1
56	02/09/2022	16:09:40.570	0.00000E+0	0.00000E+0	0.00000E+0	0.00000E+0	0.00000E+0	0.00000E+0	2.00000E+1	1.40000E+1	1.99982E+1	1.39981E+1
57	02/09/2022	16:09:41.952	0.00000E+0	0.00000E+0	0.00000E+0	0.00000E+0	0.00000E+0	0.00000E+0	2.00000E+1	1.40000E+1	2.00013E+1	1.40011E+1
58	02/09/2022	16:09:43.491	0.00000E+0	0.00000E+0	0.00000E+0	0.00000E+0	0.00000E+0	0.00000E+0	2.00000E+1	1.40000E+1	1.99972E+1	1.40000E+1
59	02/09/2022	16:09:44.867	0.00000E+0	0.00000E+0	0.00000E+0	0.00000E+0	0.00000E+0	0.00000E+0	2.00000E+1	1.40000E+1	2.00024E+1	1.39997E+1
60	02/09/2022	16:09:46.321	0.00000E+0	0.00000E+0	0.00000E+0	0.00000E+0	0.00000E+0	0.00000E+0	2.00000E+1	1.40000E+1	2.00002E+1	1.39997E+1
61	02/09/2022	16:09:47.842	0.00000E+0	0.00000E+0	0.00000E+0	0.00000E+0	0.00000E+0	0.00000E+0	2.00000E+1	1.40000E+1	2.00018E+1	1.39993E+1
62	02/09/2022	16:09:49.233	0.00000E+0	0.00000E+0	0.00000E+0	0.00000E+0	0.00000E+0	0.00000E+0	2.00000E+1	1.40000E+1	2.00004E+1	1.40015E+1
63	02/09/2022	16:09:50.773	0.00000E+0	0.00000E+0	0.00000E+0	0.00000E+0	0.00000E+0	0.00000E+0	2.00000E+1	1.40000E+1	1.99998E+1	1.40005E+1
64	02/09/2022	16:09:52.154	0.00000E+0	0.00000E+0	0.00000E+0	0.00000E+0	0.00000E+0	0.00000E+0	2.00000E+1	1.40000E+1	2.00005E+1	1.39971E+1
65	02/09/2022	16:09:53.568	0.00000E+0	0.00000E+0	0.00000E+0	0.00000E+0	0.00000E+0	0.00000E+0	2.00000E+1	1.40000E+1	2.00031E+1	1.40010E+1
66	02/09/2022	16:09:55.066	0.00000E+0	0.00000E+0	0.00000E+0	0.00000E+0	0.00000E+0	0.00000E+0	2.00000E+1	1.40000E+1	2.00018E+1	1.39998E+1
67	02/09/2022	16:09:56.470	0.00000E+0	0.00000E+0	0.00000E+0	0.00000E+0	0.00000E+0	0.00000E+0	2.00000E+1	1.40000E+1	1.99995E+1	1.39996E+1
68	02/09/2022	16:09:57.909	0.00000E+0	0.00000E+0	0.00000E+0	0.00000E+0	0.00000E+0	0.00000E+0	2.00000E+1	1.40000E+1	2.00004E+1	1.40001E+1
69	02/09/2022	16:09:59.397	0.00000E+0	0.00000E+0	0.00000E+0	0.00000E+0	0.00000E+0	0.00000E+0	2.00000E+1	1.40000E+1	2.00003E+1	1.40000E+1
70	02/09/2022	16:10:00.802	0.00000E+0	0.00000E+0	0.00000E+0	0.00000E+0	0.00000E+0	0.00000E+0	2.00000E+1	1.40000E+1	2.00008E+1	1.40031E+1
71	02/09/2022	16:10:02.284	0.00000E+0	0.00000E+0	0.00000E+0	0.00000E+0	0.00000E+0	0.00000E+0	2.00000E+1	1.40000E+1	2.00026E+1	1.39986E+1
72	02/09/2022	16:10:03.673	0.00000E+0	0.00000E+0	0.00000E+0	0.00000E+0	0.00000E+0	0.00000E+0	2.00000E+1	1.40000E+1	2.00001E+1	1.40003E+1
73	02/09/2022	16:10:05.058	0.00000E+0	0.00000E+0	0.00000E+0	0.00000E+0	0.00000E+0	0.00000E+0	2.00000E+1	1.40000E+1	2.00006E+1	1.40014E+1
74	02/09/2022	16:10:06.570	0.00000E+0	0.00000E+0	0.00000E+0	0.00000E+0	0.00000E+0	0.00000E+0	2.00000E+1	1.40000E+1	2.00005E+1	1.39994E+1
75	02/09/2022	16:10:07.954	0.00000E+0	0.00000E+0	0.00000E+0	0.00000E+0	0.00000E+0	0.00000E+0	2.00000E+1	1.40000E+1	2.00014E+1	1.40002E+1
76	02/09/2022	16:10:09.448	0.00000E+0	0.00000E+0	0.00000E+0	0.00000E+0	0.00000E+0	0.00000E+0	2.00000E+1	1.40000E+1	1.99986E+1	1.39997E+1
77	02/09/2022	16:10:10.886	0.00000E+0	0.00000E+0	0.00000E+0	0.00000E+0	0.00000E+0	0.00000E+0	2.00000E+1	1.40000E+1	1.99984E+1	1.39989E+1
78	02/09/2022	16:10:12.282	0.00000E+0	0.00000E+0	0.00000E+0	0.00000E+0	0.00000E+0	0.00000E+0	2.00000E+1	1.40000E+1	2.00013E+1	1.39998E+1
79	02/09/2022	16:10:13.787	0.00000E+0	0.00000E+0	0.00000E+0	0.00000E+0	0.00000E+0	0.00000E+0	2.00000E+1	1.40000E+1	2.00012E+1	1.40011E+1
80	02/09/2022	16:10:15.187	0.00000E+0	0.00000E+0	0.00000E+0	0.00000E+0	0.00000E+0	0.00000E+0	2.00000E+1	1.40000E+1	1.99998E+1	1.39991E+1
81	02/09/2022	16:10:16.627	0.00000E+0	0.00000E+0	0.00000E+0	0.00000E+0	0.00000E+0	0.00000E+0	2.00000E+1	1.40000E+1	2.00013E+1	1.40022E+1
82	02/09/2022	16:10:18.122	0.00000E+0	0.00000E+0	0.00000E+0	0.00000E+0	0.00000E+0	0.00000E+0	2.00000E+1	1.40000E+1	2.00007E+1	1.40007E+1
83	02/09/2022	16:10:19.553	0.00000E+0	0.00000E+0	0.00000E+0	0.00000E+0	0.00000E+0	0.00000E+0	2.00000E+1	1.40000E+1	1.99983E+1	1.40007E+1
84	02/09/2022	16:10:21.037	0.00000E+0	0.00000E+0	0.00000E+0	0.00000E+0	0.00000E+0	0.00000E+0	2.00000E+1	1.40000E+1	1.99999E+1	1.40006E+1
85	02/09/2022	16:10:22.417	0.00000E+0	0.00000E+0	0.00000E+0	0.00000E+0	0.00000E+0	0.00000E+0	2.00000E+1	1.40000E+1	1.99995E+1	1.39997E+1
86	02/09/2022	16:10:23.814	0.00000E+0	0.00000E+0	0.00000E+0	0.00000E+0	0.00000E+0	0.00000E+0	2.00000E+1	1.40000E+1	1.99998E+1	1.40009E+1
87	02/09/2022	16:10:25.407	0.00000E+0	0.00000E+0	0.00000E+0	0.00000E+0	0.00000E+0	0.00000E+0	2.00000E+1	1.40000E+1	1.99996E+1	1.40009E+1
88	02/09/2022	16:10:26.800	0.00000E+0	0.00000E+0	0.00000E+0	0.00000E+0	0.00000E+0	0.00000E+0	2.00000E+1	1.40000E+1	2.00036E+1	1.40004E+1
89	02/09/2022	16:10:28.244	0.00000E+0	0.00000E+0	0.00000E+0	0.00000E+0	0.00000E+0	0.00000E+0	2.00000E+1	1.40000E+1	2.00008E+1	1.39998E+1
90	02/09/2022	16:10:29.737	0.00000E+0	0.00000E+0	0.00000E+0	0.00000E+0	0.00000E+0	0.00000E+0	2.00000E+1	1.40000E+1	1.99977E+1	1.39989E+1
91	02/09/2022	16:10:31.135	0.00000E+0	0.00000E+0	0.00000E+0	0.00000E+0	0.00000E+0	0.00000E+0	2.00000E+1	1.40000E+1	1.99969E+1	1.39992E+1
92	02/09/2022	16:10:32.710	0.00000E+0	0.00000E+0	0.00000E+0	0.00000E+0	0.00000E+0	0.00000E+0	2.00000E+1	1.40000E+1	2.00009E+1	1.40020E+1
93	02/09/2022	16:10:34.091	0.00000E+0	0.00000E+0	0.00000E+0	0.00000E+0	0.00000E+0	0.00000E+0	2.00000E+1	1.40000E+1	1.99971E+1	1.39991E+1
94	02/09/2022	16:10:35.554	0.00000E+0	0.00000E+0	0.00000E+0	0.00000E+0	0.00000E+0	0.00000E+0	2.00000E+1	1.40000E+1	1.99998E+1	1.39994E+1
95	02/09/2022	16:10:37.057	0.00000E+0	0.00000E+0	0.00000E+0	0.00000E+0	0.00000E+0	0.00000E+0	2.00000E+1	1.40000E+1	2.00030E+1	1.39993E+1
96	02/09/2022	16:10:38.444	0.00000E+0	0.00000E+0	0.00000E+0	0.00000E+0	0.00000E+0	0.00000E+0	2.00000E+1	1.40000E+1	1.99995E+1	1.39981E+1
97	02/09/2022	16:10:39.941	0.00000E+0	0.00000E+0	0.00000E+0	0.00000E+0	0.00000E+0	0.00000E+0	2.00000E+1	1.40000E+1	2.00000E+1	1.39982E+1
98	02/09/2022	16:10:41.330	0.00000E+0	0.00000E+0	0.00000E+0	0.00000E+0	0.00000E+0	0.00000E+0	2.00000E+1	1.40000E+1	2.00008E+1	1.40018E+1
99	02/09/2022	16:10:42.712	0.00000E+0	0.00000E+0	0.00000E+0	0.00000E+0	0.00000E+0	0.00000E+0	2.00000E+1	1.40000E+1	1.99994E+1	1.40005E+1
100	02/09/2022	16:10:44.197	0.00000E+0	0.00000E+0	0.00000E+0	0.00000E+0	0.00000E+0	0.00000E+0	2.00000E+1	1.40000E+1	2.00030E+1	1.40000E+1
101	02/09/2022	16:10:45.586	0.00000E+0	0.00000E+0	0.00000E+0	0.00000E+0	0.00000E+0	0.00000E+0	2.00000E+1	1.40000E+1	2.00013E+1	1.39984E+1
102	02/09/2022	16:10:47.003	0.00000E+0	0.00000E+0	0.00000E+0	0.00000E+0	0.00000E+0	0.00000E+0	2.00000E+1	1.40000E+1	2.00015E+1	1.39982E+1
103	02/09/2022	16:10:48.503	0.00000E+0	0.00000E+0	0.00000E+0	0.00000E+0	0.00000E+0	0.00000E+0	2.00000E+1	1.40000E+1	2.00008E+1	1.39997E+1
104	02/09/2022	16:10:49.884	0.00000E+0	0.00000E+0	0.00000E+0	0.00000E+0	0.00000E+0	0.00000E+0	2.00000E+1	1.40000E+1	2.00012E+1	1.40007E+1
105	02/09/2022	16:10:51.350	0.00000E+0	0.00000E+0	0.00000E+0	0.00000E+0	0.00000E+0	0.00000E+0	2.00000E+1	1.40000E+1	1.99998E+1	1.39994E+1
106	02/09/2022	16:10:52.742	0.00000E+0	0.00000E+0	0.00000E+0	0.00000E+0	0.00000E+0	0.00000E+0	2.00000E+1	1.40000E+1	2.00001E+1	1.40007E+1
107	02/09/2022	16:10:54.155	0.00000E+0	0.00000E+0	0.00000E+0	0.00000E+0	0.00000E+0	0.00000E+0	2.00000E+1	1.40000E+1	2.00021E+1	1.40019E+1
108	02/09/2022	16:10:55.716	0.00000E+0	0.00000E+0	0.00000E+0	0.00000E+0	0.00000E+0	0.00000E+0	2.00000E+1	1.40000E+1	2.00005E+1	1.40000E+1
109	02/09/2022	16:10:57.114	0.00000E+0	0.00000E+0	0.00000E+0	0.00000E+0	0.00000E+0	0.00000E+0	2.00000E+1	1.40000E+1	1.99982E+1	1.40004E+1
110	02/09/2022	16:10:58.543	0.00000E+0	0.00000E+0	0.00000E+0	0.00000E+0	0.00000E+0	0.00000E+0	2.00000E+1	1.40000E+1	2.00016E+1	1.40002E+1
111	02/09/2022	16:11:00.004	0.00000E+0	0.00000E+0	0.00000E+0	0.00000E+0	0.00000E+0	0.00000E+0	2.00000E+1	1.40000E+1	2.00016E+1	1.39968E+1
112	02/09/2022	16:11:01.383	0.00000E+0	0.00000E+0	0.00000E+0	0.00000E+0	0.00000E+0	0.00000E+0	2.00000E+1	1.40000E+1	1.99982E+1	1.40004E+1
113	02/09/2022	16:11:02.864	0.00000E+0	0.00000E+0	0.00000E+0	0.00000E+0	0.00000E+0	0.00000E+0	2.00000E+1	1.40000E+1	1.99989E+1	1.39992E+1
114	02/09/2022	16:11:04.244	0.00000E+0	0.00000E+0	0.00000E+0	0.00000E+0	0.00000E+0	0.00000E+0	2.00000E+1	1.40000E+1	2.00005E+1	1.40016E+1
115	02/09/2022	16:11:05.712	0.00000E+0	0.00000E+0	0.00000E+0	0.00000E+0	0.00000E+0	0.00000E+0	2.00000E+1	1.40000E+1	2.00001E+1	1.39986E+1
116	02/09/2022	16:11:07.193	0.00000E+0	0.00000E+0	0.00000E+0	0.00000E+0	0.00000E+0	0.00000E+0	2.00000E+1	1.40000E+1	1.99990E+1	1.39993E+1
117	02/09/2022	16:11:08.568	0.00000E+0	0.00000E+0	0.00000E+0	0.00000E+0	0.00000E+0	0.00000E+0	2.00000E+1	1.40000E+1	2.00034E+1	1.39984E+1
118	02/09/2022	16:11:10.068	0.00000E+0	0.00000E+0	0.00000E+0	0.00000E+0	0.00000E+0	0.00000E+0	2.00000E+1	1.40000E+1	2.00011E+1	1.40002E+1
119	02/09/2022	16:11:11.507	0.00000E+0	0.00000E+0	0.00000E+0	0.00000E+0	0.00000E+0	0.00000E+0	2.00000E+1	1.40000E+1	1.99969E+1	1.39981E+1
120	02/09/2022	16:11:12.892	0.00000E+0	0.00000E+0	0.00000E+0	0.00000E+0	0.00000E+0	0.00000E+0	2.00000E+1	1.40000E+1	1.99984E+1	1.40001E+1
121	02/09/2022	16:11:14.361	0.00000E+0	0.00000E+0	0.00000E+0	0.00000E+0	0.00000E+0	0.00000E+0	2.00000E+1	1.40000E+1	2.00005E+1	1.39985E+1
122	02/09/2022	16:11:15.747	0.00000E+0	0.00000E+0	0.00000E+0	0.00000E+0	0.00000E+0	0.00000E+0	2.00000E+1	1.40000E+1	2.00016E+1	1.40001E+1
123	02/09/2022	16:11:17.175	0.00000E+0	0.00000E+0	0.00000E+0	0.00000E+0	0.00000E+0	0.00000E+0	2.00000E+1	1.40000E+1	2.00013E+1	1.40005E+1
124	02/09/2022	16:11:18.690	0.00000E+0	0.00000E+0	0.00000E+0	0.00000E+0	0.00000E+0	0.00000E+0	2.00000E+1	1.40000E+1	1.99978E+1	1.39986E+1
125	02/09/2022	16:11:20.076	0.00000E+0	0.00000E+0	0.00000E+0	0.00000E+0	0.00000E+0	0.00000E+0	2.00000E+1	1.40000E+1	1.99996E+1	1.40017E+1
126	02/09/2022	16:11:21.552	0.00000E+0	0.00000E+0	0.00000E+0	0.00000E+0	0.00000E+0	0.00000E+0	2.00000E+1	1.40000E+1	2.00013E+1	1.40013E+1
127	02/09/2022	16:11:22.945	0.00000E+0	0.00000E+0	0.00000E+0	0.00000E+0	0.00000E+0	0.00000E+0	2.00000E+1	1.40000E+1	2.00000E+1	1.39973E+1
128	02/09/2022	16:11:24.333	0.00000E+0	0.00000E+0	0.00000E+0	0.00000E+0	0.00000E+0	0.00000E+0	2.00000E+1	1.40000E+1	1.99993E+1	1.40001E+1
129	02/09/2022	16:11:25.826	0.00000E+0	0.00000E+0	0.00000E+0	0.00000E+0	0.00000E+0	0.00000E+0	2.00000E+1	1.40000E+1	2.00011E+1	1.39980E+1
130	02/09/2022	16:11:27.224	0.00000E+0	0.00000E+0	0.00000E+0	0.00000E+0	0.00000E+0	0.00000E+0	2.00000E+1	1.40000E+1	1.99995E+1	1.40009E+1
131	02/09/2022	16:11:28.767	0.00000E+0	0.00000E+0	0.00000E+0	0.00000E+0	0.00000E+0	0.00000E+0	2.00000E+1	1.40000E+1	1.99992E+1	1.39997E+1
132	02/09/2022	16:11:30.210	0.00000E+0	0.00000E+0	0.00000E+0	0.00000E+0	0.00000E+0	0.00000E+0	2.00000E+1	1.40000E+1	1.99994E+1	1.40003E+1
133	02/09/2022	16:11:31.586	0.00000E+0	0.00000E+0	0.00000E+0	0.00000E+0	0.00000E+0	0.00000E+0	2.00000E+1	1.40000E+1	1.99998E+1	1.39991E+1
134	02/09/2022	16:11:33.072	0.00000E+0	0.00000E+0	0.00000E+0	0.00000E+0	0.00000E+0	0.00000E+0	2.00000E+1	1.40000E+1	2.00007E+1	1.40015E+1
135	02/09/2022	16:11:34.489	0.00000E+0	0.00000E+0	0.00000E+0	0.00000E+0	0.00000E+0	0.00000E+0	2.00000E+1	1.40000E+1	1.99971E+1	1.40002E+1
136	02/09/2022	16:11:35.938	0.00000E+0	0.00000E+0	0.00000E+0	0.00000E+0	0.00000E+0	0.00000E+0	2.00000E+1	1.40000E+1	2.00001E+1	1.39995E+1
137	02/09/2022	16:11:37.436	0.00000E+0	0.00000E+0	0.00000E+0	0.00000E+0	0.00000E+0	0.00000E+0	2.00000E+1	1.40000E+1	2.00005E+1	1.39995E+1
138	02/09/2022	16:11:38.823	0.00000E+0	0.00000E+0	0.00000E+0	0.00000E+0	0.00000E+0	0.00000E+0	2.00000E+1	1.40000E+1	2.00031E+1	1.39977E+1
139	02/09/2022	16:11:40.276	0.00000E+0	0.00000E+0	0.00000E+0	0.00000E+0	0.00000E+0	0.00000E+0	2.00000E+1	1.40000E+1	2.00006E+1	1.39997E+1
140	02/09/2022	16:11:41.661	0.00000E+0	0.00000E+0	0.00000E+0	0.00000E+0	0.00000E+0	0.00000E+0	2.00000E+1	1.40000E+1	2.00002E+1	1.40007E+1
141	02/09/2022	16:11:43.055	0.00000E+0	0.00000E+0	0.00000E+0	0.00000E+0	0.00000E+0	0.00000E+0	2.00000E+1	1.40000E+1	2.00004E+1	1.40014E+1
142	02/09/2022	16:11:44.540	0.00000E+0	0.00000E+0	0.00000E+0	0.00000E+0	0.00000E+0	0.00000E+0	2.00000E+1	1.40000E+1	2.00001E+1	1.40019E+1
143	02/09/2022	16:11:45.935	0.00000E+0	0.00000E+0	0.00000E+0	0.00000E+0	0.00000E+0	0.00000E+0	2.00000E+1	1.40000E+1	2.00008E+1	1.40004E+1
144	02/09/2022	16:11:47.328	0.00000E+0	0.00000E+0	0.00000E+0	0.00000E+0	0.00000E+0	0.00000E+0	2.00000E+1	1.40000E+1	2.00013E+1	1.40004E+1
145	02/09/2022	16:11:48.820	0.00000E+0	0.00000E+0	0.00000E+0	0.00000E+0	0.00000E+0	0.00000E+0	2.00000E+1	1.40000E+1	1.99986E+1	1.40008E+1
146	02/09/2022	16:11:50.215	0.00000E+0	0.00000E+0	0.00000E+0	0.00000E+0	0.00000E+0	0.00000E+0	2.00000E+1	1.40000E+1	2.00016E+1	1.40022E+1
147	02/09/2022	16:11:51.712	0.00000E+0	0.00000E+0	0.00000E+0	0.00000E+0	0.00000E+0	0.00000E+0	2.00000E+1	1.40000E+1	2.00012E+1	1.39992E+1
148	02/09/2022	16:11:53.080	0.00000E+0	0.00000E+0	0.00000E+0	0.00000E+0	0.00000E+0	0.00000E+0	2.00000E+1	1.40000E+1	1.99999E+1	1.39997E+1
149	02/09/2022	16:11:54.455	0.00000E+0	0.00000E+0	0.00000E+0	0.00000E+0	0.00000E+0	0.00000E+0	2.00000E+1	1.40000E+1	2.00033E+1	1.40008E+1
150	02/09/2022	16:11:56.026	0.00000E+0	0.00000E+0	0.00000E+0	0.00000E+0	0.00000E+0	0.00000E+0	2.00000E+1	1.40000E+1	2.00004E+1	1.39999E+1
151	02/09/2022	16:11:57.406	0.00000E+0	0.00000E+0	0.00000E+0	0.00000E+0	0.00000E+0	0.00000E+0	2.00000E+1	1.40000E+1	1.99985E+1	1.40003E+1
152	02/09/2022	16:11:58.917	0.00000E+0	0.00000E+0	0.00000E+0	0.00000E+0	0.00000E+0	0.00000E+0	2.00000E+1	1.40000E+1	2.00000E+1	1.40020E+1
153	02/09/2022	16:12:00.304	0.00000E+0	0.00000E+0	0.00000E+0	0.00000E+0	0.00000E+0	0.00000E+0	2.00000E+1	1.40000E+1	1.99992E+1	1.39989E+1
154	02/09/2022	16:12:01.713	0.00000E+0	0.00000E+0	0.00000E+0	0.00000E+0	0.00000E+0	0.00000E+0	2.00000E+1	1.40000E+1	2.00009E+1	1.39997E+1
155	02/09/2022	16:12:03.191	0.00000E+0	0.00000E+0	0.00000E+0	0.00000E+0	0.00000E+0	0.00000E+0	2.00000E+1	1.40000E+1	2.00012E+1	1.40020E+1
156	02/09/2022	16:12:04.570	0.00000E+0	0.00000E+0	0.00000E+0	0.00000E+0	0.00000E+0	0.00000E+0	2.00000E+1	1.40000E+1	2.00007E+1	1.39988E+1
157	02/09/2022	16:12:05.970	0.00000E+0	0.00000E+0	0.00000E+0	0.00000E+0	0.00000E+0	0.00000E+0	2.00000E+1	1.40000E+1	2.00018E+1	1.39995E+1
158	02/09/2022	16:12:07.471	0.00000E+0	0.00000E+0	0.00000E+0	0.00000E+0	0.00000E+0	0.00000E+0	2.00000E+1	1.40000E+1	2.00003E+1	1.39999E+1
159	02/09/2022	16:12:08.854	0.00000E+0	0.00000E+0	0.00000E+0	0.00000E+0	0.00000E+0	0.00000E+0	2.00000E+1	1.40000E+1	2.00007E+1	1.39981E+1
160	02/09/2022	16:12:10.338	0.00000E+0	0.00000E+0	0.00000E+0	0.00000E+0	0.00000E+0	0.00000E+0	2.00000E+1	1.40000E+1	2.00003E+1	1.39993E+1
161	02/09/2022	16:12:11.740	0.00000E+0	0.00000E+0	0.00000E+0	0.00000E+0	0.00000E+0	0.00000E+0	2.00000E+1	1.40000E+1	2.00006E+1	1.40010E+1
162	02/09/2022	16:12:13.124	0.00000E+0	0.00000E+0	0.00000E+0	0.00000E+0	0.00000E+0	0.00000E+0	2.00000E+1	1.40000E+1	2.00012E+1	1.40016E+1
163	02/09/2022	16:12:14.694	0.00000E+0	0.00000E+0	0.00000E+0	0.00000E+0	0.00000E+0	0.00000E+0	2.00000E+1	1.40000E+1	1.99991E+1	1.40012E+1
164	02/09/2022	16:12:16.075	0.00000E+0	0.00000E+0	0.00000E+0	0.00000E+0	0.00000E+0	0.00000E+0	2.00000E+1	1.40000E+1	1.99986E+1	1.39997E+1
165	02/09/2022	16:12:17.542	0.00000E+0	0.00000E+0	0.00000E+0	0.00000E+0	0.00000E+0	0.00000E+0	2.00000E+1	1.40000E+1	1.99989E+1	1.40011E+1
166	02/09/2022	16:12:18.888	0.00000E+0	0.00000E+0	0.00000E+0	0.00000E+0	0.00000E+0	0.00000E+0	2.00000E+1	1.40000E+1	1.99990E+1	1.39998E+1
167	02/09/2022	16:12:20.269	0.00000E+0	0.00000E+0	0.00000E+0	0.00000E+0	0.00000E+0	0.00000E+0	2.00000E+1	1.40000E+1	2.00021E+1	1.39984E+1
168	02/09/2022	16:12:21.733	0.00000E+0	0.00000E+0	0.00000E+0	0.00000E+0	0.00000E+0	0.00000E+0	2.00000E+1	1.40000E+1	2.00018E+1	1.39987E+1
169	02/09/2022	16:12:23.132	0.00000E+0	0.00000E+0	0.00000E+0	0.00000E+0	0.00000E+0	0.00000E+0	2.00000E+1	1.40000E+1	1.99981E+1	1.40000E+1
170	02/09/2022	16:12:24.529	0.00000E+0	0.00000E+0	0.00000E+0	0.00000E+0	0.00000E+0	0.00000E+0	2.00000E+1	1.40000E+1	2.00007E+1	1.40035E+1
171	02/09/2022	16:12:26.031	0.00000E+0	0.00000E+0	0.00000E+0	0.00000E+0	0.00000E+0	0.00000E+0	2.00000E+1	1.40000E+1	1.99986E+1	1.39995E+1
172	02/09/2022	16:12:27.412	0.00000E+0	0.00000E+0	0.00000E+0	0.00000E+0	0.00000E+0	0.00000E+0	2.00000E+1	1.40000E+1	1.99980E+1	1.40002E+1
173	02/09/2022	16:12:28.947	0.00000E+0	0.00000E+0	0.00000E+0	0.00000E+0	0.00000E+0	0.00000E+0	2.00000E+1	1.40000E+1	2.00033E+1	1.40008E+1
174	02/09/2022	16:12:30.346	0.00000E+0	0.00000E+0	0.00000E+0	0.00000E+0	0.00000E+0	0.00000E+0	2.00000E+1	1.40000E+1	1.99995E+1	1.39984E+1
175	02/09/2022	16:12:31.727	0.00000E+0	0.00000E+0	0.00000E+0	0.00000E+0	0.00000E+0	0.00000E+0	2.00000E+1	1.40000E+1	2.00012E+1	1.40021E+1
176	02/09/2022	16:12:33.188	0.00000E+0	0.00000E+0	0.00000E+0	0.00000E+0	0.00000E+0	0.00000E+0	2.00000E+1	1.40000E+1	1.99982E+1	1.39999E+1
177	02/09/2022	16:12:34.571	0.00000E+0	0.00000E+0	0.00000E+0	0.00000E+0	0.00000E+0	0.00000E+0	2.00000E+1	1.40000E+1	1.99993E+1	1.40012E+1
178	02/09/2022	16:12:35.975	0.00000E+0	0.00000E+0	0.00000E+0	0.00000E+0	0.00000E+0	0.00000E+0	2.00000E+1	1.40000E+1	1.99997E+1	1.40001E+1
179	02/09/2022	16:12:37.469	0.00000E+0	0.00000E+0	0.00000E+0	0.00000E+0	0.00000E+0	0.00000E+0	2.00000E+1	1.40000E+1	2.00014E+1	1.40011E+1
180	02/09/2022	16:12:38.843	0.00000E+0	0.00000E+0	0.00000E+0	0.00000E+0	0.00000E+0	0.00000E+0	2.00000E+1	1.40000E+1	1.99984E+1	1.40001E+1
181	02/09/2022	16:12:40.346	0.00000E+0	0.00000E+0	0.00000E+0	0.00000E+0	0.00000E+0	0.00000E+0	2.00000E+1	1.40000E+1	1.99999E+1	1.39985E+1
182	02/09/2022	16:12:41.745	0.00000E+0	0.00000E+0	0.00000E+0	0.00000E+0	0.00000E+0	0.00000E+0	2.00000E+1	1.40000E+1	2.00011E+1	1.40005E+1
183	02/09/2022	16:12:43.128	0.00000E+0	0.00000E+0	0.00000E+0	0.00000E+0	0.00000E+0	0.00000E+0	2.00000E+1	1.40000E+1	2.00016E+1	1.39985E+1
184	02/09/2022	16:12:44.626	0.00000E+0	0.00000E+0	0.00000E+0	0.00000E+0	0.00000E+0	0.00000E+0	2.00000E+1	1.40000E+1	1.99990E+1	1.40001E+1
185	02/09/2022	16:12:46.016	0.00000E+0	0.00000E+0	0.00000E+0	0.00000E+0	0.00000E+0	0.00000E+0	2.00000E+1	1.40000E+1	1.99995E+1	1.40000E+1
186	02/09/2022	16:12:47.526	0.00000E+0	0.00000E+0	0.00000E+0	0.00000E+0	0.00000E+0	0.00000E+0	2.00000E+1	1.40000E+1	1.99998E+1	1.39992E+1
187	02/09/2022	16:12:48.962	0.00000E+0	0.00000E+0	0.00000E+0	0.00000E+0	0.00000E+0	0.00000E+0	2.00000E+1	1.40000E+1	2.00011E+1	1.39970E+1
188	02/09/2022	16:12:50.350	0.00000E+0	0.00000E+0	0.00000E+0	0.00000E+0	0.00000E+0	0.00000E+0	2.00000E+1	1.40000E+1	1.99991E+1	1.39996E+1
189	02/09/2022	16:12:51.861	0.00000E+0	0.00000E+0	0.00000E+0	0.00000E+0	0.00000E+0	0.00000E+0	2.00000E+1	1.40000E+1	1.99984E+1	1.39974E+1
190	02/09/2022	16:12:53.253	0.00000E+0	0.00000E+0	0.00000E+0	0.00000E+0	0.00000E+0	0.00000E+0	2.00000E+1	1.40000E+1	1.99966E+1	1.39987E+1
191	02/09/2022	16:12:54.700	0.00000E+0	0.00000E+0	0.00000E+0	0.00000E+0	0.00000E+0	0.00000E+0	2.00000E+1	1.40000E+1	1.99998E+1	1.40011E+1
192	02/09/2022	16:12:56.203	0.00000E+0	0.00000E+0	0.00000E+0	0.00000E+0	0.00000E+0	0.00000E+0	2.00000E+1	1.40000E+1	2.00010E+1	1.39989E+1
193	02/09/2022	16:12:57.637	0.00000E+0	0.00000E+0	0.00000E+0	0.00000E+0	0.00000E+0	0.00000E+0	2.00000E+1	1.40000E+1	2.00003E+1	1.39992E+1
194	02/09/2022	16:12:59.136	0.00000E+0	0.00000E+0	0.00000E+0	0.00000E+0	0.00000E+0	0.00000E+0	2.00000E+1	1.40000E+1	2.00009E+1	1.39996E+1
195	02/09/2022	16:13:00.533	0.00000E+0	0.00000E+0	0.00000E+0	0.00000E+0	0.00000E+0	0.00000E+0	2.00000E+1	1.40000E+1	2.00003E+1	1.40007E+1
196	02/09/2022	16:13:01.925	0.00000E+0	0.00000E+0	0.00000E+0	0.00000E+0	0.00000E+0	0.00000E+0	2.00000E+1	1.40000E+1	1.99990E+1	1.39995E+1
197	02/09/2022	16:13:03.361	0.00000E+0	0.00000E+0	0.00000E+0	0.00000E+0	0.00000E+0	0.00000E+0	2.00000E+1	1.40000E+1	1.99984E+1	1.40009E+1
198	02/09/2022	16:13:04.743	0.00000E+0	0.00000E+0	0.00000E+0	0.00000E+0	0.00000E+0	0.00000E+0	2.00000E+1	1.40000E+1	2.00036E+1	1.39980E+1
199	02/09/2022	16:13:06.127	0.00000E+0	0.00000E+0	0.00000E+0	0.00000E+0	0.00000E+0	0.00000E+0	2.00000E+1	1.40000E+1	2.00005E+1	1.40007E+1
200	02/09/2022	16:13:07.633	0.00000E+0	0.00000E+0	0.00000E+0	0.00000E+0	0.00000E+0	0.00000E+0	2.00000E+1	1.40000E+1	2.00006E+1	1.40012E+1
201	02/09/2022	16:13:09.042	0.00000E+0	0.00000E+0	0.00000E+0	0.00000E+0	0.00000E+0	0.00000E+0	2.00000E+1	1.40000E+1	1.99998E+1	1.39989E+1
202	02/09/2022	16:13:10.561	0.00000E+0	0.00000E+0	0.00000E+0	0.00000E+0	0.00000E+0	0.00000E+0	2.00000E+1	1.40000E+1	2.00001E+1	1.40028E+1
203	02/09/2022	16:13:11.935	0.00000E+0	0.00000E+0	0.00000E+0	0.00000E+0	0.00000E+0	0.00000E+0	2.00000E+1	1.40000E+1	2.00014E+1	1.39981E+1
204	02/09/2022	16:13:13.378	0.00000E+0	0.00000E+0	0.00000E+0	0.00000E+0	0.00000E+0	0.00000E+0	2.00000E+1	1.40000E+1	2.00001E+1	1.40007E+1
205	02/09/2022	16:13:14.887	0.00000E+0	0.00000E+0	0.00000E+0	0.00000E+0	0.00000E+0	0.00000E+0	2.00000E+1	1.40000E+1	2.00011E+1	1.39989E+1
206	02/09/2022	16:13:16.258	0.00000E+0	0.00000E+0	0.00000E+0	0.00000E+0	0.00000E+0	0.00000E+0	2.00000E+1	1.40000E+1	1.99993E+1	1.40000E+1
207	02/09/2022	16:13:17.706	0.00000E+0	0.00000E+0	0.00000E+0	0.00000E+0	0.00000E+0	0.00000E+0	2.00000E+1	1.40000E+1	2.00017E+1	1.40006E+1
208	02/09/2022	16:13:19.164	0.00000E+0	0.00000E+0	0.00000E+0	0.00000E+0	0.00000E+0	0.00000E+0	2.00000E+1	1.40000E+1	1.99994E+1	1.39983E+1
209	02/09/2022	16:13:20.535	0.00000E+0	0.00000E+0	0.00000E+0	0.00000E+0	0.00000E+0	0.00000E+0	2.00000E+1	1.40000E+1	1.99983E+1	1.40034E+1
210	02/09/2022	16:13:22.012	0.00000E+0	0.00000E+0	0.00000E+0	0.00000E+0	0.00000E+0	0.00000E+0	2.00000E+1	1.40000E+1	2.00015E+1	1.39995E+1
211	02/09/2022	16:13:23.411	0.00000E+0	0.00000E+0	0.00000E+0	0.00000E+0	0.00000E+0	0.00000E+0	2.00000E+1	1.40000E+1	1.99997E+1	1.39986E+1
212	02/09/2022	16:13:24.839	0.00000E+0	0.00000E+0	0.00000E+0	0.00000E+0	0.00000E+0	0.00000E+0	2.00000E+1	1.40000E+1	2.00001E+1	1.40030E+1
213	02/09/2022	16:13:26.342	0.00000E+0	0.00000E+0	0.00000E+0	0.00000E+0	0.00000E+0	0.00000E+0	2.00000E+1	1.40000E+1	2.00003E+1	1.39966E+1
214	02/09/2022	16:13:27.746	0.00000E+0	0.00000E+0	0.00000E+0	0.00000E+0	0.00000E+0	0.00000E+0	2.00000E+1	1.40000E+1	2.00005E+1	1.39997E+1
215	02/09/2022	16:13:29.209	0.00000E+0	0.00000E+0	0.00000E+0	0.00000E+0	0.00000E+0	0.00000E+0	2.00000E+1	1.40000E+1	2.00006E+1	1.40011E+1
216	02/09/2022	16:13:30.603	0.00000E+0	0.00000E+0	0.00000E+0	0.00000E+0	0.00000E+0	0.00000E+0	2.00000E+1	1.40000E+1	2.00001E+1	1.40017E+1
217	02/09/2022	16:13:32.018	0.00000E+0	0.00000E+0	0.00000E+0	0.00000E+0	0.00000E+0	0.00000E+0	2.00000E+1	1.40000E+1	1.99982E+1	1.39989E+1
218	02/09/2022	16:13:33.573	0.00000E+0	0.00000E+0	0.00000E+0	0.00000E+0	0.00000E+0	0.00000E+0	2.00000E+1	1.40000E+1	2.00017E+1	1.40013E+1
219	02/09/2022	16:13:34.972	0.00000E+0	0.00000E+0	0.00000E+0	0.00000E+0	0.00000E+0	0.00000E+0	2.00000E+1	1.40000E+1	2.00004E+1	1.40005E+1
220	02/09/2022	16:13:36.416	0.00000E+0	0.00000E+0	0.00000E+0	0.00000E+0	0.00000E+0	0.00000E+0	2.00000E+1	1.40000E+1	2.00023E+1	1.40011E+1
221	02/09/2022	16:13:37.810	0.00000E+0	0.00000E+0	0.00000E+0	0.00000E+0	0.00000E+0	0.00000E+0	2.00000E+1	1.40000E+1	2.00013E+1	1.40014E+1
222	02/09/2022	16:13:39.193	0.00000E+0	0.00000E+0	0.00000E+0	0.00000E+0	0.00000E+0	0.00000E+0	2.00000E+1	1.40000E+1	2.00004E+1	1.40025E+1
223	02/09/2022	16:13:40.745	0.00000E+0	0.00000E+0	0.00000E+0	0.00000E+0	0.00000E+0	0.00000E+0	2.00000E+1	1.40000E+1	2.00005E+1	1.40010E+1
224	02/09/2022	16:13:42.132	0.00000E+0	0.00000E+0	0.00000E+0	0.00000E+0	0.00000E+0	0.00000E+0	2.00000E+1	1.40000E+1	2.00008E+1	1.39975E+1
225	02/09/2022	16:13:43.543	0.00000E+0	0.00000E+0	0.00000E+0	0.00000E+0	0.00000E+0	0.00000E+0	2.00000E+1	1.40000E+1	2.00018E+1	1.39994E+1
226	02/09/2022	16:13:45.043	0.00000E+0	0.00000E+0	0.00000E+0	0.00000E+0	0.00000E+0	0.00000E+0	2.00000E+1	1.40000E+1	1.99994E+1	1.39995E+1
227	02/09/2022	16:13:46.428	0.00000E+0	0.00000E+0	0.00000E+0	0.00000E+0	0.00000E+0	0.00000E+0	2.00000E+1	1.40000E+1	2.00014E+1	1.39977E+1
228	02/09/2022	16:13:47.912	0.00000E+0	0.00000E+0	0.00000E+0	0.00000E+0	0.00000E+0	0.00000E+0	2.00000E+1	1.40000E+1	1.99983E+1	1.40021E+1
229	02/09/2022	16:13:49.349	0.00000E+0	0.00000E+0	0.00000E+0	0.00000E+0	0.00000E+0	0.00000E+0	2.00000E+1	1.40000E+1	2.00010E+1	1.40027E+1
230	02/09/2022	16:13:50.729	0.00000E+0	0.00000E+0	0.00000E+0	0.00000E+0	0.00000E+0	0.00000E+0	2.00000E+1	1.40000E+1	2.00002E+1	1.40017E+1
231	02/09/2022	16:13:52.219	0.00000E+0	0.00000E+0	0.00000E+0	0.00000E+0	0.00000E+0	0.00000E+0	2.00000E+1	1.40000E+1	1.99984E+1	1.40002E+1
232	02/09/2022	16:13:53.602	0.00000E+0	0.00000E+0	0.00000E+0	0.00000E+0	0.00000E+0	0.00000E+0	2.00000E+1	1.40000E+1	1.99983E+1	1.39999E+1
233	02/09/2022	16:13:55.038	0.00000E+0	0.00000E+0	0.00000E+0	0.00000E+0	0.00000E+0	0.00000E+0	2.00000E+1	1.40000E+1	1.99978E+1	1.39982E+1
234	02/09/2022	16:13:56.546	0.00000E+0	0.00000E+0	0.00000E+0	0.00000E+0	0.00000E+0	0.00000E+0	2.00000E+1	1.40000E+1	2.00006E+1	1.40005E+1
235	02/09/2022	16:13:57.939	0.00000E+0	0.00000E+0	0.00000E+0	0.00000E+0	0.00000E+0	0.00000E+0	2.00000E+1	1.40000E+1	2.00003E+1	1.39991E+1
236	02/09/2022	16:13:59.405	0.00000E+0	0.00000E+0	0.00000E+0	0.00000E+0	0.00000E+0	0.00000E+0	2.00000E+1	1.40000E+1	2.00004E+1	1.39998E+1
237	02/09/2022	16:14:00.787	0.00000E+0	0.00000E+0	0.00000E+0	0.00000E+0	0.00000E+0	0.00000E+0	2.00000E+1	1.40000E+1	1.99976E+1	1.39993E+1
238	02/09/2022	16:14:02.180	0.00000E+0	0.00000E+0	0.00000E+0	0.00000E+0	0.00000E+0	0.00000E+0	2.00000E+1	1.40000E+1	2.00019E+1	1.40005E+1
239	02/09/2022	16:14:03.672	0.00000E+0	0.00000E+0	0.00000E+0	0.00000E+0	0.00000E+0	0.00000E+0	2.00000E+1	1.40000E+1	2.00018E+1	1.40000E+1
240	02/09/2022	16:14:05.049	0.00000E+0	0.00000E+0	0.00000E+0	0.00000E+0	0.00000E+0	0.00000E+0	2.00000E+1	1.40000E+1	2.00016E+1	1.39976E+1
241	02/09/2022	16:14:06.619	0.00000E+0	0.00000E+0	0.00000E+0	0.00000E+0	0.00000E+0	0.00000E+0	2.00000E+1	1.40000E+1	2.00008E+1	1.40003E+1
242	02/09/2022	16:14:08.035	0.00000E+0	0.00000E+0	0.00000E+0	0.00000E+0	0.00000E+0	0.00000E+0	2.00000E+1	1.40000E+1	1.99987E+1	1.39998E+1
243	02/09/2022	16:14:09.424	0.00000E+0	0.00000E+0	0.00000E+0	0.00000E+0	0.00000E+0	0.00000E+0	2.00000E+1	1.40000E+1	2.00012E+1	1.39998E+1
244	02/09/2022	16:14:11.008	0.00000E+0	0.00000E+0	0.00000E+0	0.00000E+0	0.00000E+0	0.00000E+0	2.00000E+1	1.40000E+1	2.00005E+1	1.40021E+1
245	02/09/2022	16:14:12.402	0.00000E+0	0.00000E+0	0.00000E+0	0.00000E+0	0.00000E+0	0.00000E+0	2.00000E+1	1.40000E+1	2.00002E+1	1.40010E+1
246	02/09/2022	16:14:13.851	0.00000E+0	0.00000E+0	0.00000E+0	0.00000E+0	0.00000E+0	0.00000E+0	2.00000E+1	1.40000E+1	1.99995E+1	1.39997E+1
247	02/09/2022	16:14:15.367	0.00000E+0	0.00000E+0	0.00000E+0	0.00000E+0	0.00000E+0	0.00000E+0	2.00000E+1	1.40000E+1	2.00002E+1	1.39998E+1
248	02/09/2022	16:14:16.744	0.00000E+0	0.00000E+0	0.00000E+0	0.00000E+0	0.00000E+0	0.00000E+0	2.00000E+1	1.40000E+1	1.99996E+1	1.40007E+1
249	02/09/2022	16:14:18.207	0.00000E+0	0.00000E+0	0.00000E+0	0.00000E+0	0.00000E+0	0.00000E+0	2.00000E+1	1.40000E+1	2.00029E+1	1.40000E+1
250	02/09/2022	16:14:19.618	0.00000E+0	0.00000E+0	0.00000E+0	0.00000E+0	0.00000E+0	0.00000E+0	2.00000E+1	1.40000E+1	1.99992E+1	1.39995E+1
251	02/09/2022	16:14:20.994	0.00000E+0	0.00000E+0	0.00000E+0	0.00000E+0	0.00000E+0	0.00000E+0	2.00000E+1	1.40000E+1	1.99984E+1	1.40020E+1
252	02/09/2022	16:14:22.537	0.00000E+0	0.00000E+0	0.00000E+0	0.00000E+0	0.00000E+0	0.00000E+0	2.00000E+1	1.40000E+1	1.99988E+1	1.40003E+1
253	02/09/2022	16:14:23.937	0.00000E+0	0.00000E+0	0.00000E+0	0.00000E+0	0.00000E+0	0.00000E+0	2.00000E+1	1.40000E+1	1.99994E+1	1.40004E+1
254	02/09/2022	16:14:25.362	0.00000E+0	0.00000E+0	0.00000E+0	0.00000E+0	0.00000E+0	0.00000E+0	2.00000E+1	1.40000E+1	2.00018E+1	1.40007E+1
255	02/09/2022	16:14:26.756	0.00000E+0	0.00000E+0	0.00000E+0	0.00000E+0	0.00000E+0	0.00000E+0	2.00000E+1	1.40000E+1	1.99982E+1	1.39985E+1
256	02/09/2022	16:14:28.144	0.00000E+0	0.00000E+0	0.00000E+0	0.00000E+0	0.00000E+0	0.00000E+0	2.00000E+1	1.40000E+1	2.00010E+1	1.40002E+1
257	02/09/2022	16:14:29.702	0.00000E+0	0.00000E+0	0.00000E+0	0.00000E+0	0.00000E+0	0.00000E+0	2.00000E+1	1.40000E+1	1.99991E+1	1.39993E+1
258	02/09/2022	16:14:31.074	0.00000E+0	0.00000E+0	0.00000E+0	0.00000E+0	0.00000E+0	0.00000E+0	2.00000E+1	1.40000E+1	1.99998E+1	1.40016E+1
259	02/09/2022	16:14:32.522	0.00000E+0	0.00000E+0	0.00000E+0	0.00000E+0	0.00000E+0	0.00000E+0	2.00000E+1	1.40000E+1	1.99986E+1	1.40004E+1
260	02/09/2022	16:14:34.031	0.00000E+0	0.00000E+0	0.00000E+0	0.00000E+0	0.00000E+0	0.00000E+0	2.00000E+1	1.40000E+1	2.00000E+1	1.40024E+1
261	02/09/2022	16:14:35.412	0.00000E+0	0.00000E+0	0.00000E+0	0.00000E+0	0.00000E+0	0.00000E+0	2.00000E+1	1.40000E+1	1.99956E+1	1.40004E+1
262	02/09/2022	16:14:36.892	0.00000E+0	0.00000E+0	0.00000E+0	0.00000E+0	0.00000E+0	0.00000E+0	2.00000E+1	1.40000E+1	2.00002E+1	1.39994E+1
263	02/09/2022	16:14:38.284	0.00000E+0	0.00000E+0	0.00000E+0	0.00000E+0	0.00000E+0	0.00000E+0	2.00000E+1	1.40000E+1	1.99996E+1	1.39992E+1
264	02/09/2022	16:14:39.664	0.00000E+0	0.00000E+0	0.00000E+0	0.00000E+0	0.00000E+0	0.00000E+0	2.00000E+1	1.40000E+1	2.00006E+1	1.40023E+1
265	02/09/2022	16:14:41.161	0.00000E+0	0.00000E+0	0.00000E+0	0.00000E+0	0.00000E+0	0.00000E+0	2.00000E+1	1.40000E+1	2.00003E+1	1.40026E+1
266	02/09/2022	16:14:42.566	0.00000E+0	0.00000E+0	0.00000E+0	0.00000E+0	0.00000E+0	0.00000E+0	2.00000E+1	1.40000E+1	1.99987E+1	1.39979E+1
267	02/09/2022	16:14:44.000	0.00000E+0	0.00000E+0	0.00000E+0	0.00000E+0	0.00000E+0	0.00000E+0	2.00000E+1	1.40000E+1	2.00005E+1	1.39990E+1
268	02/09/2022	16:14:45.523	0.00000E+0	0.00000E+0	0.00000E+0	0.00000E+0	0.00000E+0	0.00000E+0	2.00000E+1	1.40000E+1	2.00013E+1	1.39999E+1
269	02/09/2022	16:14:46.953	0.00000E+0	0.00000E+0	0.00000E+0	0.00000E+0	0.00000E+0	0.00000E+0	2.00000E+1	1.40000E+1	2.00007E+1	1.40022E+1
270	02/09/2022	16:14:48.456	0.00000E+0	0.00000E+0	0.00000E+0	0.00000E+0	0.00000E+0	0.00000E+0	2.00000E+1	1.40000E+1	1.99986E+1	1.39975E+1
271	02/09/2022	16:14:49.849	0.00000E+0	0.00000E+0	0.00000E+0	0.00000E+0	0.00000E+0	0.00000E+0	2.00000E+1	1.40000E+1	1.99990E+1	1.40012E+1
272	02/09/2022	16:14:51.222	0.00000E+0	0.00000E+0	0.00000E+0	0.00000E+0	0.00000E+0	0.00000E+0	2.00000E+1	1.40000E+1	1.99968E+1	1.40003E+1
273	02/09/2022	16:14:52.687	0.00000E+0	0.00000E+0	0.00000E+0	0.00000E+0	0.00000E+0	0.00000E+0	2.00000E+1	1.40000E+1	2.00012E+1	1.39982E+1
274	02/09/2022	16:14:54.098	0.00000E+0	0.00000E+0	0.00000E+0	0.00000E+0	0.00000E+0	0.00000E+0	2.00000E+1	1.40000E+1	2.00000E+1	1.39993E+1
275	02/09/2022	16:14:55.544	0.00000E+0	0.00000E+0	0.00000E+0	0.00000E+0	0.00000E+0	0.00000E+0	2.00000E+1	1.40000E+1	1.99985E+1	1.40000E+1
276	02/09/2022	16:14:56.933	0.00000E+0	0.00000E+0	0.00000E+0	0.00000E+0	0.00000E+0	0.00000E+0	2.00000E+1	1.40000E+1	2.00007E+1	1.39997E+1
277	02/09/2022	16:14:58.323	0.00000E+0	0.00000E+0	0.00000E+0	0.00000E+0	0.00000E+0	0.00000E+0	2.00000E+1	1.40000E+1	2.00012E+1	1.40001E+1
278	02/09/2022	16:14:59.883	0.00000E+0	0.00000E+0	0.00000E+0	0.00000E+0	0.00000E+0	0.00000E+0	2.00000E+1	1.40000E+1	2.00002E+1	1.40010E+1
279	02/09/2022	16:15:01.265	0.00000E+0	0.00000E+0	0.00000E+0	0.00000E+0	0.00000E+0	0.00000E+0	2.00000E+1	1.40000E+1	2.00004E+1	1.40001E+1
280	02/09/2022	16:15:02.653	0.00000E+0	0.00000E+0	0.00000E+0	0.00000E+0	0.00000E+0	0.00000E+0	2.00000E+1	1.40000E+1	1.99995E+1	1.39980E+1
281	02/09/2022	16:15:04.155	0.00000E+0	0.00000E+0	0.00000E+0	0.00000E+0	0.00000E+0	0.00000E+0	2.00000E+1	1.40000E+1	1.99982E+1	1.40035E+1
282	02/09/2022	16:15:05.529	0.00000E+0	0.00000E+0	0.00000E+0	0.00000E+0	0.00000E+0	0.00000E+0	2.00000E+1	1.40000E+1	1.99998E+1	1.40000E+1
283	02/09/2022	16:15:07.043	0.00000E+0	0.00000E+0	0.00000E+0	0.00000E+0	0.00000E+0	0.00000E+0	2.00000E+1	1.40000E+1	1.99981E+1	1.40022E+1
284	02/09/2022	16:15:08.438	0.00000E+0	0.00000E+0	0.00000E+0	0.00000E+0	0.00000E+0	0.00000E+0	2.00000E+1	1.40000E+1	2.00013E+1	1.39998E+1
285	02/09/2022	16:15:09.811	0.00000E+0	0.00000E+0	0.00000E+0	0.00000E+0	0.00000E+0	0.00000E+0	2.00000E+1	1.40000E+1	2.00009E+1	1.40008E+1
286	02/09/2022	16:15:11.314	0.00000E+0	0.00000E+0	0.00000E+0	0.00000E+0	0.00000E+0	0.00000E+0	2.00000E+1	1.40000E+1	1.99997E+1	1.40001E+1
287	02/09/2022	16:15:12.702	0.00000E+0	0.00000E+0	0.00000E+0	0.00000E+0	0.00000E+0	0.00000E+0	2.00000E+1	1.40000E+1	2.00008E+1	1.40003E+1
288	02/09/2022	16:15:14.118	0.00000E+0	0.00000E+0	0.00000E+0	0.00000E+0	0.00000E+0	0.00000E+0	2.00000E+1	1.40000E+1	1.99993E+1	1.39986E+1
289	02/09/2022	16:15:15.622	0.00000E+0	0.00000E+0	0.00000E+0	0.00000E+0	0.00000E+0	0.00000E+0	2.00000E+1	1.40000E+1	2.00014E+1	1.40001E+1
290	02/09/2022	16:15:17.017	0.00000E+0	0.00000E+0	0.00000E+0	0.00000E+0	0.00000E+0	0.00000E+0	2.00000E+1	1.40000E+1	1.99997E+1	1.40006E+1
291	02/09/2022	16:15:18.502	0.00000E+0	0.00000E+0	0.00000E+0	0.00000E+0	0.00000E+0	0.00000E+0	2.00000E+1	1.40000E+1	2.00002E+1	1.39991E+1
292	02/09/2022	16:15:19.889	0.00000E+0	0.00000E+0	0.00000E+0	0.00000E+0	0.00000E+0	0.00000E+0	2.00000E+1	1.40000E+1	2.00011E+1	1.39989E+1
293	02/09/2022	16:15:21.328	0.00000E+0	0.00000E+0	0.00000E+0	0.00000E+0	0.00000E+0	0.00000E+0	2.00000E+1	1.40000E+1	1.99980E+1	1.39962E+1
294	02/09/2022	16:15:22.853	0.00000E+0	0.00000E+0	0.00000E+0	0.00000E+0	0.00000E+0	0.00000E+0	2.00000E+1	1.40000E+1	2.00023E+1	1.39992E+1
295	02/09/2022	16:15:24.240	0.00000E+0	0.00000E+0	0.00000E+0	0.00000E+0	0.00000E+0	0.00000E+0	2.00000E+1	1.40000E+1	1.99975E+1	1.39981E+1
296	02/09/2022	16:15:25.808	0.00000E+0	0.00000E+0	0.00000E+0	0.00000E+0	0.00000E+0	0.00000E+0	2.00000E+1	1.40000E+1	2.00016E+1	1.40019E+1
297	02/09/2022	16:15:27.217	0.00000E+0	0.00000E+0	0.00000E+0	0.00000E+0	0.00000E+0	0.00000E+0	2.00000E+1	1.40000E+1	2.00010E+1	1.39986E+1
298	02/09/2022	16:15:28.599	0.00000E+0	0.00000E+0	0.00000E+0	0.00000E+0	0.00000E+0	0.00000E+0	2.00000E+1	1.40000E+1	1.99984E+1	1.40012E+1
299	02/09/2022	16:15:30.133	0.00000E+0	0.00000E+0	0.00000E+0	0.00000E+0	0.00000E+0	0.00000E+0	2.00000E+1	1.40000E+1	1.99997E+1	1.39999E+1
300	02/09/2022	16:15:31.519	0.00000E+0	0.00000E+0	0.00000E+0	0.00000E+0	0.00000E+0	0.00000E+0	2.00000E+1	1.40000E+1	2.00007E+1	1.40011E+1
301	02/09/2022	16:15:33.059	0.00000E+0	0.00000E+0	0.00000E+0	0.00000E+0	0.00000E+0	0.00000E+0	2.00000E+1	1.40000E+1	2.00027E+1	1.40000E+1
