#Iteration	Date	Time	STSX	STSY	RotationRateX	RotationRateY	FrCntX	FrCntY	TiptiltCmd1	TiptiltCmd2	TiptiltMonitor1	TiptiltMonitor2
1	15/03/2023	18:33:56.349	0.00000E+0	0.00000E+0	-8.81739E-2	7.64986E-2	0.00000E+0	0.00000E+0	2.12479E+1	1.36990E+1	2.12460E+1	1.36984E+1
2	15/03/2023	18:33:57.902	0.00000E+0	0.00000E+0	-6.44428E-1	6.13639E-1	0.00000E+0	0.00000E+0	2.12434E+1	1.37054E+1	2.12438E+1	1.37055E+1
3	15/03/2023	18:33:59.392	0.00000E+0	0.00000E+0	1.12246E+2	-5.06726E-1	0.00000E+0	0.00000E+0	2.27710E+1	1.22197E+1	2.27699E+1	1.22208E+1
4	15/03/2023	18:34:00.923	0.00000E+0	0.00000E+0	-3.22310E+1	-1.89678E-1	0.00000E+0	0.00000E+0	2.09054E+1	1.40712E+1	2.09053E+1	1.40695E+1
5	15/03/2023	18:34:02.449	0.00000E+0	0.00000E+0	-1.07772E+2	-7.72042E-1	0.00000E+0	0.00000E+0	1.97322E+1	1.52049E+1	1.97310E+1	1.52057E+1
6	15/03/2023	18:34:03.967	0.00000E+0	0.00000E+0	-9.59141E+1	-8.26180E-1	0.00000E+0	0.00000E+0	1.98809E+1	1.50668E+1	1.98820E+1	1.50641E+1
7	15/03/2023	18:34:05.524	0.00000E+0	0.00000E+0	9.95930E+1	6.08541E-1	0.00000E+0	0.00000E+0	2.26109E+1	1.23314E+1	2.26113E+1	1.23326E+1
8	15/03/2023	18:34:07.010	0.00000E+0	0.00000E+0	1.15917E+2	2.07813E+0	0.00000E+0	0.00000E+0	2.28735E+1	1.20733E+1	2.28749E+1	1.20722E+1
9	15/03/2023	18:34:08.488	0.00000E+0	0.00000E+0	7.22362E+1	3.49843E-1	0.00000E+0	0.00000E+0	2.23381E+1	1.26540E+1	2.23375E+1	1.26540E+1
10	15/03/2023	18:34:10.016	0.00000E+0	0.00000E+0	-1.38278E+2	-8.53054E-1	0.00000E+0	0.00000E+0	1.92630E+1	1.56765E+1	1.92622E+1	1.56751E+1
11	15/03/2023	18:34:11.519	0.00000E+0	0.00000E+0	-9.47170E+1	4.05608E-1	0.00000E+0	0.00000E+0	1.98741E+1	1.50672E+1	1.98750E+1	1.50669E+1
12	15/03/2023	18:34:13.027	0.00000E+0	0.00000E+0	7.42599E+1	2.06981E-1	0.00000E+0	0.00000E+0	2.22473E+1	1.27091E+1	2.22478E+1	1.27099E+1
13	15/03/2023	18:34:14.534	0.00000E+0	0.00000E+0	1.06284E+2	3.55901E-1	0.00000E+0	0.00000E+0	2.27518E+1	1.22392E+1	2.27517E+1	1.22407E+1
14	15/03/2023	18:34:16.075	0.00000E+0	0.00000E+0	7.76673E+1	3.34862E-1	0.00000E+0	0.00000E+0	2.23992E+1	1.25710E+1	2.23989E+1	1.25730E+1
15	15/03/2023	18:34:17.602	0.00000E+0	0.00000E+0	-8.51952E+1	7.47127E-1	0.00000E+0	0.00000E+0	2.00676E+1	1.48965E+1	2.00672E+1	1.48963E+1
16	15/03/2023	18:34:19.061	0.00000E+0	0.00000E+0	-1.08310E+2	-1.20495E+0	0.00000E+0	0.00000E+0	1.96504E+1	1.52327E+1	1.96486E+1	1.52332E+1
17	15/03/2023	18:34:20.568	0.00000E+0	0.00000E+0	-7.08806E+1	-1.11778E+0	0.00000E+0	0.00000E+0	2.02565E+1	1.46938E+1	2.02570E+1	1.46954E+1
18	15/03/2023	18:34:22.050	0.00000E+0	0.00000E+0	8.28394E+1	1.28050E+0	0.00000E+0	0.00000E+0	2.23490E+1	1.25792E+1	2.23483E+1	1.25790E+1
19	15/03/2023	18:34:23.557	0.00000E+0	0.00000E+0	8.29678E+1	9.11615E-3	0.00000E+0	0.00000E+0	2.24191E+1	1.25338E+1	2.24172E+1	1.25347E+1
20	15/03/2023	18:34:25.022	0.00000E+0	0.00000E+0	8.03634E+1	9.72618E-1	0.00000E+0	0.00000E+0	2.24017E+1	1.25549E+1	2.24021E+1	1.25544E+1
21	15/03/2023	18:34:26.529	0.00000E+0	0.00000E+0	-4.72595E+1	-1.91820E-1	0.00000E+0	0.00000E+0	2.06424E+1	1.43117E+1	2.06443E+1	1.43110E+1
22	15/03/2023	18:34:28.022	0.00000E+0	0.00000E+0	-9.21377E+1	-1.11691E+0	0.00000E+0	0.00000E+0	1.99698E+1	1.49970E+1	1.99702E+1	1.49954E+1
23	15/03/2023	18:34:29.549	0.00000E+0	0.00000E+0	-6.23631E+1	-5.43594E-2	0.00000E+0	0.00000E+0	2.03028E+1	1.46181E+1	2.03024E+1	1.46193E+1
24	15/03/2023	18:34:31.021	0.00000E+0	0.00000E+0	-3.86737E+1	1.17679E-1	0.00000E+0	0.00000E+0	2.06225E+1	1.43156E+1	2.06200E+1	1.43162E+1
25	15/03/2023	18:34:32.496	0.00000E+0	0.00000E+0	8.46338E+1	8.47414E-1	0.00000E+0	0.00000E+0	2.24524E+1	1.24925E+1	2.24545E+1	1.24941E+1
26	15/03/2023	18:34:33.995	0.00000E+0	0.00000E+0	7.22901E+1	2.29411E-1	0.00000E+0	0.00000E+0	2.22359E+1	1.27334E+1	2.22374E+1	1.27350E+1
27	15/03/2023	18:34:35.561	0.00000E+0	0.00000E+0	8.26187E+1	5.73387E-1	0.00000E+0	0.00000E+0	2.24665E+1	1.25026E+1	2.24668E+1	1.25048E+1
28	15/03/2023	18:34:37.028	0.00000E+0	0.00000E+0	-5.78323E+1	-8.09511E-1	0.00000E+0	0.00000E+0	2.04507E+1	1.44883E+1	2.04531E+1	1.44871E+1
29	15/03/2023	18:34:38.419	0.00000E+0	0.00000E+0	-7.22297E+1	-3.22485E-1	0.00000E+0	0.00000E+0	2.02222E+1	1.47346E+1	2.02242E+1	1.47337E+1
30	15/03/2023	18:34:39.816	0.00000E+0	0.00000E+0	-7.07875E+1	-3.69688E-1	0.00000E+0	0.00000E+0	2.02138E+1	1.47331E+1	2.02130E+1	1.47332E+1
31	15/03/2023	18:34:41.214	0.00000E+0	0.00000E+0	-3.92491E+1	1.83171E-1	0.00000E+0	0.00000E+0	2.06998E+1	1.42452E+1	2.06994E+1	1.42442E+1
32	15/03/2023	18:34:42.606	0.00000E+0	0.00000E+0	1.69316E+1	-1.85408E-1	0.00000E+0	0.00000E+0	2.13744E+1	1.35876E+1	2.13760E+1	1.35863E+1
33	15/03/2023	18:34:44.033	0.00000E+0	0.00000E+0	6.16381E+1	8.10466E-1	0.00000E+0	0.00000E+0	2.21387E+1	1.28408E+1	2.21392E+1	1.28408E+1
34	15/03/2023	18:34:45.424	0.00000E+0	0.00000E+0	5.32708E+1	-7.05112E-1	0.00000E+0	0.00000E+0	2.20317E+1	1.29904E+1	2.20322E+1	1.29908E+1
35	15/03/2023	18:34:46.820	0.00000E+0	0.00000E+0	6.81104E+1	-2.25673E-1	0.00000E+0	0.00000E+0	2.22290E+1	1.27329E+1	2.22284E+1	1.27290E+1
36	15/03/2023	18:34:48.236	0.00000E+0	0.00000E+0	6.28181E+1	-8.85380E-2	0.00000E+0	0.00000E+0	2.21254E+1	1.28222E+1	2.21249E+1	1.28196E+1
37	15/03/2023	18:34:49.619	0.00000E+0	0.00000E+0	-7.16499E+1	-2.79635E+0	0.00000E+0	0.00000E+0	2.03489E+1	1.46392E+1	2.03484E+1	1.46365E+1
38	15/03/2023	18:34:51.002	0.00000E+0	0.00000E+0	-9.40380E+1	-1.29657E+0	0.00000E+0	0.00000E+0	1.98900E+1	1.50337E+1	1.98895E+1	1.50347E+1
39	15/03/2023	18:34:52.402	0.00000E+0	0.00000E+0	-7.27302E+1	-4.24542E-1	0.00000E+0	0.00000E+0	2.01671E+1	1.47505E+1	2.01654E+1	1.47514E+1
40	15/03/2023	18:34:53.795	0.00000E+0	0.00000E+0	-6.73632E+1	2.51629E-2	0.00000E+0	0.00000E+0	2.02952E+1	1.46457E+1	2.02962E+1	1.46451E+1
41	15/03/2023	18:34:55.190	0.00000E+0	0.00000E+0	6.84940E+1	-4.81784E+0	0.00000E+0	0.00000E+0	2.22494E+1	1.27048E+1	2.22484E+1	1.27039E+1
42	15/03/2023	18:34:56.563	0.00000E+0	0.00000E+0	1.22256E+2	1.21689E+0	0.00000E+0	0.00000E+0	2.29715E+1	1.20662E+1	2.29713E+1	1.20669E+1
43	15/03/2023	18:34:57.972	0.00000E+0	0.00000E+0	1.01332E+2	6.33907E-1	0.00000E+0	0.00000E+0	2.27726E+1	1.22385E+1	2.27727E+1	1.22372E+1
44	15/03/2023	18:34:59.387	0.00000E+0	0.00000E+0	-3.73659E+1	9.33802E-1	0.00000E+0	0.00000E+0	2.07579E+1	1.41733E+1	2.07587E+1	1.41739E+1
45	15/03/2023	18:35:00.778	0.00000E+0	0.00000E+0	-5.60456E+1	-8.22479E-1	0.00000E+0	0.00000E+0	2.04711E+1	1.45339E+1	2.04707E+1	1.45336E+1
46	15/03/2023	18:35:02.169	0.00000E+0	0.00000E+0	-3.57023E+1	5.70583E-1	0.00000E+0	0.00000E+0	2.07501E+1	1.42423E+1	2.07524E+1	1.42448E+1
47	15/03/2023	18:35:03.553	0.00000E+0	0.00000E+0	5.80910E+0	-4.08968E-1	0.00000E+0	0.00000E+0	2.13512E+1	1.36151E+1	2.13522E+1	1.36144E+1
48	15/03/2023	18:35:04.919	0.00000E+0	0.00000E+0	7.21824E+1	9.74413E-1	0.00000E+0	0.00000E+0	2.22738E+1	1.26666E+1	2.22736E+1	1.26668E+1
49	15/03/2023	18:35:06.339	0.00000E+0	0.00000E+0	-2.39109E+0	-1.32339E+0	0.00000E+0	0.00000E+0	2.12237E+1	1.37317E+1	2.12237E+1	1.37302E+1
50	15/03/2023	18:35:07.721	0.00000E+0	0.00000E+0	-1.02884E+2	2.89423E-1	0.00000E+0	0.00000E+0	1.97621E+1	1.51328E+1	1.97624E+1	1.51340E+1
51	15/03/2023	18:35:09.112	0.00000E+0	0.00000E+0	-4.64383E+1	-3.05445E+0	0.00000E+0	0.00000E+0	2.05178E+1	1.44049E+1	2.05175E+1	1.44067E+1
52	15/03/2023	18:35:10.522	0.00000E+0	0.00000E+0	9.25995E-1	6.06944E-1	0.00000E+0	0.00000E+0	2.12724E+1	1.36692E+1	2.12705E+1	1.36693E+1
53	15/03/2023	18:35:11.931	0.00000E+0	0.00000E+0	8.59240E+0	7.93330E-1	0.00000E+0	0.00000E+0	2.13453E+1	1.36207E+1	2.13471E+1	1.36219E+1
54	15/03/2023	18:35:13.338	0.00000E+0	0.00000E+0	1.79851E-1	-7.32519E-1	0.00000E+0	0.00000E+0	2.12759E+1	1.36732E+1	2.12767E+1	1.36729E+1
55	15/03/2023	18:35:14.723	0.00000E+0	0.00000E+0	7.40776E+1	3.09049E-1	0.00000E+0	0.00000E+0	2.22506E+1	1.27284E+1	2.22490E+1	1.27280E+1
56	15/03/2023	18:35:16.114	0.00000E+0	0.00000E+0	8.02606E+1	1.66196E+0	0.00000E+0	0.00000E+0	2.23832E+1	1.25693E+1	2.23849E+1	1.25681E+1
57	15/03/2023	18:35:17.527	0.00000E+0	0.00000E+0	7.15921E+1	4.55814E-2	0.00000E+0	0.00000E+0	2.22591E+1	1.27293E+1	2.22600E+1	1.27288E+1
58	15/03/2023	18:35:18.917	0.00000E+0	0.00000E+0	-3.43651E+1	-4.28643E-1	0.00000E+0	0.00000E+0	2.08313E+1	1.41149E+1	2.08314E+1	1.41177E+1
59	15/03/2023	18:35:20.308	0.00000E+0	0.00000E+0	-8.69713E+1	-6.42019E-1	0.00000E+0	0.00000E+0	2.00004E+1	1.49411E+1	2.00011E+1	1.49411E+1
60	15/03/2023	18:35:21.696	0.00000E+0	0.00000E+0	-9.18570E+1	-2.21692E-1	0.00000E+0	0.00000E+0	1.99577E+1	1.49881E+1	1.99579E+1	1.49862E+1
61	15/03/2023	18:35:23.077	0.00000E+0	0.00000E+0	-2.33498E+1	-1.97159E-2	0.00000E+0	0.00000E+0	2.07613E+1	1.42037E+1	2.07615E+1	1.42016E+1
62	15/03/2023	18:35:24.473	0.00000E+0	0.00000E+0	1.03965E+2	-1.96380E-1	0.00000E+0	0.00000E+0	2.27598E+1	1.22200E+1	2.27599E+1	1.22192E+1
63	15/03/2023	18:35:25.870	0.00000E+0	0.00000E+0	9.10297E+1	9.95910E-1	0.00000E+0	0.00000E+0	2.25084E+1	1.24640E+1	2.25074E+1	1.24651E+1
64	15/03/2023	18:35:27.254	0.00000E+0	0.00000E+0	6.01133E+1	5.81474E-2	0.00000E+0	0.00000E+0	2.21347E+1	1.28233E+1	2.21358E+1	1.28211E+1
65	15/03/2023	18:35:28.658	0.00000E+0	0.00000E+0	-5.58153E+1	-4.34600E-1	0.00000E+0	0.00000E+0	2.05206E+1	1.44400E+1	2.05208E+1	1.44405E+1
66	15/03/2023	18:35:30.029	0.00000E+0	0.00000E+0	-7.03874E+1	-7.99850E-1	0.00000E+0	0.00000E+0	2.02409E+1	1.47334E+1	2.02401E+1	1.47322E+1
67	15/03/2023	18:35:31.462	0.00000E+0	0.00000E+0	-6.07066E+1	-7.08841E-1	0.00000E+0	0.00000E+0	2.03517E+1	1.45990E+1	2.03539E+1	1.46001E+1
68	15/03/2023	18:35:32.836	0.00000E+0	0.00000E+0	-4.94842E+1	-8.96695E-1	0.00000E+0	0.00000E+0	2.05507E+1	1.44023E+1	2.05520E+1	1.44011E+1
69	15/03/2023	18:35:34.228	0.00000E+0	0.00000E+0	3.46707E+1	2.14603E+0	0.00000E+0	0.00000E+0	2.17080E+1	1.33134E+1	2.17064E+1	1.33120E+1
70	15/03/2023	18:35:35.636	0.00000E+0	0.00000E+0	6.36181E+1	1.19052E+0	0.00000E+0	0.00000E+0	2.21198E+1	1.28464E+1	2.21210E+1	1.28454E+1
71	15/03/2023	18:35:37.021	0.00000E+0	0.00000E+0	7.53461E+1	1.64842E+0	0.00000E+0	0.00000E+0	2.23225E+1	1.26253E+1	2.23216E+1	1.26245E+1
72	15/03/2023	18:35:38.431	0.00000E+0	0.00000E+0	6.82687E+1	4.67351E-1	0.00000E+0	0.00000E+0	2.22458E+1	1.26966E+1	2.22470E+1	1.26982E+1
73	15/03/2023	18:35:39.826	0.00000E+0	0.00000E+0	1.85257E+1	-7.30090E-1	0.00000E+0	0.00000E+0	2.16427E+1	1.33454E+1	2.16423E+1	1.33453E+1
74	15/03/2023	18:35:41.194	0.00000E+0	0.00000E+0	-6.90473E+1	-7.76345E-1	0.00000E+0	0.00000E+0	2.02616E+1	1.46792E+1	2.02608E+1	1.46798E+1
75	15/03/2023	18:35:42.577	0.00000E+0	0.00000E+0	-6.91674E+1	-1.07240E+0	0.00000E+0	0.00000E+0	2.02809E+1	1.46597E+1	2.02804E+1	1.46591E+1
76	15/03/2023	18:35:43.962	0.00000E+0	0.00000E+0	-5.15398E+1	-5.85875E-1	0.00000E+0	0.00000E+0	2.05300E+1	1.44326E+1	2.05304E+1	1.44319E+1
77	15/03/2023	18:35:45.347	0.00000E+0	0.00000E+0	-4.91585E+1	6.64953E-2	0.00000E+0	0.00000E+0	2.05769E+1	1.43700E+1	2.05776E+1	1.43686E+1
78	15/03/2023	18:35:46.756	0.00000E+0	0.00000E+0	3.46020E+1	5.32909E-1	0.00000E+0	0.00000E+0	2.16853E+1	1.32189E+1	2.16867E+1	1.32185E+1
79	15/03/2023	18:35:48.141	0.00000E+0	0.00000E+0	7.11026E+1	7.73068E-1	0.00000E+0	0.00000E+0	2.22941E+1	1.26964E+1	2.22953E+1	1.26963E+1
80	15/03/2023	18:35:49.537	0.00000E+0	0.00000E+0	9.44585E+1	1.15928E+0	0.00000E+0	0.00000E+0	2.25549E+1	1.24239E+1	2.25539E+1	1.24261E+1
81	15/03/2023	18:35:50.932	0.00000E+0	0.00000E+0	7.01651E+1	3.58782E-1	0.00000E+0	0.00000E+0	2.22739E+1	1.26847E+1	2.22698E+1	1.26845E+1
82	15/03/2023	18:35:52.322	0.00000E+0	0.00000E+0	-3.10877E+1	-1.54464E-1	0.00000E+0	0.00000E+0	2.08688E+1	1.40710E+1	2.08676E+1	1.40718E+1
83	15/03/2023	18:35:53.733	0.00000E+0	0.00000E+0	-5.19441E+1	1.41875E-1	0.00000E+0	0.00000E+0	2.04248E+1	1.44853E+1	2.04260E+1	1.44863E+1
84	15/03/2023	18:35:55.124	0.00000E+0	0.00000E+0	-4.88623E+1	-1.34792E+0	0.00000E+0	0.00000E+0	2.05993E+1	1.43880E+1	2.05998E+1	1.43907E+1
85	15/03/2023	18:35:56.519	0.00000E+0	0.00000E+0	-4.63453E+1	7.39891E-1	0.00000E+0	0.00000E+0	2.05504E+1	1.43861E+1	2.05494E+1	1.43859E+1
86	15/03/2023	18:35:57.912	0.00000E+0	0.00000E+0	-4.01443E+1	-1.27962E+0	0.00000E+0	0.00000E+0	2.06873E+1	1.43001E+1	2.06878E+1	1.43035E+1
87	15/03/2023	18:35:59.311	0.00000E+0	0.00000E+0	-6.09354E+1	1.84056E-1	0.00000E+0	0.00000E+0	2.03595E+1	1.45701E+1	2.03587E+1	1.45711E+1
88	15/03/2023	18:36:00.720	0.00000E+0	0.00000E+0	7.56656E+1	2.08091E+0	0.00000E+0	0.00000E+0	2.22802E+1	1.26675E+1	2.22795E+1	1.26646E+1
89	15/03/2023	18:36:02.126	0.00000E+0	0.00000E+0	7.20825E+1	-1.19059E+0	0.00000E+0	0.00000E+0	2.22546E+1	1.26587E+1	2.22508E+1	1.26602E+1
90	15/03/2023	18:36:03.514	0.00000E+0	0.00000E+0	8.34482E+1	5.85760E-1	0.00000E+0	0.00000E+0	2.24429E+1	1.25081E+1	2.24418E+1	1.25083E+1
91	15/03/2023	18:36:04.923	0.00000E+0	0.00000E+0	5.96268E+1	1.64998E+0	0.00000E+0	0.00000E+0	2.21373E+1	1.28367E+1	2.21353E+1	1.28368E+1
92	15/03/2023	18:36:06.310	0.00000E+0	0.00000E+0	-3.23774E+1	1.39852E-1	0.00000E+0	0.00000E+0	2.08906E+1	1.40914E+1	2.08918E+1	1.40901E+1
93	15/03/2023	18:36:07.731	0.00000E+0	0.00000E+0	-8.67606E+1	-1.21504E+0	0.00000E+0	0.00000E+0	2.00064E+1	1.49278E+1	2.00055E+1	1.49253E+1
94	15/03/2023	18:36:09.123	0.00000E+0	0.00000E+0	-8.15084E+1	-6.12166E-1	0.00000E+0	0.00000E+0	2.00807E+1	1.48655E+1	2.00797E+1	1.48649E+1
95	15/03/2023	18:36:10.517	0.00000E+0	0.00000E+0	-4.71510E+1	-1.76050E+0	0.00000E+0	0.00000E+0	2.05741E+1	1.43832E+1	2.05736E+1	1.43836E+1
96	15/03/2023	18:36:11.906	0.00000E+0	0.00000E+0	-3.12628E+1	-6.52658E-1	0.00000E+0	0.00000E+0	2.06650E+1	1.42701E+1	2.06664E+1	1.42707E+1
97	15/03/2023	18:36:13.292	0.00000E+0	0.00000E+0	8.91686E+1	-2.96744E-1	0.00000E+0	0.00000E+0	2.25505E+1	1.24045E+1	2.25512E+1	1.24019E+1
98	15/03/2023	18:36:14.686	0.00000E+0	0.00000E+0	1.00395E+2	9.56075E-1	0.00000E+0	0.00000E+0	2.26566E+1	1.23198E+1	2.26586E+1	1.23207E+1
99	15/03/2023	18:36:16.093	0.00000E+0	0.00000E+0	8.22340E+1	5.88971E-1	0.00000E+0	0.00000E+0	2.24307E+1	1.25430E+1	2.24306E+1	1.25436E+1
100	15/03/2023	18:36:17.477	0.00000E+0	0.00000E+0	-5.84045E+1	-4.05915E-1	0.00000E+0	0.00000E+0	2.04619E+1	1.45131E+1	2.04633E+1	1.45138E+1
101	15/03/2023	18:36:18.898	0.00000E+0	0.00000E+0	-8.32907E+1	-8.14156E-1	0.00000E+0	0.00000E+0	2.00367E+1	1.48679E+1	2.00369E+1	1.48667E+1
102	15/03/2023	18:36:20.282	0.00000E+0	0.00000E+0	-8.34213E+1	-3.26815E-1	0.00000E+0	0.00000E+0	2.00469E+1	1.49161E+1	2.00472E+1	1.49148E+1
103	15/03/2023	18:36:21.674	0.00000E+0	0.00000E+0	-8.53825E+1	-5.15724E-1	0.00000E+0	0.00000E+0	2.00265E+1	1.49085E+1	2.00284E+1	1.49110E+1
104	15/03/2023	18:36:23.079	0.00000E+0	0.00000E+0	5.45776E+1	2.02388E+0	0.00000E+0	0.00000E+0	2.19811E+1	1.29810E+1	2.19822E+1	1.29817E+1
105	15/03/2023	18:36:24.469	0.00000E+0	0.00000E+0	1.03276E+2	5.45963E-1	0.00000E+0	0.00000E+0	2.27204E+1	1.22600E+1	2.27195E+1	1.22613E+1
106	15/03/2023	18:36:25.846	0.00000E+0	0.00000E+0	8.67491E+1	9.02370E-2	0.00000E+0	0.00000E+0	2.25263E+1	1.24136E+1	2.25265E+1	1.24108E+1
107	15/03/2023	18:36:27.241	0.00000E+0	0.00000E+0	5.71449E+1	-1.11320E-1	0.00000E+0	0.00000E+0	2.20786E+1	1.29087E+1	2.20803E+1	1.29079E+1
108	15/03/2023	18:36:28.648	0.00000E+0	0.00000E+0	-2.89231E+1	-9.94202E-1	0.00000E+0	0.00000E+0	2.08956E+1	1.40590E+1	2.08940E+1	1.40588E+1
109	15/03/2023	18:36:30.036	0.00000E+0	0.00000E+0	-8.18443E+1	-4.54869E-1	0.00000E+0	0.00000E+0	2.00894E+1	1.48594E+1	2.00897E+1	1.48583E+1
110	15/03/2023	18:36:31.435	0.00000E+0	0.00000E+0	-9.96003E+1	-8.54380E-1	0.00000E+0	0.00000E+0	1.98015E+1	1.50774E+1	1.97995E+1	1.50772E+1
111	15/03/2023	18:36:32.826	0.00000E+0	0.00000E+0	-5.79825E+1	-2.22109E-1	0.00000E+0	0.00000E+0	2.04016E+1	1.45276E+1	2.04007E+1	1.45297E+1
112	15/03/2023	18:36:34.241	0.00000E+0	0.00000E+0	2.00347E+0	1.10394E+0	0.00000E+0	0.00000E+0	2.11458E+1	1.38129E+1	2.11454E+1	1.38096E+1
113	15/03/2023	18:36:35.645	0.00000E+0	0.00000E+0	7.58496E+1	1.21614E+0	0.00000E+0	0.00000E+0	2.23821E+1	1.26155E+1	2.23842E+1	1.26143E+1
114	15/03/2023	18:36:37.031	0.00000E+0	0.00000E+0	4.97672E+1	-1.12047E+0	0.00000E+0	0.00000E+0	2.19969E+1	1.29885E+1	2.19958E+1	1.29875E+1
115	15/03/2023	18:36:38.414	0.00000E+0	0.00000E+0	5.59823E+1	-1.29004E-2	0.00000E+0	0.00000E+0	2.20751E+1	1.28991E+1	2.20770E+1	1.28980E+1
116	15/03/2023	18:36:39.795	0.00000E+0	0.00000E+0	4.10787E+1	8.72530E-2	0.00000E+0	0.00000E+0	2.18462E+1	1.30942E+1	2.18471E+1	1.30962E+1
117	15/03/2023	18:36:41.247	0.00000E+0	0.00000E+0	-5.30897E+1	-9.43765E-1	0.00000E+0	0.00000E+0	2.05722E+1	1.43425E+1	2.05739E+1	1.43438E+1
118	15/03/2023	18:36:42.637	0.00000E+0	0.00000E+0	-1.10089E+2	5.18533E-1	0.00000E+0	0.00000E+0	1.96961E+1	1.52320E+1	1.96972E+1	1.52336E+1
119	15/03/2023	18:36:44.028	0.00000E+0	0.00000E+0	-6.85029E+1	1.59084E+0	0.00000E+0	0.00000E+0	2.02548E+1	1.46829E+1	2.02550E+1	1.46861E+1
120	15/03/2023	18:36:45.421	0.00000E+0	0.00000E+0	-5.68927E+1	1.38605E+0	0.00000E+0	0.00000E+0	2.04214E+1	1.45202E+1	2.04210E+1	1.45192E+1
121	15/03/2023	18:36:46.812	0.00000E+0	0.00000E+0	7.81135E+1	-8.35516E-2	0.00000E+0	0.00000E+0	2.23807E+1	1.25832E+1	2.23802E+1	1.25844E+1
122	15/03/2023	18:36:48.233	0.00000E+0	0.00000E+0	5.55432E+1	7.58939E-1	0.00000E+0	0.00000E+0	2.20451E+1	1.29331E+1	2.20437E+1	1.29331E+1
123	15/03/2023	18:36:49.611	0.00000E+0	0.00000E+0	7.44721E+1	-2.05000E-2	0.00000E+0	0.00000E+0	2.23470E+1	1.26304E+1	2.23472E+1	1.26291E+1
124	15/03/2023	18:36:51.003	0.00000E+0	0.00000E+0	4.06709E+1	3.51436E-1	0.00000E+0	0.00000E+0	2.18436E+1	1.31339E+1	2.18420E+1	1.31328E+1
125	15/03/2023	18:36:52.403	0.00000E+0	0.00000E+0	-1.13231E+1	-8.55867E-2	0.00000E+0	0.00000E+0	2.11119E+1	1.38568E+1	2.11115E+1	1.38559E+1
126	15/03/2023	18:36:53.802	0.00000E+0	0.00000E+0	-5.83186E+1	-4.62783E-1	0.00000E+0	0.00000E+0	2.04142E+1	1.45453E+1	2.04147E+1	1.45453E+1
127	15/03/2023	18:36:55.207	0.00000E+0	0.00000E+0	-5.74256E+1	-2.64388E-1	0.00000E+0	0.00000E+0	2.04612E+1	1.45021E+1	2.04630E+1	1.45020E+1
128	15/03/2023	18:36:56.596	0.00000E+0	0.00000E+0	-5.16257E+1	-2.25872E+0	0.00000E+0	0.00000E+0	2.04523E+1	1.44438E+1	2.04539E+1	1.44440E+1
129	15/03/2023	18:36:57.978	0.00000E+0	0.00000E+0	-3.89754E+1	-1.46402E-1	0.00000E+0	0.00000E+0	2.07059E+1	1.42383E+1	2.07072E+1	1.42386E+1
130	15/03/2023	18:36:59.396	0.00000E+0	0.00000E+0	8.88247E+0	-2.41913E-1	0.00000E+0	0.00000E+0	2.12583E+1	1.36965E+1	2.12595E+1	1.36972E+1
131	15/03/2023	18:37:00.782	0.00000E+0	0.00000E+0	6.42480E+1	7.79129E-1	0.00000E+0	0.00000E+0	2.21183E+1	1.28560E+1	2.21198E+1	1.28556E+1
132	15/03/2023	18:37:02.176	0.00000E+0	0.00000E+0	5.99805E+1	2.21012E+0	0.00000E+0	0.00000E+0	2.21223E+1	1.28441E+1	2.21224E+1	1.28416E+1
133	15/03/2023	18:37:03.587	0.00000E+0	0.00000E+0	6.91573E+1	6.62308E-1	0.00000E+0	0.00000E+0	2.22251E+1	1.27313E+1	2.22233E+1	1.27308E+1
134	15/03/2023	18:37:04.977	0.00000E+0	0.00000E+0	4.74112E+1	4.99449E-3	0.00000E+0	0.00000E+0	2.19460E+1	1.30096E+1	2.19440E+1	1.30106E+1
135	15/03/2023	18:37:06.390	0.00000E+0	0.00000E+0	-5.96679E+1	-1.49293E+0	0.00000E+0	0.00000E+0	2.04002E+1	1.45243E+1	2.04011E+1	1.45210E+1
136	15/03/2023	18:37:07.786	0.00000E+0	0.00000E+0	-5.30703E+1	-6.75609E-1	0.00000E+0	0.00000E+0	2.05005E+1	1.44657E+1	2.04977E+1	1.44674E+1
137	15/03/2023	18:37:09.185	0.00000E+0	0.00000E+0	-6.31546E+1	4.17011E-1	0.00000E+0	0.00000E+0	2.03349E+1	1.45998E+1	2.03365E+1	1.46008E+1
138	15/03/2023	18:37:10.572	0.00000E+0	0.00000E+0	-4.88892E+1	-5.25217E-1	0.00000E+0	0.00000E+0	2.05381E+1	1.44095E+1	2.05360E+1	1.44111E+1
139	15/03/2023	18:37:11.964	0.00000E+0	0.00000E+0	-5.30527E+1	-6.36215E-1	0.00000E+0	0.00000E+0	2.04515E+1	1.44856E+1	2.04495E+1	1.44844E+1
140	15/03/2023	18:37:13.351	0.00000E+0	0.00000E+0	9.22010E+1	1.57128E+0	0.00000E+0	0.00000E+0	2.25639E+1	1.24145E+1	2.25627E+1	1.24136E+1
141	15/03/2023	18:37:14.738	0.00000E+0	0.00000E+0	1.05447E+2	8.78910E-1	0.00000E+0	0.00000E+0	2.27137E+1	1.22567E+1	2.27107E+1	1.22576E+1
142	15/03/2023	18:37:16.128	0.00000E+0	0.00000E+0	1.06633E+2	1.65316E+0	0.00000E+0	0.00000E+0	2.27379E+1	1.22020E+1	2.27365E+1	1.22026E+1
143	15/03/2023	18:37:17.543	0.00000E+0	0.00000E+0	-2.26698E+1	9.86983E-1	0.00000E+0	0.00000E+0	2.08717E+1	1.40434E+1	2.08721E+1	1.40407E+1
144	15/03/2023	18:37:18.936	0.00000E+0	0.00000E+0	-8.51026E+1	-1.05502E+0	0.00000E+0	0.00000E+0	2.00456E+1	1.49352E+1	2.00458E+1	1.49343E+1
145	15/03/2023	18:37:20.327	0.00000E+0	0.00000E+0	-3.99108E+1	1.63367E+0	0.00000E+0	0.00000E+0	2.06967E+1	1.43108E+1	2.06988E+1	1.43111E+1
146	15/03/2023	18:37:21.767	0.00000E+0	0.00000E+0	-3.36221E+1	1.46112E+0	0.00000E+0	0.00000E+0	2.07668E+1	1.41619E+1	2.07661E+1	1.41634E+1
147	15/03/2023	18:37:23.171	0.00000E+0	0.00000E+0	-8.04602E+0	4.41221E-1	0.00000E+0	0.00000E+0	2.10799E+1	1.38844E+1	2.10824E+1	1.38827E+1
148	15/03/2023	18:37:24.585	0.00000E+0	0.00000E+0	5.05330E+1	1.86841E+0	0.00000E+0	0.00000E+0	2.19187E+1	1.29763E+1	2.19187E+1	1.29769E+1
149	15/03/2023	18:37:25.960	0.00000E+0	0.00000E+0	6.26317E+1	2.37046E+0	0.00000E+0	0.00000E+0	2.21096E+1	1.28442E+1	2.21105E+1	1.28468E+1
150	15/03/2023	18:37:27.397	0.00000E+0	0.00000E+0	2.01372E+1	-7.20912E-1	0.00000E+0	0.00000E+0	2.15730E+1	1.33115E+1	2.15736E+1	1.33095E+1
151	15/03/2023	18:37:28.808	0.00000E+0	0.00000E+0	-4.81260E+1	-2.27607E+0	0.00000E+0	0.00000E+0	2.06390E+1	1.43683E+1	2.06408E+1	1.43681E+1
152	15/03/2023	18:37:30.197	0.00000E+0	0.00000E+0	-8.31076E+1	-1.18425E+0	0.00000E+0	0.00000E+0	2.00926E+1	1.48857E+1	2.00926E+1	1.48858E+1
153	15/03/2023	18:37:31.588	0.00000E+0	0.00000E+0	-6.73899E+1	-5.98357E-1	0.00000E+0	0.00000E+0	2.02672E+1	1.46771E+1	2.02707E+1	1.46783E+1
154	15/03/2023	18:37:32.975	0.00000E+0	0.00000E+0	-8.17469E+1	-4.71373E-1	0.00000E+0	0.00000E+0	2.01036E+1	1.48242E+1	2.01033E+1	1.48250E+1
155	15/03/2023	18:37:34.348	0.00000E+0	0.00000E+0	9.06000E+1	3.18305E-1	0.00000E+0	0.00000E+0	2.24854E+1	1.24809E+1	2.24860E+1	1.24804E+1
156	15/03/2023	18:37:35.749	0.00000E+0	0.00000E+0	7.98418E+1	2.13725E-3	0.00000E+0	0.00000E+0	2.23630E+1	1.25893E+1	2.23619E+1	1.25869E+1
157	15/03/2023	18:37:37.138	0.00000E+0	0.00000E+0	8.64890E+1	7.53244E-1	0.00000E+0	0.00000E+0	2.24720E+1	1.24980E+1	2.24718E+1	1.24980E+1
158	15/03/2023	18:37:38.517	0.00000E+0	0.00000E+0	-2.78307E+1	-1.03614E+0	0.00000E+0	0.00000E+0	2.09686E+1	1.39925E+1	2.09702E+1	1.39926E+1
159	15/03/2023	18:37:39.925	0.00000E+0	0.00000E+0	-8.99159E+1	-1.39959E-1	0.00000E+0	0.00000E+0	1.99858E+1	1.49679E+1	1.99871E+1	1.49673E+1
160	15/03/2023	18:37:41.314	0.00000E+0	0.00000E+0	-7.74762E+1	-7.84204E-1	0.00000E+0	0.00000E+0	2.01245E+1	1.48161E+1	2.01243E+1	1.48145E+1
161	15/03/2023	18:37:42.694	0.00000E+0	0.00000E+0	-4.85575E+1	-1.23261E+0	0.00000E+0	0.00000E+0	2.05662E+1	1.43725E+1	2.05647E+1	1.43720E+1
162	15/03/2023	18:37:44.078	0.00000E+0	0.00000E+0	1.34930E+1	3.72113E-2	0.00000E+0	0.00000E+0	2.12995E+1	1.36596E+1	2.12991E+1	1.36589E+1
163	15/03/2023	18:37:45.461	0.00000E+0	0.00000E+0	9.24301E+1	-7.27391E-1	0.00000E+0	0.00000E+0	2.25308E+1	1.23911E+1	2.25311E+1	1.23894E+1
164	15/03/2023	18:37:46.858	0.00000E+0	0.00000E+0	9.01152E+1	1.97478E+0	0.00000E+0	0.00000E+0	2.25206E+1	1.24606E+1	2.25192E+1	1.24626E+1
165	15/03/2023	18:37:48.244	0.00000E+0	0.00000E+0	5.83115E+1	7.73525E-2	0.00000E+0	0.00000E+0	2.21922E+1	1.27797E+1	2.21896E+1	1.27786E+1
166	15/03/2023	18:37:49.630	0.00000E+0	0.00000E+0	-9.29447E+1	3.20743E-2	0.00000E+0	0.00000E+0	1.99515E+1	1.50023E+1	1.99488E+1	1.49996E+1
167	15/03/2023	18:37:51.029	0.00000E+0	0.00000E+0	-9.53485E+1	-5.47714E-1	0.00000E+0	0.00000E+0	1.98720E+1	1.50677E+1	1.98722E+1	1.50687E+1
168	15/03/2023	18:37:52.422	0.00000E+0	0.00000E+0	-8.92697E+1	-1.56744E-1	0.00000E+0	0.00000E+0	2.00066E+1	1.49370E+1	2.00055E+1	1.49340E+1
169	15/03/2023	18:37:53.828	0.00000E+0	0.00000E+0	7.52998E+1	1.36927E+0	0.00000E+0	0.00000E+0	2.23417E+1	1.26699E+1	2.23418E+1	1.26688E+1
170	15/03/2023	18:37:55.217	0.00000E+0	0.00000E+0	8.12269E+1	2.70099E-1	0.00000E+0	0.00000E+0	2.24017E+1	1.25641E+1	2.24022E+1	1.25643E+1
171	15/03/2023	18:37:56.604	0.00000E+0	0.00000E+0	8.31127E+1	4.69869E-1	0.00000E+0	0.00000E+0	2.24564E+1	1.25020E+1	2.24557E+1	1.25032E+1
172	15/03/2023	18:37:58.025	0.00000E+0	0.00000E+0	3.90395E+1	9.80551E-1	0.00000E+0	0.00000E+0	2.18463E+1	1.31080E+1	2.18481E+1	1.31087E+1
173	15/03/2023	18:37:59.413	0.00000E+0	0.00000E+0	-7.24003E+1	2.22825E-1	0.00000E+0	0.00000E+0	2.02058E+1	1.46982E+1	2.02092E+1	1.46956E+1
174	15/03/2023	18:38:00.807	0.00000E+0	0.00000E+0	-8.72017E+1	1.55465E-1	0.00000E+0	0.00000E+0	2.00083E+1	1.49139E+1	2.00097E+1	1.49158E+1
175	15/03/2023	18:38:02.202	0.00000E+0	0.00000E+0	-6.62607E+1	-1.10005E-1	0.00000E+0	0.00000E+0	2.03139E+1	1.46466E+1	2.03120E+1	1.46471E+1
176	15/03/2023	18:38:03.593	0.00000E+0	0.00000E+0	-5.00522E+1	1.35696E+0	0.00000E+0	0.00000E+0	2.04429E+1	1.45309E+1	2.04426E+1	1.45309E+1
177	15/03/2023	18:38:04.989	0.00000E+0	0.00000E+0	9.12239E+1	-1.17224E+0	0.00000E+0	0.00000E+0	2.25403E+1	1.24092E+1	2.25377E+1	1.24067E+1
178	15/03/2023	18:38:06.387	0.00000E+0	0.00000E+0	8.42463E+1	1.03100E+0	0.00000E+0	0.00000E+0	2.24209E+1	1.25221E+1	2.24217E+1	1.25219E+1
179	15/03/2023	18:38:07.776	0.00000E+0	0.00000E+0	7.96784E+1	1.10305E+0	0.00000E+0	0.00000E+0	2.24009E+1	1.25360E+1	2.23998E+1	1.25353E+1
180	15/03/2023	18:38:09.179	0.00000E+0	0.00000E+0	-1.19267E+1	1.48870E-2	0.00000E+0	0.00000E+0	2.11137E+1	1.38229E+1	2.11141E+1	1.38223E+1
181	15/03/2023	18:38:10.571	0.00000E+0	0.00000E+0	-7.47917E+1	-1.23862E+0	0.00000E+0	0.00000E+0	2.01986E+1	1.47111E+1	2.01982E+1	1.47102E+1
182	15/03/2023	18:38:11.979	0.00000E+0	0.00000E+0	-8.23488E+1	2.69468E+0	0.00000E+0	0.00000E+0	2.00820E+1	1.48653E+1	2.00810E+1	1.48652E+1
183	15/03/2023	18:38:13.361	0.00000E+0	0.00000E+0	-6.18832E+1	3.54977E-2	0.00000E+0	0.00000E+0	2.03947E+1	1.45778E+1	2.03949E+1	1.45802E+1
184	15/03/2023	18:38:14.777	0.00000E+0	0.00000E+0	-7.07809E+1	-6.02918E-1	0.00000E+0	0.00000E+0	2.02290E+1	1.47252E+1	2.02290E+1	1.47251E+1
185	15/03/2023	18:38:16.153	0.00000E+0	0.00000E+0	6.58798E+1	-1.12239E+0	0.00000E+0	0.00000E+0	2.21426E+1	1.28169E+1	2.21428E+1	1.28155E+1
186	15/03/2023	18:38:17.541	0.00000E+0	0.00000E+0	1.00596E+2	1.72081E+0	0.00000E+0	0.00000E+0	2.26792E+1	1.22847E+1	2.26794E+1	1.22840E+1
187	15/03/2023	18:38:18.919	0.00000E+0	0.00000E+0	1.07881E+2	1.43656E+0	0.00000E+0	0.00000E+0	2.28012E+1	1.21821E+1	2.27993E+1	1.21816E+1
188	15/03/2023	18:38:20.373	0.00000E+0	0.00000E+0	-4.44860E+1	-3.26401E-1	0.00000E+0	0.00000E+0	2.06490E+1	1.42829E+1	2.06470E+1	1.42823E+1
189	15/03/2023	18:38:21.760	0.00000E+0	0.00000E+0	-7.38362E+1	7.38857E-2	0.00000E+0	0.00000E+0	2.02089E+1	1.47570E+1	2.02066E+1	1.47550E+1
190	15/03/2023	18:38:23.161	0.00000E+0	0.00000E+0	-8.43129E+1	-6.40876E-2	0.00000E+0	0.00000E+0	2.00322E+1	1.48772E+1	2.00337E+1	1.48774E+1
191	15/03/2023	18:38:24.546	0.00000E+0	0.00000E+0	-5.52621E+1	-1.64312E-2	0.00000E+0	0.00000E+0	2.04077E+1	1.45083E+1	2.04081E+1	1.45085E+1
192	15/03/2023	18:38:25.936	0.00000E+0	0.00000E+0	2.94967E+1	1.41991E+0	0.00000E+0	0.00000E+0	2.16673E+1	1.33509E+1	2.16702E+1	1.33502E+1
193	15/03/2023	18:38:27.350	0.00000E+0	0.00000E+0	6.24206E+1	9.50497E-1	0.00000E+0	0.00000E+0	2.21604E+1	1.28051E+1	2.21646E+1	1.28043E+1
194	15/03/2023	18:38:28.737	0.00000E+0	0.00000E+0	7.07248E+1	2.08366E+0	0.00000E+0	0.00000E+0	2.22211E+1	1.27445E+1	2.22196E+1	1.27446E+1
195	15/03/2023	18:38:30.120	0.00000E+0	0.00000E+0	8.53113E+1	4.30590E-1	0.00000E+0	0.00000E+0	2.24675E+1	1.24797E+1	2.24657E+1	1.24817E+1
196	15/03/2023	18:38:31.536	0.00000E+0	0.00000E+0	-3.95188E+1	-6.14597E-2	0.00000E+0	0.00000E+0	2.07388E+1	1.41848E+1	2.07411E+1	1.41839E+1
197	15/03/2023	18:38:32.938	0.00000E+0	0.00000E+0	-9.15676E+1	3.15284E-1	0.00000E+0	0.00000E+0	1.99387E+1	1.49995E+1	1.99406E+1	1.50001E+1
198	15/03/2023	18:38:34.350	0.00000E+0	0.00000E+0	-7.20095E+1	-6.46299E-1	0.00000E+0	0.00000E+0	2.02015E+1	1.47214E+1	2.02018E+1	1.47218E+1
199	15/03/2023	18:38:35.732	0.00000E+0	0.00000E+0	-5.85619E+1	-1.12601E+0	0.00000E+0	0.00000E+0	2.04454E+1	1.45071E+1	2.04429E+1	1.45070E+1
200	15/03/2023	18:38:37.124	0.00000E+0	0.00000E+0	4.31633E+1	-1.94923E+0	0.00000E+0	0.00000E+0	2.18225E+1	1.31148E+1	2.18225E+1	1.31144E+1
201	15/03/2023	18:38:38.551	0.00000E+0	0.00000E+0	7.49597E+1	8.81184E-2	0.00000E+0	0.00000E+0	2.22925E+1	1.26707E+1	2.22916E+1	1.26709E+1
202	15/03/2023	18:38:39.930	0.00000E+0	0.00000E+0	9.75605E+1	7.06225E-1	0.00000E+0	0.00000E+0	2.26290E+1	1.23635E+1	2.26302E+1	1.23633E+1
203	15/03/2023	18:38:41.324	0.00000E+0	0.00000E+0	6.12012E+1	8.07409E-1	0.00000E+0	0.00000E+0	2.21401E+1	1.28193E+1	2.21379E+1	1.28192E+1
204	15/03/2023	18:38:42.723	0.00000E+0	0.00000E+0	-5.13044E+1	-3.74650E-1	0.00000E+0	0.00000E+0	2.05555E+1	1.43439E+1	2.05552E+1	1.43465E+1
205	15/03/2023	18:38:44.115	0.00000E+0	0.00000E+0	-7.62951E+1	-4.88490E-1	0.00000E+0	0.00000E+0	2.01421E+1	1.47621E+1	2.01401E+1	1.47623E+1
206	15/03/2023	18:38:45.518	0.00000E+0	0.00000E+0	-7.20137E+1	-4.32170E-1	0.00000E+0	0.00000E+0	2.01969E+1	1.47368E+1	2.01973E+1	1.47366E+1
207	15/03/2023	18:38:46.912	0.00000E+0	0.00000E+0	-6.63464E+1	-2.21967E-1	0.00000E+0	0.00000E+0	2.03325E+1	1.46086E+1	2.03312E+1	1.46096E+1
208	15/03/2023	18:38:48.308	0.00000E+0	0.00000E+0	6.00335E+1	3.14081E-1	0.00000E+0	0.00000E+0	2.20043E+1	1.28805E+1	2.20039E+1	1.28796E+1
209	15/03/2023	18:38:49.734	0.00000E+0	0.00000E+0	5.49911E+1	1.74102E+0	0.00000E+0	0.00000E+0	2.20267E+1	1.29336E+1	2.20295E+1	1.29348E+1
210	15/03/2023	18:38:51.129	0.00000E+0	0.00000E+0	7.75887E+1	4.01504E-1	0.00000E+0	0.00000E+0	2.23354E+1	1.25820E+1	2.23342E+1	1.25817E+1
211	15/03/2023	18:38:52.517	0.00000E+0	0.00000E+0	7.22110E+1	5.10617E-1	0.00000E+0	0.00000E+0	2.23165E+1	1.26549E+1	2.23173E+1	1.26575E+1
212	15/03/2023	18:38:53.905	0.00000E+0	0.00000E+0	-6.18570E+1	-9.94806E-1	0.00000E+0	0.00000E+0	2.04409E+1	1.44722E+1	2.04405E+1	1.44696E+1
213	15/03/2023	18:38:55.300	0.00000E+0	0.00000E+0	-1.06277E+2	-8.97178E-1	0.00000E+0	0.00000E+0	1.97490E+1	1.51775E+1	1.97467E+1	1.51754E+1
214	15/03/2023	18:38:56.711	0.00000E+0	0.00000E+0	-7.18400E+1	-9.47624E-1	0.00000E+0	0.00000E+0	2.01840E+1	1.47435E+1	2.01848E+1	1.47423E+1
215	15/03/2023	18:38:58.094	0.00000E+0	0.00000E+0	-4.24298E+1	-5.18008E-1	0.00000E+0	0.00000E+0	2.05136E+1	1.44013E+1	2.05148E+1	1.44022E+1
216	15/03/2023	18:38:59.473	0.00000E+0	0.00000E+0	1.05156E+2	9.13549E-1	0.00000E+0	0.00000E+0	2.27963E+1	1.21916E+1	2.27957E+1	1.21920E+1
217	15/03/2023	18:39:00.873	0.00000E+0	0.00000E+0	1.43352E+2	2.01878E+0	0.00000E+0	0.00000E+0	2.32882E+1	1.17088E+1	2.32878E+1	1.17079E+1
218	15/03/2023	18:39:02.269	0.00000E+0	0.00000E+0	4.51699E+1	-6.80774E-1	0.00000E+0	0.00000E+0	2.20185E+1	1.29487E+1	2.20191E+1	1.29484E+1
219	15/03/2023	18:39:03.654	0.00000E+0	0.00000E+0	-8.26493E+1	-2.22448E+0	0.00000E+0	0.00000E+0	2.00866E+1	1.48620E+1	2.00837E+1	1.48629E+1
220	15/03/2023	18:39:05.043	0.00000E+0	0.00000E+0	-5.75713E+1	-3.39076E-1	0.00000E+0	0.00000E+0	2.04505E+1	1.45027E+1	2.04483E+1	1.45030E+1
221	15/03/2023	18:39:06.436	0.00000E+0	0.00000E+0	-7.79746E+1	-2.76474E-1	0.00000E+0	0.00000E+0	2.01165E+1	1.48106E+1	2.01181E+1	1.48103E+1
222	15/03/2023	18:39:07.846	0.00000E+0	0.00000E+0	-6.92342E+1	-1.27193E-1	0.00000E+0	0.00000E+0	2.02767E+1	1.46608E+1	2.02762E+1	1.46610E+1
223	15/03/2023	18:39:09.215	0.00000E+0	0.00000E+0	6.23657E+1	1.45436E+0	0.00000E+0	0.00000E+0	2.20926E+1	1.28563E+1	2.20922E+1	1.28548E+1
224	15/03/2023	18:39:10.629	0.00000E+0	0.00000E+0	6.38142E+1	3.07720E-1	0.00000E+0	0.00000E+0	2.21168E+1	1.28280E+1	2.21166E+1	1.28288E+1
225	15/03/2023	18:39:12.057	0.00000E+0	0.00000E+0	6.76750E+1	9.55303E-2	0.00000E+0	0.00000E+0	2.22066E+1	1.27736E+1	2.22063E+1	1.27728E+1
226	15/03/2023	18:39:13.448	0.00000E+0	0.00000E+0	6.71870E+1	1.32734E+0	0.00000E+0	0.00000E+0	2.22113E+1	1.27383E+1	2.22115E+1	1.27368E+1
227	15/03/2023	18:39:14.871	0.00000E+0	0.00000E+0	-1.61167E+1	9.91652E-1	0.00000E+0	0.00000E+0	2.10825E+1	1.38614E+1	2.10828E+1	1.38615E+1
228	15/03/2023	18:39:16.256	0.00000E+0	0.00000E+0	-8.36025E+1	-1.39325E+0	0.00000E+0	0.00000E+0	2.00814E+1	1.48376E+1	2.00809E+1	1.48365E+1
229	15/03/2023	18:39:17.651	0.00000E+0	0.00000E+0	-8.90304E+1	-1.53312E+0	0.00000E+0	0.00000E+0	1.99809E+1	1.49696E+1	1.99806E+1	1.49710E+1
230	15/03/2023	18:39:19.049	0.00000E+0	0.00000E+0	-5.98885E+1	-7.26838E-1	0.00000E+0	0.00000E+0	2.03924E+1	1.45369E+1	2.03932E+1	1.45375E+1
231	15/03/2023	18:39:20.443	0.00000E+0	0.00000E+0	2.29728E+1	2.67773E+0	0.00000E+0	0.00000E+0	2.14726E+1	1.34878E+1	2.14705E+1	1.34866E+1
232	15/03/2023	18:39:21.860	0.00000E+0	0.00000E+0	6.47058E+1	2.86026E-1	0.00000E+0	0.00000E+0	2.21704E+1	1.27549E+1	2.21699E+1	1.27544E+1
233	15/03/2023	18:39:23.248	0.00000E+0	0.00000E+0	6.43716E+1	1.34762E+0	0.00000E+0	0.00000E+0	2.22065E+1	1.27564E+1	2.22077E+1	1.27582E+1
234	15/03/2023	18:39:24.634	0.00000E+0	0.00000E+0	6.86040E+1	-1.55998E-2	0.00000E+0	0.00000E+0	2.22583E+1	1.27240E+1	2.22572E+1	1.27253E+1
235	15/03/2023	18:39:26.052	0.00000E+0	0.00000E+0	2.94047E+1	-1.46980E-1	0.00000E+0	0.00000E+0	2.17778E+1	1.31839E+1	2.17786E+1	1.31832E+1
236	15/03/2023	18:39:27.436	0.00000E+0	0.00000E+0	-7.25248E+1	-6.44497E-1	0.00000E+0	0.00000E+0	2.02091E+1	1.46961E+1	2.02092E+1	1.46960E+1
237	15/03/2023	18:39:28.836	0.00000E+0	0.00000E+0	-6.73118E+1	-1.43440E+0	0.00000E+0	0.00000E+0	2.02935E+1	1.46274E+1	2.02954E+1	1.46278E+1
238	15/03/2023	18:39:30.235	0.00000E+0	0.00000E+0	-5.09156E+1	1.23305E+0	0.00000E+0	0.00000E+0	2.05379E+1	1.44138E+1	2.05397E+1	1.44139E+1
239	15/03/2023	18:39:31.638	0.00000E+0	0.00000E+0	-4.18855E+1	2.66904E-1	0.00000E+0	0.00000E+0	2.06475E+1	1.43078E+1	2.06466E+1	1.43082E+1
240	15/03/2023	18:39:33.029	0.00000E+0	0.00000E+0	2.57674E+1	-4.00079E-2	0.00000E+0	0.00000E+0	2.16127E+1	1.33351E+1	2.16109E+1	1.33342E+1
241	15/03/2023	18:39:34.423	0.00000E+0	0.00000E+0	5.66436E+1	1.46161E+0	0.00000E+0	0.00000E+0	2.20749E+1	1.29166E+1	2.20773E+1	1.29163E+1
242	15/03/2023	18:39:35.792	0.00000E+0	0.00000E+0	7.02135E+1	8.52040E-1	0.00000E+0	0.00000E+0	2.22232E+1	1.27464E+1	2.22225E+1	1.27435E+1
