#Iteration	Date	Time	Chirp	Phase	RamanAxis	RatioMean	RatioStdDev
1	02/09/2022	16:16:59.003	0.00000000E+0	-3.14159265E+1	5.00000000E+0	4.57739532E-1	0.00000000E+0
2	02/09/2022	16:17:00.497	0.00000000E+0	-3.12065382E+1	5.00000000E+0	4.70791966E-1	0.00000000E+0
3	02/09/2022	16:17:01.909	0.00000000E+0	-3.09971498E+1	5.00000000E+0	4.79376393E-1	0.00000000E+0
4	02/09/2022	16:17:03.331	0.00000000E+0	-3.07877614E+1	5.00000000E+0	4.92147685E-1	0.00000000E+0
5	02/09/2022	16:17:04.716	0.00000000E+0	-3.05779895E+1	5.00000000E+0	4.86488884E-1	0.00000000E+0
6	02/09/2022	16:17:06.090	0.00000000E+0	-3.03686012E+1	5.00000000E+0	4.97366718E-1	0.00000000E+0
7	02/09/2022	16:17:07.582	0.00000000E+0	-3.01592128E+1	5.00000000E+0	4.93644850E-1	0.00000000E+0
8	02/09/2022	16:17:09.025	0.00000000E+0	-2.99498244E+1	5.00000000E+0	4.76894672E-1	0.00000000E+0
9	02/09/2022	16:17:10.449	0.00000000E+0	-2.97404360E+1	5.00000000E+0	4.91061547E-1	0.00000000E+0
10	02/09/2022	16:17:11.992	0.00000000E+0	-2.95310476E+1	5.00000000E+0	4.86636182E-1	0.00000000E+0
11	02/09/2022	16:17:13.380	0.00000000E+0	-2.93216593E+1	5.00000000E+0	4.79898583E-1	0.00000000E+0
12	02/09/2022	16:17:14.943	0.00000000E+0	-2.91122709E+1	5.00000000E+0	4.82069999E-1	0.00000000E+0
13	02/09/2022	16:17:16.399	0.00000000E+0	-2.89024990E+1	5.00000000E+0	4.71197005E-1	0.00000000E+0
14	02/09/2022	16:17:17.785	0.00000000E+0	-2.86931106E+1	5.00000000E+0	4.67146512E-1	0.00000000E+0
15	02/09/2022	16:17:19.251	0.00000000E+0	-2.84837223E+1	5.00000000E+0	4.51669798E-1	0.00000000E+0
16	02/09/2022	16:17:20.653	0.00000000E+0	-2.82743339E+1	5.00000000E+0	4.41782061E-1	0.00000000E+0
17	02/09/2022	16:17:22.050	0.00000000E+0	-2.80649455E+1	5.00000000E+0	4.32071300E-1	0.00000000E+0
18	02/09/2022	16:17:23.573	0.00000000E+0	-2.78555571E+1	5.00000000E+0	4.27554662E-1	0.00000000E+0
19	02/09/2022	16:17:24.961	0.00000000E+0	-2.76461687E+1	5.00000000E+0	4.22902805E-1	0.00000000E+0
20	02/09/2022	16:17:26.431	0.00000000E+0	-2.74363969E+1	5.00000000E+0	4.17861419E-1	0.00000000E+0
21	02/09/2022	16:17:27.903	0.00000000E+0	-2.72270085E+1	5.00000000E+0	4.11710701E-1	0.00000000E+0
22	02/09/2022	16:17:29.315	0.00000000E+0	-2.70176201E+1	5.00000000E+0	4.07025895E-1	0.00000000E+0
23	02/09/2022	16:17:30.832	0.00000000E+0	-2.68082317E+1	5.00000000E+0	4.10332100E-1	0.00000000E+0
24	02/09/2022	16:17:32.206	0.00000000E+0	-2.65988434E+1	5.00000000E+0	4.12846389E-1	0.00000000E+0
25	02/09/2022	16:17:33.653	0.00000000E+0	-2.63894550E+1	5.00000000E+0	4.11339172E-1	0.00000000E+0
26	02/09/2022	16:17:35.068	0.00000000E+0	-2.61800666E+1	5.00000000E+0	4.22033792E-1	0.00000000E+0
27	02/09/2022	16:17:36.436	0.00000000E+0	-2.59706782E+1	5.00000000E+0	4.28231294E-1	0.00000000E+0
28	02/09/2022	16:17:37.969	0.00000000E+0	-2.57609064E+1	5.00000000E+0	4.38736767E-1	0.00000000E+0
29	02/09/2022	16:17:39.363	0.00000000E+0	-2.55515180E+1	5.00000000E+0	4.41137217E-1	0.00000000E+0
30	02/09/2022	16:17:40.831	0.00000000E+0	-2.53421296E+1	5.00000000E+0	4.47902737E-1	0.00000000E+0
31	02/09/2022	16:17:42.416	0.00000000E+0	-2.51327412E+1	5.00000000E+0	4.56161474E-1	0.00000000E+0
32	02/09/2022	16:17:44.183	0.00000000E+0	-2.49233529E+1	5.00000000E+0	4.71560835E-1	0.00000000E+0
33	02/09/2022	16:17:45.606	0.00000000E+0	-2.47139645E+1	5.00000000E+0	4.70875921E-1	0.00000000E+0
34	02/09/2022	16:17:47.035	0.00000000E+0	-2.45045761E+1	5.00000000E+0	4.71224384E-1	0.00000000E+0
35	02/09/2022	16:17:48.447	0.00000000E+0	-2.42948042E+1	5.00000000E+0	4.86706903E-1	0.00000000E+0
36	02/09/2022	16:17:50.045	0.00000000E+0	-2.40854158E+1	5.00000000E+0	4.95326576E-1	0.00000000E+0
37	02/09/2022	16:17:51.439	0.00000000E+0	-2.38760275E+1	5.00000000E+0	4.90522419E-1	0.00000000E+0
38	02/09/2022	16:17:52.815	0.00000000E+0	-2.36666391E+1	5.00000000E+0	4.95522972E-1	0.00000000E+0
39	02/09/2022	16:17:54.343	0.00000000E+0	-2.34572507E+1	5.00000000E+0	4.87268685E-1	0.00000000E+0
40	02/09/2022	16:17:55.775	0.00000000E+0	-2.32478623E+1	5.00000000E+0	4.84115989E-1	0.00000000E+0
41	02/09/2022	16:17:57.331	0.00000000E+0	-2.30384740E+1	5.00000000E+0	4.86632239E-1	0.00000000E+0
42	02/09/2022	16:17:58.756	0.00000000E+0	-2.28290856E+1	5.00000000E+0	4.79927497E-1	0.00000000E+0
43	02/09/2022	16:18:00.131	0.00000000E+0	-2.26193137E+1	5.00000000E+0	4.68604478E-1	0.00000000E+0
44	02/09/2022	16:18:01.685	0.00000000E+0	-2.24099253E+1	5.00000000E+0	4.58149295E-1	0.00000000E+0
45	02/09/2022	16:18:03.104	0.00000000E+0	-2.22005370E+1	5.00000000E+0	4.56043641E-1	0.00000000E+0
46	02/09/2022	16:18:04.595	0.00000000E+0	-2.19911486E+1	5.00000000E+0	4.41895359E-1	0.00000000E+0
47	02/09/2022	16:18:06.092	0.00000000E+0	-2.17817602E+1	5.00000000E+0	4.36129791E-1	0.00000000E+0
48	02/09/2022	16:18:07.475	0.00000000E+0	-2.15723718E+1	5.00000000E+0	4.33748875E-1	0.00000000E+0
49	02/09/2022	16:18:09.000	0.00000000E+0	-2.13629834E+1	5.00000000E+0	4.16938615E-1	0.00000000E+0
50	02/09/2022	16:18:10.391	0.00000000E+0	-2.11532116E+1	5.00000000E+0	4.16414235E-1	0.00000000E+0
51	02/09/2022	16:18:11.799	0.00000000E+0	-2.09438232E+1	5.00000000E+0	4.09041315E-1	0.00000000E+0
52	02/09/2022	16:18:13.323	0.00000000E+0	-2.07344348E+1	5.00000000E+0	4.12411526E-1	0.00000000E+0
53	02/09/2022	16:18:14.720	0.00000000E+0	-2.05250464E+1	5.00000000E+0	4.11883420E-1	0.00000000E+0
54	02/09/2022	16:18:16.248	0.00000000E+0	-2.03156581E+1	5.00000000E+0	4.08664586E-1	0.00000000E+0
55	02/09/2022	16:18:17.658	0.00000000E+0	-2.01062697E+1	5.00000000E+0	4.19509996E-1	0.00000000E+0
56	02/09/2022	16:18:19.066	0.00000000E+0	-1.98968813E+1	5.00000000E+0	4.17669793E-1	0.00000000E+0
57	02/09/2022	16:18:20.574	0.00000000E+0	-1.96874929E+1	5.00000000E+0	4.29000778E-1	0.00000000E+0
58	02/09/2022	16:18:21.976	0.00000000E+0	-1.94777211E+1	5.00000000E+0	4.33403448E-1	0.00000000E+0
59	02/09/2022	16:18:23.428	0.00000000E+0	-1.92683327E+1	5.00000000E+0	4.43344563E-1	0.00000000E+0
60	02/09/2022	16:18:24.790	0.00000000E+0	-1.90589443E+1	5.00000000E+0	4.47740612E-1	0.00000000E+0
61	02/09/2022	16:18:26.184	0.00000000E+0	-1.88495559E+1	5.00000000E+0	4.50486280E-1	0.00000000E+0
62	02/09/2022	16:18:27.664	0.00000000E+0	-1.86401675E+1	5.00000000E+0	4.66163223E-1	0.00000000E+0
63	02/09/2022	16:18:29.041	0.00000000E+0	-1.84307792E+1	5.00000000E+0	4.71511881E-1	0.00000000E+0
64	02/09/2022	16:18:30.502	0.00000000E+0	-1.82213908E+1	5.00000000E+0	4.76592044E-1	0.00000000E+0
65	02/09/2022	16:18:32.010	0.00000000E+0	-1.80116189E+1	5.00000000E+0	4.86060946E-1	0.00000000E+0
66	02/09/2022	16:18:33.385	0.00000000E+0	-1.78022305E+1	5.00000000E+0	4.81458992E-1	0.00000000E+0
67	02/09/2022	16:18:34.934	0.00000000E+0	-1.75928422E+1	5.00000000E+0	4.96899596E-1	0.00000000E+0
68	02/09/2022	16:18:36.315	0.00000000E+0	-1.73834538E+1	5.00000000E+0	4.88943129E-1	0.00000000E+0
69	02/09/2022	16:18:37.707	0.00000000E+0	-1.71740654E+1	5.00000000E+0	4.87573320E-1	0.00000000E+0
70	02/09/2022	16:18:39.209	0.00000000E+0	-1.69646770E+1	5.00000000E+0	4.85423048E-1	0.00000000E+0
71	02/09/2022	16:18:40.611	0.00000000E+0	-1.67552887E+1	5.00000000E+0	4.78500049E-1	0.00000000E+0
72	02/09/2022	16:18:41.988	0.00000000E+0	-1.65459003E+1	5.00000000E+0	4.72212481E-1	0.00000000E+0
73	02/09/2022	16:18:43.486	0.00000000E+0	-1.63361284E+1	5.00000000E+0	4.69542462E-1	0.00000000E+0
74	02/09/2022	16:18:44.876	0.00000000E+0	-1.61267400E+1	5.00000000E+0	4.57097410E-1	0.00000000E+0
75	02/09/2022	16:18:46.386	0.00000000E+0	-1.59173516E+1	5.00000000E+0	4.52552430E-1	0.00000000E+0
76	02/09/2022	16:18:47.777	0.00000000E+0	-1.57079633E+1	5.00000000E+0	4.52504321E-1	0.00000000E+0
77	02/09/2022	16:18:49.174	0.00000000E+0	-1.54985749E+1	5.00000000E+0	4.35812161E-1	0.00000000E+0
78	02/09/2022	16:18:50.622	0.00000000E+0	-1.52891865E+1	5.00000000E+0	4.29695915E-1	0.00000000E+0
79	02/09/2022	16:18:52.026	0.00000000E+0	-1.50797981E+1	5.00000000E+0	4.27203195E-1	0.00000000E+0
80	02/09/2022	16:18:53.427	0.00000000E+0	-1.48700263E+1	5.00000000E+0	4.19124683E-1	0.00000000E+0
81	02/09/2022	16:18:54.772	0.00000000E+0	-1.46606379E+1	5.00000000E+0	4.16766947E-1	0.00000000E+0
82	02/09/2022	16:18:56.156	0.00000000E+0	-1.44512495E+1	5.00000000E+0	4.14377716E-1	0.00000000E+0
83	02/09/2022	16:18:57.837	0.00000000E+0	-1.42418611E+1	5.00000000E+0	4.13088450E-1	0.00000000E+0
84	02/09/2022	16:18:59.248	0.00000000E+0	-1.40324728E+1	5.00000000E+0	4.12747733E-1	0.00000000E+0
85	02/09/2022	16:19:00.632	0.00000000E+0	-1.38230844E+1	5.00000000E+0	4.18902570E-1	0.00000000E+0
86	02/09/2022	16:19:02.166	0.00000000E+0	-1.36136960E+1	5.00000000E+0	4.18227890E-1	0.00000000E+0
87	02/09/2022	16:19:03.537	0.00000000E+0	-1.34043076E+1	5.00000000E+0	4.23402974E-1	0.00000000E+0
88	02/09/2022	16:19:05.099	0.00000000E+0	-1.31945357E+1	5.00000000E+0	4.37016885E-1	0.00000000E+0
89	02/09/2022	16:19:06.487	0.00000000E+0	-1.29851474E+1	5.00000000E+0	4.35914558E-1	0.00000000E+0
90	02/09/2022	16:19:07.857	0.00000000E+0	-1.27757590E+1	5.00000000E+0	4.49141038E-1	0.00000000E+0
91	02/09/2022	16:19:09.365	0.00000000E+0	-1.25663706E+1	5.00000000E+0	4.57312968E-1	0.00000000E+0
92	02/09/2022	16:19:10.754	0.00000000E+0	-1.23569822E+1	5.00000000E+0	4.66964291E-1	0.00000000E+0
93	02/09/2022	16:19:12.202	0.00000000E+0	-1.21475939E+1	5.00000000E+0	4.69898652E-1	0.00000000E+0
94	02/09/2022	16:19:13.696	0.00000000E+0	-1.19382055E+1	5.00000000E+0	4.76879535E-1	0.00000000E+0
95	02/09/2022	16:19:15.062	0.00000000E+0	-1.17284336E+1	5.00000000E+0	4.87857114E-1	0.00000000E+0
96	02/09/2022	16:19:16.571	0.00000000E+0	-1.15190452E+1	5.00000000E+0	4.81854377E-1	0.00000000E+0
97	02/09/2022	16:19:17.965	0.00000000E+0	-1.13096569E+1	5.00000000E+0	4.88233380E-1	0.00000000E+0
98	02/09/2022	16:19:19.344	0.00000000E+0	-1.11002685E+1	5.00000000E+0	4.90717292E-1	0.00000000E+0
99	02/09/2022	16:19:20.855	0.00000000E+0	-1.08908801E+1	5.00000000E+0	4.89808586E-1	0.00000000E+0
100	02/09/2022	16:19:22.231	0.00000000E+0	-1.06814917E+1	5.00000000E+0	4.88007633E-1	0.00000000E+0
101	02/09/2022	16:19:23.750	0.00000000E+0	-1.04721033E+1	5.00000000E+0	4.78161092E-1	0.00000000E+0
102	02/09/2022	16:19:25.211	0.00000000E+0	-1.02627150E+1	5.00000000E+0	4.74833136E-1	0.00000000E+0
103	02/09/2022	16:19:26.610	0.00000000E+0	-1.00529431E+1	5.00000000E+0	4.68807567E-1	0.00000000E+0
104	02/09/2022	16:19:28.166	0.00000000E+0	-9.84355472E+0	5.00000000E+0	4.64818683E-1	0.00000000E+0
105	02/09/2022	16:19:29.577	0.00000000E+0	-9.63416634E+0	5.00000000E+0	4.50536477E-1	0.00000000E+0
106	02/09/2022	16:19:30.979	0.00000000E+0	-9.42477796E+0	5.00000000E+0	4.45801936E-1	0.00000000E+0
107	02/09/2022	16:19:32.504	0.00000000E+0	-9.21538958E+0	5.00000000E+0	4.33238816E-1	0.00000000E+0
108	02/09/2022	16:19:33.876	0.00000000E+0	-9.00600121E+0	5.00000000E+0	4.30814745E-1	0.00000000E+0
109	02/09/2022	16:19:35.359	0.00000000E+0	-8.79661283E+0	5.00000000E+0	4.22183151E-1	0.00000000E+0
110	02/09/2022	16:19:36.751	0.00000000E+0	-8.58684096E+0	5.00000000E+0	4.12516273E-1	0.00000000E+0
111	02/09/2022	16:19:38.137	0.00000000E+0	-8.37745258E+0	5.00000000E+0	4.15466653E-1	0.00000000E+0
112	02/09/2022	16:19:39.676	0.00000000E+0	-8.16806420E+0	5.00000000E+0	4.18112949E-1	0.00000000E+0
113	02/09/2022	16:19:41.057	0.00000000E+0	-7.95867582E+0	5.00000000E+0	4.17511360E-1	0.00000000E+0
114	02/09/2022	16:19:42.515	0.00000000E+0	-7.74928745E+0	5.00000000E+0	4.07946085E-1	0.00000000E+0
115	02/09/2022	16:19:43.837	0.00000000E+0	-7.53989907E+0	5.00000000E+0	4.19906339E-1	0.00000000E+0
116	02/09/2022	16:19:45.214	0.00000000E+0	-7.33051069E+0	5.00000000E+0	4.17082484E-1	0.00000000E+0
117	02/09/2022	16:19:46.696	0.00000000E+0	-7.12112231E+0	5.00000000E+0	4.22160154E-1	0.00000000E+0
118	02/09/2022	16:19:48.091	0.00000000E+0	-6.91135044E+0	5.00000000E+0	4.35801652E-1	0.00000000E+0
119	02/09/2022	16:19:49.529	0.00000000E+0	-6.70196206E+0	5.00000000E+0	4.39061513E-1	0.00000000E+0
120	02/09/2022	16:19:51.029	0.00000000E+0	-6.49257368E+0	5.00000000E+0	4.48392772E-1	0.00000000E+0
121	02/09/2022	16:19:52.420	0.00000000E+0	-6.28318531E+0	5.00000000E+0	4.56578717E-1	0.00000000E+0
122	02/09/2022	16:19:53.907	0.00000000E+0	-6.07379693E+0	5.00000000E+0	4.67773515E-1	0.00000000E+0
123	02/09/2022	16:19:55.293	0.00000000E+0	-5.86440855E+0	5.00000000E+0	4.71427643E-1	0.00000000E+0
124	02/09/2022	16:19:56.713	0.00000000E+0	-5.65502017E+0	5.00000000E+0	4.80362816E-1	0.00000000E+0
125	02/09/2022	16:19:58.254	0.00000000E+0	-5.44524830E+0	5.00000000E+0	4.82127625E-1	0.00000000E+0
126	02/09/2022	16:19:59.646	0.00000000E+0	-5.23585992E+0	5.00000000E+0	4.90574560E-1	0.00000000E+0
127	02/09/2022	16:20:01.034	0.00000000E+0	-5.02647155E+0	5.00000000E+0	4.93757311E-1	0.00000000E+0
128	02/09/2022	16:20:02.551	0.00000000E+0	-4.81708317E+0	5.00000000E+0	4.86650702E-1	0.00000000E+0
129	02/09/2022	16:20:03.969	0.00000000E+0	-4.60769479E+0	5.00000000E+0	4.98230868E-1	0.00000000E+0
130	02/09/2022	16:20:05.439	0.00000000E+0	-4.39830641E+0	5.00000000E+0	4.91248431E-1	0.00000000E+0
131	02/09/2022	16:20:06.847	0.00000000E+0	-4.18891804E+0	5.00000000E+0	4.82664545E-1	0.00000000E+0
132	02/09/2022	16:20:08.232	0.00000000E+0	-3.97952966E+0	5.00000000E+0	4.78863037E-1	0.00000000E+0
133	02/09/2022	16:20:09.761	0.00000000E+0	-3.76975779E+0	5.00000000E+0	4.69454816E-1	0.00000000E+0
134	02/09/2022	16:20:11.167	0.00000000E+0	-3.56036941E+0	5.00000000E+0	4.66443685E-1	0.00000000E+0
135	02/09/2022	16:20:12.612	0.00000000E+0	-3.35098103E+0	5.00000000E+0	4.50165013E-1	0.00000000E+0
136	02/09/2022	16:20:13.977	0.00000000E+0	-3.14159265E+0	5.00000000E+0	4.40011407E-1	0.00000000E+0
137	02/09/2022	16:20:15.369	0.00000000E+0	-2.93220428E+0	5.00000000E+0	4.35991208E-1	0.00000000E+0
138	02/09/2022	16:20:16.926	0.00000000E+0	-2.72281590E+0	5.00000000E+0	4.33843381E-1	0.00000000E+0
139	02/09/2022	16:20:18.286	0.00000000E+0	-2.51342752E+0	5.00000000E+0	4.26097669E-1	0.00000000E+0
140	02/09/2022	16:20:19.752	0.00000000E+0	-2.30365565E+0	5.00000000E+0	4.16936730E-1	0.00000000E+0
141	02/09/2022	16:20:21.246	0.00000000E+0	-2.09426727E+0	5.00000000E+0	4.14823068E-1	0.00000000E+0
142	02/09/2022	16:20:22.654	0.00000000E+0	-1.88487889E+0	5.00000000E+0	4.14085363E-1	0.00000000E+0
143	02/09/2022	16:20:24.138	0.00000000E+0	-1.67549052E+0	5.00000000E+0	4.09645753E-1	0.00000000E+0
144	02/09/2022	16:20:25.534	0.00000000E+0	-1.46610214E+0	5.00000000E+0	4.13929352E-1	0.00000000E+0
145	02/09/2022	16:20:26.892	0.00000000E+0	-1.25671376E+0	5.00000000E+0	4.18264143E-1	0.00000000E+0
146	02/09/2022	16:20:28.440	0.00000000E+0	-1.04732538E+0	5.00000000E+0	4.22733893E-1	0.00000000E+0
147	02/09/2022	16:20:29.842	0.00000000E+0	-8.37937005E-1	5.00000000E+0	4.26500339E-1	0.00000000E+0
148	02/09/2022	16:20:31.220	0.00000000E+0	-6.28165133E-1	5.00000000E+0	4.30102597E-1	0.00000000E+0
149	02/09/2022	16:20:32.724	0.00000000E+0	-4.18776755E-1	5.00000000E+0	4.41031722E-1	0.00000000E+0
150	02/09/2022	16:20:34.104	0.00000000E+0	-2.09388378E-1	5.00000000E+0	4.52358400E-1	0.00000000E+0
151	02/09/2022	16:20:35.643	0.00000000E+0	0.00000000E+0	5.00000000E+0	4.62008331E-1	0.00000000E+0
152	02/09/2022	16:20:37.008	0.00000000E+0	2.09388378E-1	5.00000000E+0	4.65723839E-1	0.00000000E+0
153	02/09/2022	16:20:38.405	0.00000000E+0	4.18776755E-1	5.00000000E+0	4.73673205E-1	0.00000000E+0
154	02/09/2022	16:20:39.849	0.00000000E+0	6.28165133E-1	5.00000000E+0	4.75798707E-1	0.00000000E+0
155	02/09/2022	16:20:41.229	0.00000000E+0	8.37937005E-1	5.00000000E+0	4.82838440E-1	0.00000000E+0
156	02/09/2022	16:20:42.707	0.00000000E+0	1.04732538E+0	5.00000000E+0	4.83943417E-1	0.00000000E+0
157	02/09/2022	16:20:44.130	0.00000000E+0	1.25671376E+0	5.00000000E+0	4.82536342E-1	0.00000000E+0
158	02/09/2022	16:20:45.529	0.00000000E+0	1.46610214E+0	5.00000000E+0	4.90099302E-1	0.00000000E+0
159	02/09/2022	16:20:47.007	0.00000000E+0	1.67549052E+0	5.00000000E+0	4.86347613E-1	0.00000000E+0
160	02/09/2022	16:20:48.397	0.00000000E+0	1.88487889E+0	5.00000000E+0	4.81356909E-1	0.00000000E+0
161	02/09/2022	16:20:49.810	0.00000000E+0	2.09426727E+0	5.00000000E+0	4.86951702E-1	0.00000000E+0
162	02/09/2022	16:20:51.336	0.00000000E+0	2.30365565E+0	5.00000000E+0	4.81008892E-1	0.00000000E+0
163	02/09/2022	16:20:52.733	0.00000000E+0	2.51342752E+0	5.00000000E+0	4.65612884E-1	0.00000000E+0
164	02/09/2022	16:20:54.186	0.00000000E+0	2.72281590E+0	5.00000000E+0	4.65494528E-1	0.00000000E+0
165	02/09/2022	16:20:55.563	0.00000000E+0	2.93220428E+0	5.00000000E+0	4.49653660E-1	0.00000000E+0
166	02/09/2022	16:20:56.959	0.00000000E+0	3.14159265E+0	5.00000000E+0	4.45071257E-1	0.00000000E+0
167	02/09/2022	16:20:58.530	0.00000000E+0	3.35098103E+0	5.00000000E+0	4.35794497E-1	0.00000000E+0
168	02/09/2022	16:20:59.905	0.00000000E+0	3.56036941E+0	5.00000000E+0	4.30768545E-1	0.00000000E+0
169	02/09/2022	16:21:01.357	0.00000000E+0	3.76975779E+0	5.00000000E+0	4.15099803E-1	0.00000000E+0
170	02/09/2022	16:21:02.719	0.00000000E+0	3.97952966E+0	5.00000000E+0	4.29376913E-1	0.00000000E+0
171	02/09/2022	16:21:04.106	0.00000000E+0	4.18891804E+0	5.00000000E+0	4.15608618E-1	0.00000000E+0
172	02/09/2022	16:21:05.664	0.00000000E+0	4.39830641E+0	5.00000000E+0	4.17148782E-1	0.00000000E+0
173	02/09/2022	16:21:07.062	0.00000000E+0	4.60769479E+0	5.00000000E+0	4.14237493E-1	0.00000000E+0
174	02/09/2022	16:21:08.501	0.00000000E+0	4.81708317E+0	5.00000000E+0	4.16663313E-1	0.00000000E+0
175	02/09/2022	16:21:10.015	0.00000000E+0	5.02647155E+0	5.00000000E+0	4.21247332E-1	0.00000000E+0
176	02/09/2022	16:21:11.396	0.00000000E+0	5.23585992E+0	5.00000000E+0	4.18800617E-1	0.00000000E+0
177	02/09/2022	16:21:12.837	0.00000000E+0	5.44524830E+0	5.00000000E+0	4.27470378E-1	0.00000000E+0
178	02/09/2022	16:21:14.332	0.00000000E+0	5.65502017E+0	5.00000000E+0	4.26883785E-1	0.00000000E+0
179	02/09/2022	16:21:15.717	0.00000000E+0	5.86440855E+0	5.00000000E+0	4.41064513E-1	0.00000000E+0
180	02/09/2022	16:21:17.222	0.00000000E+0	6.07379693E+0	5.00000000E+0	4.49497488E-1	0.00000000E+0
181	02/09/2022	16:21:18.633	0.00000000E+0	6.28318531E+0	5.00000000E+0	4.56753479E-1	0.00000000E+0
182	02/09/2022	16:21:20.026	0.00000000E+0	6.49257368E+0	5.00000000E+0	4.66532094E-1	0.00000000E+0
183	02/09/2022	16:21:21.537	0.00000000E+0	6.70196206E+0	5.00000000E+0	4.70263316E-1	0.00000000E+0
184	02/09/2022	16:21:22.928	0.00000000E+0	6.91135044E+0	5.00000000E+0	4.76059065E-1	0.00000000E+0
185	02/09/2022	16:21:24.407	0.00000000E+0	7.12112231E+0	5.00000000E+0	4.87350520E-1	0.00000000E+0
186	02/09/2022	16:21:25.767	0.00000000E+0	7.33051069E+0	5.00000000E+0	4.90522701E-1	0.00000000E+0
187	02/09/2022	16:21:27.159	0.00000000E+0	7.53989907E+0	5.00000000E+0	4.88625327E-1	0.00000000E+0
188	02/09/2022	16:21:28.650	0.00000000E+0	7.74928745E+0	5.00000000E+0	4.96034140E-1	0.00000000E+0
189	02/09/2022	16:21:30.026	0.00000000E+0	7.95867582E+0	5.00000000E+0	4.90644886E-1	0.00000000E+0
190	02/09/2022	16:21:31.486	0.00000000E+0	8.16806420E+0	5.00000000E+0	4.89786460E-1	0.00000000E+0
191	02/09/2022	16:21:32.892	0.00000000E+0	8.37745258E+0	5.00000000E+0	4.80275680E-1	0.00000000E+0
192	02/09/2022	16:21:34.291	0.00000000E+0	8.58684096E+0	5.00000000E+0	4.73278772E-1	0.00000000E+0
193	02/09/2022	16:21:35.826	0.00000000E+0	8.79661283E+0	5.00000000E+0	4.68228452E-1	0.00000000E+0
194	02/09/2022	16:21:37.215	0.00000000E+0	9.00600121E+0	5.00000000E+0	4.63428125E-1	0.00000000E+0
195	02/09/2022	16:21:38.613	0.00000000E+0	9.21538958E+0	5.00000000E+0	4.50711110E-1	0.00000000E+0
196	02/09/2022	16:21:40.122	0.00000000E+0	9.42477796E+0	5.00000000E+0	4.49845670E-1	0.00000000E+0
197	02/09/2022	16:21:41.517	0.00000000E+0	9.63416634E+0	5.00000000E+0	4.35131177E-1	0.00000000E+0
198	02/09/2022	16:21:43.048	0.00000000E+0	9.84355472E+0	5.00000000E+0	4.26752786E-1	0.00000000E+0
199	02/09/2022	16:21:44.433	0.00000000E+0	1.00529431E+1	5.00000000E+0	4.21987155E-1	0.00000000E+0
200	02/09/2022	16:21:45.813	0.00000000E+0	1.02627150E+1	5.00000000E+0	4.17794320E-1	0.00000000E+0
201	02/09/2022	16:21:47.336	0.00000000E+0	1.04721033E+1	5.00000000E+0	4.25187680E-1	0.00000000E+0
202	02/09/2022	16:21:48.717	0.00000000E+0	1.06814917E+1	5.00000000E+0	4.11802792E-1	0.00000000E+0
203	02/09/2022	16:21:50.161	0.00000000E+0	1.08908801E+1	5.00000000E+0	4.13427398E-1	0.00000000E+0
204	02/09/2022	16:21:51.657	0.00000000E+0	1.11002685E+1	5.00000000E+0	4.12341241E-1	0.00000000E+0
205	02/09/2022	16:21:53.051	0.00000000E+0	1.13096569E+1	5.00000000E+0	4.19751016E-1	0.00000000E+0
206	02/09/2022	16:21:54.535	0.00000000E+0	1.15190452E+1	5.00000000E+0	4.24569073E-1	0.00000000E+0
207	02/09/2022	16:21:55.920	0.00000000E+0	1.17284336E+1	5.00000000E+0	4.27973134E-1	0.00000000E+0
208	02/09/2022	16:21:57.299	0.00000000E+0	1.19382055E+1	5.00000000E+0	4.38050633E-1	0.00000000E+0
209	02/09/2022	16:21:58.793	0.00000000E+0	1.21475939E+1	5.00000000E+0	4.39449118E-1	0.00000000E+0
210	02/09/2022	16:22:00.183	0.00000000E+0	1.23569822E+1	5.00000000E+0	4.51522648E-1	0.00000000E+0
211	02/09/2022	16:22:01.740	0.00000000E+0	1.25663706E+1	5.00000000E+0	4.56164531E-1	0.00000000E+0
212	02/09/2022	16:22:03.147	0.00000000E+0	1.27757590E+1	5.00000000E+0	4.68367020E-1	0.00000000E+0
213	02/09/2022	16:22:04.527	0.00000000E+0	1.29851474E+1	5.00000000E+0	4.71572789E-1	0.00000000E+0
214	02/09/2022	16:22:06.081	0.00000000E+0	1.31945357E+1	5.00000000E+0	4.83302377E-1	0.00000000E+0
215	02/09/2022	16:22:07.469	0.00000000E+0	1.34043076E+1	5.00000000E+0	4.85336010E-1	0.00000000E+0
216	02/09/2022	16:22:08.850	0.00000000E+0	1.36136960E+1	5.00000000E+0	4.87598584E-1	0.00000000E+0
217	02/09/2022	16:22:10.338	0.00000000E+0	1.38230844E+1	5.00000000E+0	4.87969053E-1	0.00000000E+0
218	02/09/2022	16:22:11.738	0.00000000E+0	1.40324728E+1	5.00000000E+0	4.85911845E-1	0.00000000E+0
219	02/09/2022	16:22:13.166	0.00000000E+0	1.42418611E+1	5.00000000E+0	4.93891561E-1	0.00000000E+0
220	02/09/2022	16:22:14.567	0.00000000E+0	1.44512495E+1	5.00000000E+0	4.82234631E-1	0.00000000E+0
221	02/09/2022	16:22:15.937	0.00000000E+0	1.46606379E+1	5.00000000E+0	4.79624632E-1	0.00000000E+0
222	02/09/2022	16:22:17.478	0.00000000E+0	1.48700263E+1	5.00000000E+0	4.78709752E-1	0.00000000E+0
223	02/09/2022	16:22:18.878	0.00000000E+0	1.50797981E+1	5.00000000E+0	4.66318615E-1	0.00000000E+0
224	02/09/2022	16:22:20.312	0.00000000E+0	1.52891865E+1	5.00000000E+0	4.59068381E-1	0.00000000E+0
225	02/09/2022	16:22:21.702	0.00000000E+0	1.54985749E+1	5.00000000E+0	4.45673296E-1	0.00000000E+0
226	02/09/2022	16:22:23.103	0.00000000E+0	1.57079633E+1	5.00000000E+0	4.45976816E-1	0.00000000E+0
227	02/09/2022	16:22:24.711	0.00000000E+0	1.59173516E+1	5.00000000E+0	4.41690837E-1	0.00000000E+0
228	02/09/2022	16:22:26.100	0.00000000E+0	1.61267400E+1	5.00000000E+0	4.26416657E-1	0.00000000E+0
229	02/09/2022	16:22:27.542	0.00000000E+0	1.63361284E+1	5.00000000E+0	4.30478817E-1	0.00000000E+0
230	02/09/2022	16:22:29.025	0.00000000E+0	1.65459003E+1	5.00000000E+0	4.16411746E-1	0.00000000E+0
231	02/09/2022	16:22:30.416	0.00000000E+0	1.67552887E+1	5.00000000E+0	4.12422859E-1	0.00000000E+0
232	02/09/2022	16:22:31.859	0.00000000E+0	1.69646770E+1	5.00000000E+0	4.06858690E-1	0.00000000E+0
233	02/09/2022	16:22:33.310	0.00000000E+0	1.71740654E+1	5.00000000E+0	4.10839882E-1	0.00000000E+0
234	02/09/2022	16:22:34.669	0.00000000E+0	1.73834538E+1	5.00000000E+0	4.12024928E-1	0.00000000E+0
235	02/09/2022	16:22:36.190	0.00000000E+0	1.75928422E+1	5.00000000E+0	4.14691686E-1	0.00000000E+0
236	02/09/2022	16:22:37.594	0.00000000E+0	1.78022305E+1	5.00000000E+0	4.14609648E-1	0.00000000E+0
237	02/09/2022	16:22:38.983	0.00000000E+0	1.80116189E+1	5.00000000E+0	4.27818940E-1	0.00000000E+0
238	02/09/2022	16:22:40.477	0.00000000E+0	1.82213908E+1	5.00000000E+0	4.32297858E-1	0.00000000E+0
239	02/09/2022	16:22:41.873	0.00000000E+0	1.84307792E+1	5.00000000E+0	4.39459657E-1	0.00000000E+0
240	02/09/2022	16:22:43.326	0.00000000E+0	1.86401675E+1	5.00000000E+0	4.53074133E-1	0.00000000E+0
241	02/09/2022	16:22:44.701	0.00000000E+0	1.88495559E+1	5.00000000E+0	4.57115030E-1	0.00000000E+0
242	02/09/2022	16:22:46.072	0.00000000E+0	1.90589443E+1	5.00000000E+0	4.61724857E-1	0.00000000E+0
243	02/09/2022	16:22:47.562	0.00000000E+0	1.92683327E+1	5.00000000E+0	4.69814936E-1	0.00000000E+0
244	02/09/2022	16:22:48.962	0.00000000E+0	1.94777211E+1	5.00000000E+0	4.72497848E-1	0.00000000E+0
245	02/09/2022	16:22:50.433	0.00000000E+0	1.96874929E+1	5.00000000E+0	4.81190738E-1	0.00000000E+0
246	02/09/2022	16:22:51.764	0.00000000E+0	1.98968813E+1	5.00000000E+0	4.89166295E-1	0.00000000E+0
247	02/09/2022	16:22:53.164	0.00000000E+0	2.01062697E+1	5.00000000E+0	4.87930309E-1	0.00000000E+0
248	02/09/2022	16:22:54.623	0.00000000E+0	2.03156581E+1	5.00000000E+0	4.88137512E-1	0.00000000E+0
249	02/09/2022	16:22:56.025	0.00000000E+0	2.05250464E+1	5.00000000E+0	4.90523639E-1	0.00000000E+0
250	02/09/2022	16:22:57.414	0.00000000E+0	2.07344348E+1	5.00000000E+0	4.86063828E-1	0.00000000E+0
251	02/09/2022	16:22:58.942	0.00000000E+0	2.09438232E+1	5.00000000E+0	4.76851856E-1	0.00000000E+0
252	02/09/2022	16:23:00.320	0.00000000E+0	2.11532116E+1	5.00000000E+0	4.79844422E-1	0.00000000E+0
253	02/09/2022	16:23:01.772	0.00000000E+0	2.13629834E+1	5.00000000E+0	4.72062130E-1	0.00000000E+0
254	02/09/2022	16:23:03.167	0.00000000E+0	2.15723718E+1	5.00000000E+0	4.58960910E-1	0.00000000E+0
255	02/09/2022	16:23:04.587	0.00000000E+0	2.17817602E+1	5.00000000E+0	4.60217893E-1	0.00000000E+0
256	02/09/2022	16:23:06.118	0.00000000E+0	2.19911486E+1	5.00000000E+0	4.44830127E-1	0.00000000E+0
257	02/09/2022	16:23:07.515	0.00000000E+0	2.22005370E+1	5.00000000E+0	4.40836948E-1	0.00000000E+0
258	02/09/2022	16:23:08.969	0.00000000E+0	2.24099253E+1	5.00000000E+0	4.32269745E-1	0.00000000E+0
259	02/09/2022	16:23:10.501	0.00000000E+0	2.26193137E+1	5.00000000E+0	4.26513473E-1	0.00000000E+0
260	02/09/2022	16:23:11.887	0.00000000E+0	2.28290856E+1	5.00000000E+0	4.22002739E-1	0.00000000E+0
261	02/09/2022	16:23:13.386	0.00000000E+0	2.30384740E+1	5.00000000E+0	4.17366726E-1	0.00000000E+0
262	02/09/2022	16:23:14.763	0.00000000E+0	2.32478623E+1	5.00000000E+0	4.16519034E-1	0.00000000E+0
263	02/09/2022	16:23:16.131	0.00000000E+0	2.34572507E+1	5.00000000E+0	4.11815853E-1	0.00000000E+0
264	02/09/2022	16:23:17.596	0.00000000E+0	2.36666391E+1	5.00000000E+0	4.15405877E-1	0.00000000E+0
265	02/09/2022	16:23:18.978	0.00000000E+0	2.38760275E+1	5.00000000E+0	4.16808903E-1	0.00000000E+0
266	02/09/2022	16:23:20.427	0.00000000E+0	2.40854158E+1	5.00000000E+0	4.20321252E-1	0.00000000E+0
267	02/09/2022	16:23:21.869	0.00000000E+0	2.42948042E+1	5.00000000E+0	4.28676632E-1	0.00000000E+0
268	02/09/2022	16:23:23.247	0.00000000E+0	2.45045761E+1	5.00000000E+0	4.39462669E-1	0.00000000E+0
269	02/09/2022	16:23:24.727	0.00000000E+0	2.47139645E+1	5.00000000E+0	4.34701303E-1	0.00000000E+0
270	02/09/2022	16:23:26.099	0.00000000E+0	2.49233529E+1	5.00000000E+0	4.48556161E-1	0.00000000E+0
271	02/09/2022	16:23:27.565	0.00000000E+0	2.51327412E+1	5.00000000E+0	4.56643276E-1	0.00000000E+0
272	02/09/2022	16:23:29.096	0.00000000E+0	2.53421296E+1	5.00000000E+0	4.68216253E-1	0.00000000E+0
273	02/09/2022	16:23:30.490	0.00000000E+0	2.55515180E+1	5.00000000E+0	4.71699152E-1	0.00000000E+0
274	02/09/2022	16:23:31.950	0.00000000E+0	2.57609064E+1	5.00000000E+0	4.77654652E-1	0.00000000E+0
275	02/09/2022	16:23:33.348	0.00000000E+0	2.59706782E+1	5.00000000E+0	4.80751116E-1	0.00000000E+0
276	02/09/2022	16:23:34.712	0.00000000E+0	2.61800666E+1	5.00000000E+0	4.91137949E-1	0.00000000E+0
277	02/09/2022	16:23:36.214	0.00000000E+0	2.63894550E+1	5.00000000E+0	4.89984801E-1	0.00000000E+0
278	02/09/2022	16:23:37.583	0.00000000E+0	2.65988434E+1	5.00000000E+0	4.91930344E-1	0.00000000E+0
279	02/09/2022	16:23:39.024	0.00000000E+0	2.68082317E+1	5.00000000E+0	4.89347758E-1	0.00000000E+0
280	02/09/2022	16:23:40.420	0.00000000E+0	2.70176201E+1	5.00000000E+0	4.80506951E-1	0.00000000E+0
281	02/09/2022	16:23:41.797	0.00000000E+0	2.72270085E+1	5.00000000E+0	4.88834967E-1	0.00000000E+0
282	02/09/2022	16:23:43.257	0.00000000E+0	2.74363969E+1	5.00000000E+0	4.74377567E-1	0.00000000E+0
283	02/09/2022	16:23:44.648	0.00000000E+0	2.76461687E+1	5.00000000E+0	4.68508723E-1	0.00000000E+0
284	02/09/2022	16:23:46.103	0.00000000E+0	2.78555571E+1	5.00000000E+0	4.52710565E-1	0.00000000E+0
285	02/09/2022	16:23:47.599	0.00000000E+0	2.80649455E+1	5.00000000E+0	4.54163938E-1	0.00000000E+0
286	02/09/2022	16:23:48.974	0.00000000E+0	2.82743339E+1	5.00000000E+0	4.47143700E-1	0.00000000E+0
287	02/09/2022	16:23:50.418	0.00000000E+0	2.84837223E+1	5.00000000E+0	4.41561283E-1	0.00000000E+0
288	02/09/2022	16:23:51.813	0.00000000E+0	2.86931106E+1	5.00000000E+0	4.33583865E-1	0.00000000E+0
289	02/09/2022	16:23:53.179	0.00000000E+0	2.89024990E+1	5.00000000E+0	4.25694762E-1	0.00000000E+0
290	02/09/2022	16:23:54.726	0.00000000E+0	2.91122709E+1	5.00000000E+0	4.15716868E-1	0.00000000E+0
291	02/09/2022	16:23:56.090	0.00000000E+0	2.93216593E+1	5.00000000E+0	4.09853124E-1	0.00000000E+0
292	02/09/2022	16:23:57.534	0.00000000E+0	2.95310476E+1	5.00000000E+0	4.12176934E-1	0.00000000E+0
293	02/09/2022	16:23:59.031	0.00000000E+0	2.97404360E+1	5.00000000E+0	4.09687858E-1	0.00000000E+0
294	02/09/2022	16:24:00.442	0.00000000E+0	2.99498244E+1	5.00000000E+0	4.17206851E-1	0.00000000E+0
295	02/09/2022	16:24:01.929	0.00000000E+0	3.01592128E+1	5.00000000E+0	4.16620678E-1	0.00000000E+0
296	02/09/2022	16:24:03.316	0.00000000E+0	3.03686012E+1	5.00000000E+0	4.19971896E-1	0.00000000E+0
297	02/09/2022	16:24:04.696	0.00000000E+0	3.05779895E+1	5.00000000E+0	4.29134221E-1	0.00000000E+0
298	02/09/2022	16:24:06.195	0.00000000E+0	3.07877614E+1	5.00000000E+0	4.33747480E-1	0.00000000E+0
299	02/09/2022	16:24:07.601	0.00000000E+0	3.09971498E+1	5.00000000E+0	4.40787374E-1	0.00000000E+0
300	02/09/2022	16:24:09.050	0.00000000E+0	3.12065382E+1	5.00000000E+0	4.40910971E-1	0.00000000E+0
301	02/09/2022	16:24:10.430	0.00000000E+0	3.14159265E+1	5.00000000E+0	4.55355253E-1	0.00000000E+0
