#Iteration	Date	Time	STSX	STSY	RotationRateX	RotationRateY	FrCntX	FrCntY	TiptiltCmd1	TiptiltCmd2	TiptiltMonitor1	TiptiltMonitor2
1	02/09/2022	16:16:59.003	0.00000E+0	0.00000E+0	1.20000E+2	0.00000E+0	0.00000E+0	0.00000E+0	2.00000E+1	1.40000E+1	1.99991E+1	1.39979E+1
2	02/09/2022	16:17:00.497	0.00000E+0	0.00000E+0	1.20000E+2	0.00000E+0	0.00000E+0	0.00000E+0	2.00000E+1	1.40000E+1	1.99987E+1	1.40006E+1
3	02/09/2022	16:17:01.909	0.00000E+0	0.00000E+0	1.20000E+2	0.00000E+0	0.00000E+0	0.00000E+0	2.00000E+1	1.40000E+1	2.00002E+1	1.39991E+1
4	02/09/2022	16:17:03.331	0.00000E+0	0.00000E+0	1.20000E+2	0.00000E+0	0.00000E+0	0.00000E+0	2.00000E+1	1.40000E+1	2.00017E+1	1.40016E+1
5	02/09/2022	16:17:04.716	0.00000E+0	0.00000E+0	1.20000E+2	0.00000E+0	0.00000E+0	0.00000E+0	2.00000E+1	1.40000E+1	2.00006E+1	1.40026E+1
6	02/09/2022	16:17:06.090	0.00000E+0	0.00000E+0	1.20000E+2	0.00000E+0	0.00000E+0	0.00000E+0	2.00000E+1	1.40000E+1	2.00001E+1	1.40001E+1
7	02/09/2022	16:17:07.582	0.00000E+0	0.00000E+0	1.20000E+2	0.00000E+0	0.00000E+0	0.00000E+0	2.00000E+1	1.40000E+1	1.99974E+1	1.40004E+1
8	02/09/2022	16:17:09.025	0.00000E+0	0.00000E+0	1.20000E+2	0.00000E+0	0.00000E+0	0.00000E+0	2.00000E+1	1.40000E+1	2.00011E+1	1.39998E+1
9	02/09/2022	16:17:10.449	0.00000E+0	0.00000E+0	1.20000E+2	0.00000E+0	0.00000E+0	0.00000E+0	2.00000E+1	1.40000E+1	2.00015E+1	1.40013E+1
10	02/09/2022	16:17:11.992	0.00000E+0	0.00000E+0	1.20000E+2	0.00000E+0	0.00000E+0	0.00000E+0	2.00000E+1	1.40000E+1	1.99992E+1	1.40014E+1
11	02/09/2022	16:17:13.380	0.00000E+0	0.00000E+0	1.20000E+2	0.00000E+0	0.00000E+0	0.00000E+0	2.00000E+1	1.40000E+1	1.99980E+1	1.39991E+1
12	02/09/2022	16:17:14.943	0.00000E+0	0.00000E+0	1.20000E+2	0.00000E+0	0.00000E+0	0.00000E+0	2.00000E+1	1.40000E+1	2.00008E+1	1.39974E+1
13	02/09/2022	16:17:16.399	0.00000E+0	0.00000E+0	1.20000E+2	0.00000E+0	0.00000E+0	0.00000E+0	2.00000E+1	1.40000E+1	1.99968E+1	1.40018E+1
14	02/09/2022	16:17:17.785	0.00000E+0	0.00000E+0	1.20000E+2	0.00000E+0	0.00000E+0	0.00000E+0	2.00000E+1	1.40000E+1	1.99996E+1	1.40011E+1
15	02/09/2022	16:17:19.251	0.00000E+0	0.00000E+0	1.20000E+2	0.00000E+0	0.00000E+0	0.00000E+0	2.00000E+1	1.40000E+1	2.00017E+1	1.40007E+1
16	02/09/2022	16:17:20.653	0.00000E+0	0.00000E+0	1.20000E+2	0.00000E+0	0.00000E+0	0.00000E+0	2.00000E+1	1.40000E+1	2.00001E+1	1.39998E+1
17	02/09/2022	16:17:22.050	0.00000E+0	0.00000E+0	1.20000E+2	0.00000E+0	0.00000E+0	0.00000E+0	2.00000E+1	1.40000E+1	1.99974E+1	1.40034E+1
18	02/09/2022	16:17:23.573	0.00000E+0	0.00000E+0	1.20000E+2	0.00000E+0	0.00000E+0	0.00000E+0	2.00000E+1	1.40000E+1	1.99995E+1	1.40004E+1
19	02/09/2022	16:17:24.961	0.00000E+0	0.00000E+0	1.20000E+2	0.00000E+0	0.00000E+0	0.00000E+0	2.00000E+1	1.40000E+1	1.99995E+1	1.39965E+1
20	02/09/2022	16:17:26.431	0.00000E+0	0.00000E+0	1.20000E+2	0.00000E+0	0.00000E+0	0.00000E+0	2.00000E+1	1.40000E+1	1.99979E+1	1.40003E+1
21	02/09/2022	16:17:27.903	0.00000E+0	0.00000E+0	1.20000E+2	0.00000E+0	0.00000E+0	0.00000E+0	2.00000E+1	1.40000E+1	2.00000E+1	1.39996E+1
22	02/09/2022	16:17:29.315	0.00000E+0	0.00000E+0	1.20000E+2	0.00000E+0	0.00000E+0	0.00000E+0	2.00000E+1	1.40000E+1	1.99991E+1	1.40012E+1
23	02/09/2022	16:17:30.832	0.00000E+0	0.00000E+0	1.20000E+2	0.00000E+0	0.00000E+0	0.00000E+0	2.00000E+1	1.40000E+1	1.99957E+1	1.39983E+1
24	02/09/2022	16:17:32.206	0.00000E+0	0.00000E+0	1.20000E+2	0.00000E+0	0.00000E+0	0.00000E+0	2.00000E+1	1.40000E+1	1.99982E+1	1.40011E+1
25	02/09/2022	16:17:33.653	0.00000E+0	0.00000E+0	1.20000E+2	0.00000E+0	0.00000E+0	0.00000E+0	2.00000E+1	1.40000E+1	1.99992E+1	1.40015E+1
26	02/09/2022	16:17:35.068	0.00000E+0	0.00000E+0	1.20000E+2	0.00000E+0	0.00000E+0	0.00000E+0	2.00000E+1	1.40000E+1	2.00010E+1	1.40013E+1
27	02/09/2022	16:17:36.436	0.00000E+0	0.00000E+0	1.20000E+2	0.00000E+0	0.00000E+0	0.00000E+0	2.00000E+1	1.40000E+1	1.99987E+1	1.40005E+1
28	02/09/2022	16:17:37.969	0.00000E+0	0.00000E+0	1.20000E+2	0.00000E+0	0.00000E+0	0.00000E+0	2.00000E+1	1.40000E+1	2.00006E+1	1.39987E+1
29	02/09/2022	16:17:39.363	0.00000E+0	0.00000E+0	1.20000E+2	0.00000E+0	0.00000E+0	0.00000E+0	2.00000E+1	1.40000E+1	2.00036E+1	1.39980E+1
30	02/09/2022	16:17:40.831	0.00000E+0	0.00000E+0	1.20000E+2	0.00000E+0	0.00000E+0	0.00000E+0	2.00000E+1	1.40000E+1	1.99969E+1	1.40010E+1
31	02/09/2022	16:17:42.416	0.00000E+0	0.00000E+0	1.20000E+2	0.00000E+0	0.00000E+0	0.00000E+0	2.00000E+1	1.40000E+1	2.00006E+1	1.39986E+1
32	02/09/2022	16:17:44.183	0.00000E+0	0.00000E+0	1.20000E+2	0.00000E+0	0.00000E+0	0.00000E+0	2.00000E+1	1.40000E+1	2.00005E+1	1.40011E+1
33	02/09/2022	16:17:45.606	0.00000E+0	0.00000E+0	1.20000E+2	0.00000E+0	0.00000E+0	0.00000E+0	2.00000E+1	1.40000E+1	1.99981E+1	1.40008E+1
34	02/09/2022	16:17:47.035	0.00000E+0	0.00000E+0	1.20000E+2	0.00000E+0	0.00000E+0	0.00000E+0	2.00000E+1	1.40000E+1	1.99990E+1	1.40019E+1
35	02/09/2022	16:17:48.447	0.00000E+0	0.00000E+0	1.20000E+2	0.00000E+0	0.00000E+0	0.00000E+0	2.00000E+1	1.40000E+1	1.99997E+1	1.39987E+1
36	02/09/2022	16:17:50.045	0.00000E+0	0.00000E+0	1.20000E+2	0.00000E+0	0.00000E+0	0.00000E+0	2.00000E+1	1.40000E+1	2.00000E+1	1.40018E+1
37	02/09/2022	16:17:51.439	0.00000E+0	0.00000E+0	1.20000E+2	0.00000E+0	0.00000E+0	0.00000E+0	2.00000E+1	1.40000E+1	1.99975E+1	1.39983E+1
38	02/09/2022	16:17:52.815	0.00000E+0	0.00000E+0	1.20000E+2	0.00000E+0	0.00000E+0	0.00000E+0	2.00000E+1	1.40000E+1	2.00012E+1	1.40019E+1
39	02/09/2022	16:17:54.343	0.00000E+0	0.00000E+0	1.20000E+2	0.00000E+0	0.00000E+0	0.00000E+0	2.00000E+1	1.40000E+1	2.00003E+1	1.40000E+1
40	02/09/2022	16:17:55.775	0.00000E+0	0.00000E+0	1.20000E+2	0.00000E+0	0.00000E+0	0.00000E+0	2.00000E+1	1.40000E+1	2.00007E+1	1.40010E+1
41	02/09/2022	16:17:57.331	0.00000E+0	0.00000E+0	1.20000E+2	0.00000E+0	0.00000E+0	0.00000E+0	2.00000E+1	1.40000E+1	1.99987E+1	1.40012E+1
42	02/09/2022	16:17:58.756	0.00000E+0	0.00000E+0	1.20000E+2	0.00000E+0	0.00000E+0	0.00000E+0	2.00000E+1	1.40000E+1	2.00019E+1	1.39986E+1
43	02/09/2022	16:18:00.131	0.00000E+0	0.00000E+0	1.20000E+2	0.00000E+0	0.00000E+0	0.00000E+0	2.00000E+1	1.40000E+1	2.00009E+1	1.40020E+1
44	02/09/2022	16:18:01.685	0.00000E+0	0.00000E+0	1.20000E+2	0.00000E+0	0.00000E+0	0.00000E+0	2.00000E+1	1.40000E+1	1.99998E+1	1.39984E+1
45	02/09/2022	16:18:03.104	0.00000E+0	0.00000E+0	1.20000E+2	0.00000E+0	0.00000E+0	0.00000E+0	2.00000E+1	1.40000E+1	1.99989E+1	1.39995E+1
46	02/09/2022	16:18:04.595	0.00000E+0	0.00000E+0	1.20000E+2	0.00000E+0	0.00000E+0	0.00000E+0	2.00000E+1	1.40000E+1	1.99987E+1	1.39989E+1
47	02/09/2022	16:18:06.092	0.00000E+0	0.00000E+0	1.20000E+2	0.00000E+0	0.00000E+0	0.00000E+0	2.00000E+1	1.40000E+1	1.99983E+1	1.40023E+1
48	02/09/2022	16:18:07.475	0.00000E+0	0.00000E+0	1.20000E+2	0.00000E+0	0.00000E+0	0.00000E+0	2.00000E+1	1.40000E+1	2.00012E+1	1.39997E+1
49	02/09/2022	16:18:09.000	0.00000E+0	0.00000E+0	1.20000E+2	0.00000E+0	0.00000E+0	0.00000E+0	2.00000E+1	1.40000E+1	1.99974E+1	1.39980E+1
50	02/09/2022	16:18:10.391	0.00000E+0	0.00000E+0	1.20000E+2	0.00000E+0	0.00000E+0	0.00000E+0	2.00000E+1	1.40000E+1	2.00032E+1	1.39998E+1
51	02/09/2022	16:18:11.799	0.00000E+0	0.00000E+0	1.20000E+2	0.00000E+0	0.00000E+0	0.00000E+0	2.00000E+1	1.40000E+1	2.00008E+1	1.40030E+1
52	02/09/2022	16:18:13.323	0.00000E+0	0.00000E+0	1.20000E+2	0.00000E+0	0.00000E+0	0.00000E+0	2.00000E+1	1.40000E+1	1.99981E+1	1.40031E+1
53	02/09/2022	16:18:14.720	0.00000E+0	0.00000E+0	1.20000E+2	0.00000E+0	0.00000E+0	0.00000E+0	2.00000E+1	1.40000E+1	2.00006E+1	1.40016E+1
54	02/09/2022	16:18:16.248	0.00000E+0	0.00000E+0	1.20000E+2	0.00000E+0	0.00000E+0	0.00000E+0	2.00000E+1	1.40000E+1	2.00007E+1	1.39977E+1
55	02/09/2022	16:18:17.658	0.00000E+0	0.00000E+0	1.20000E+2	0.00000E+0	0.00000E+0	0.00000E+0	2.00000E+1	1.40000E+1	1.99976E+1	1.39974E+1
56	02/09/2022	16:18:19.066	0.00000E+0	0.00000E+0	1.20000E+2	0.00000E+0	0.00000E+0	0.00000E+0	2.00000E+1	1.40000E+1	2.00014E+1	1.40003E+1
57	02/09/2022	16:18:20.574	0.00000E+0	0.00000E+0	1.20000E+2	0.00000E+0	0.00000E+0	0.00000E+0	2.00000E+1	1.40000E+1	1.99987E+1	1.39996E+1
58	02/09/2022	16:18:21.976	0.00000E+0	0.00000E+0	1.20000E+2	0.00000E+0	0.00000E+0	0.00000E+0	2.00000E+1	1.40000E+1	1.99999E+1	1.39988E+1
59	02/09/2022	16:18:23.428	0.00000E+0	0.00000E+0	1.20000E+2	0.00000E+0	0.00000E+0	0.00000E+0	2.00000E+1	1.40000E+1	1.99992E+1	1.39970E+1
60	02/09/2022	16:18:24.790	0.00000E+0	0.00000E+0	1.20000E+2	0.00000E+0	0.00000E+0	0.00000E+0	2.00000E+1	1.40000E+1	1.99967E+1	1.40006E+1
61	02/09/2022	16:18:26.184	0.00000E+0	0.00000E+0	1.20000E+2	0.00000E+0	0.00000E+0	0.00000E+0	2.00000E+1	1.40000E+1	1.99995E+1	1.40012E+1
62	02/09/2022	16:18:27.664	0.00000E+0	0.00000E+0	1.20000E+2	0.00000E+0	0.00000E+0	0.00000E+0	2.00000E+1	1.40000E+1	1.99984E+1	1.40035E+1
63	02/09/2022	16:18:29.041	0.00000E+0	0.00000E+0	1.20000E+2	0.00000E+0	0.00000E+0	0.00000E+0	2.00000E+1	1.40000E+1	2.00017E+1	1.39995E+1
64	02/09/2022	16:18:30.502	0.00000E+0	0.00000E+0	1.20000E+2	0.00000E+0	0.00000E+0	0.00000E+0	2.00000E+1	1.40000E+1	2.00002E+1	1.39992E+1
65	02/09/2022	16:18:32.010	0.00000E+0	0.00000E+0	1.20000E+2	0.00000E+0	0.00000E+0	0.00000E+0	2.00000E+1	1.40000E+1	1.99984E+1	1.40006E+1
66	02/09/2022	16:18:33.385	0.00000E+0	0.00000E+0	1.20000E+2	0.00000E+0	0.00000E+0	0.00000E+0	2.00000E+1	1.40000E+1	2.00014E+1	1.40017E+1
67	02/09/2022	16:18:34.934	0.00000E+0	0.00000E+0	1.20000E+2	0.00000E+0	0.00000E+0	0.00000E+0	2.00000E+1	1.40000E+1	1.99994E+1	1.39986E+1
68	02/09/2022	16:18:36.315	0.00000E+0	0.00000E+0	1.20000E+2	0.00000E+0	0.00000E+0	0.00000E+0	2.00000E+1	1.40000E+1	2.00002E+1	1.40013E+1
69	02/09/2022	16:18:37.707	0.00000E+0	0.00000E+0	1.20000E+2	0.00000E+0	0.00000E+0	0.00000E+0	2.00000E+1	1.40000E+1	2.00014E+1	1.40003E+1
70	02/09/2022	16:18:39.209	0.00000E+0	0.00000E+0	1.20000E+2	0.00000E+0	0.00000E+0	0.00000E+0	2.00000E+1	1.40000E+1	1.99999E+1	1.40008E+1
71	02/09/2022	16:18:40.611	0.00000E+0	0.00000E+0	1.20000E+2	0.00000E+0	0.00000E+0	0.00000E+0	2.00000E+1	1.40000E+1	2.00004E+1	1.39997E+1
72	02/09/2022	16:18:41.988	0.00000E+0	0.00000E+0	1.20000E+2	0.00000E+0	0.00000E+0	0.00000E+0	2.00000E+1	1.40000E+1	2.00007E+1	1.39981E+1
73	02/09/2022	16:18:43.486	0.00000E+0	0.00000E+0	1.20000E+2	0.00000E+0	0.00000E+0	0.00000E+0	2.00000E+1	1.40000E+1	1.99998E+1	1.39988E+1
74	02/09/2022	16:18:44.876	0.00000E+0	0.00000E+0	1.20000E+2	0.00000E+0	0.00000E+0	0.00000E+0	2.00000E+1	1.40000E+1	1.99993E+1	1.39996E+1
75	02/09/2022	16:18:46.386	0.00000E+0	0.00000E+0	1.20000E+2	0.00000E+0	0.00000E+0	0.00000E+0	2.00000E+1	1.40000E+1	1.99976E+1	1.40007E+1
76	02/09/2022	16:18:47.777	0.00000E+0	0.00000E+0	1.20000E+2	0.00000E+0	0.00000E+0	0.00000E+0	2.00000E+1	1.40000E+1	1.99998E+1	1.40031E+1
77	02/09/2022	16:18:49.174	0.00000E+0	0.00000E+0	1.20000E+2	0.00000E+0	0.00000E+0	0.00000E+0	2.00000E+1	1.40000E+1	1.99996E+1	1.39968E+1
78	02/09/2022	16:18:50.622	0.00000E+0	0.00000E+0	1.20000E+2	0.00000E+0	0.00000E+0	0.00000E+0	2.00000E+1	1.40000E+1	1.99993E+1	1.39976E+1
79	02/09/2022	16:18:52.026	0.00000E+0	0.00000E+0	1.20000E+2	0.00000E+0	0.00000E+0	0.00000E+0	2.00000E+1	1.40000E+1	2.00002E+1	1.39983E+1
80	02/09/2022	16:18:53.427	0.00000E+0	0.00000E+0	1.20000E+2	0.00000E+0	0.00000E+0	0.00000E+0	2.00000E+1	1.40000E+1	2.00015E+1	1.40022E+1
81	02/09/2022	16:18:54.772	0.00000E+0	0.00000E+0	1.20000E+2	0.00000E+0	0.00000E+0	0.00000E+0	2.00000E+1	1.40000E+1	2.00019E+1	1.39990E+1
82	02/09/2022	16:18:56.156	0.00000E+0	0.00000E+0	1.20000E+2	0.00000E+0	0.00000E+0	0.00000E+0	2.00000E+1	1.40000E+1	1.99983E+1	1.40008E+1
83	02/09/2022	16:18:57.837	0.00000E+0	0.00000E+0	1.20000E+2	0.00000E+0	0.00000E+0	0.00000E+0	2.00000E+1	1.40000E+1	1.99994E+1	1.40007E+1
84	02/09/2022	16:18:59.248	0.00000E+0	0.00000E+0	1.20000E+2	0.00000E+0	0.00000E+0	0.00000E+0	2.00000E+1	1.40000E+1	1.99982E+1	1.39992E+1
85	02/09/2022	16:19:00.632	0.00000E+0	0.00000E+0	1.20000E+2	0.00000E+0	0.00000E+0	0.00000E+0	2.00000E+1	1.40000E+1	2.00000E+1	1.39988E+1
86	02/09/2022	16:19:02.166	0.00000E+0	0.00000E+0	1.20000E+2	0.00000E+0	0.00000E+0	0.00000E+0	2.00000E+1	1.40000E+1	2.00010E+1	1.40009E+1
87	02/09/2022	16:19:03.537	0.00000E+0	0.00000E+0	1.20000E+2	0.00000E+0	0.00000E+0	0.00000E+0	2.00000E+1	1.40000E+1	2.00033E+1	1.39981E+1
88	02/09/2022	16:19:05.099	0.00000E+0	0.00000E+0	1.20000E+2	0.00000E+0	0.00000E+0	0.00000E+0	2.00000E+1	1.40000E+1	1.99997E+1	1.40004E+1
89	02/09/2022	16:19:06.487	0.00000E+0	0.00000E+0	1.20000E+2	0.00000E+0	0.00000E+0	0.00000E+0	2.00000E+1	1.40000E+1	1.99989E+1	1.40003E+1
90	02/09/2022	16:19:07.857	0.00000E+0	0.00000E+0	1.20000E+2	0.00000E+0	0.00000E+0	0.00000E+0	2.00000E+1	1.40000E+1	2.00015E+1	1.40000E+1
91	02/09/2022	16:19:09.365	0.00000E+0	0.00000E+0	1.20000E+2	0.00000E+0	0.00000E+0	0.00000E+0	2.00000E+1	1.40000E+1	2.00001E+1	1.39995E+1
92	02/09/2022	16:19:10.754	0.00000E+0	0.00000E+0	1.20000E+2	0.00000E+0	0.00000E+0	0.00000E+0	2.00000E+1	1.40000E+1	1.99996E+1	1.40012E+1
93	02/09/2022	16:19:12.202	0.00000E+0	0.00000E+0	1.20000E+2	0.00000E+0	0.00000E+0	0.00000E+0	2.00000E+1	1.40000E+1	1.99993E+1	1.40025E+1
94	02/09/2022	16:19:13.696	0.00000E+0	0.00000E+0	1.20000E+2	0.00000E+0	0.00000E+0	0.00000E+0	2.00000E+1	1.40000E+1	2.00011E+1	1.40012E+1
95	02/09/2022	16:19:15.062	0.00000E+0	0.00000E+0	1.20000E+2	0.00000E+0	0.00000E+0	0.00000E+0	2.00000E+1	1.40000E+1	1.99985E+1	1.40005E+1
96	02/09/2022	16:19:16.571	0.00000E+0	0.00000E+0	1.20000E+2	0.00000E+0	0.00000E+0	0.00000E+0	2.00000E+1	1.40000E+1	1.99999E+1	1.40015E+1
97	02/09/2022	16:19:17.965	0.00000E+0	0.00000E+0	1.20000E+2	0.00000E+0	0.00000E+0	0.00000E+0	2.00000E+1	1.40000E+1	1.99982E+1	1.39983E+1
98	02/09/2022	16:19:19.344	0.00000E+0	0.00000E+0	1.20000E+2	0.00000E+0	0.00000E+0	0.00000E+0	2.00000E+1	1.40000E+1	2.00001E+1	1.40000E+1
99	02/09/2022	16:19:20.855	0.00000E+0	0.00000E+0	1.20000E+2	0.00000E+0	0.00000E+0	0.00000E+0	2.00000E+1	1.40000E+1	1.99995E+1	1.40013E+1
100	02/09/2022	16:19:22.231	0.00000E+0	0.00000E+0	1.20000E+2	0.00000E+0	0.00000E+0	0.00000E+0	2.00000E+1	1.40000E+1	1.99986E+1	1.39993E+1
101	02/09/2022	16:19:23.750	0.00000E+0	0.00000E+0	1.20000E+2	0.00000E+0	0.00000E+0	0.00000E+0	2.00000E+1	1.40000E+1	1.99992E+1	1.39994E+1
102	02/09/2022	16:19:25.211	0.00000E+0	0.00000E+0	1.20000E+2	0.00000E+0	0.00000E+0	0.00000E+0	2.00000E+1	1.40000E+1	1.99990E+1	1.39978E+1
103	02/09/2022	16:19:26.610	0.00000E+0	0.00000E+0	1.20000E+2	0.00000E+0	0.00000E+0	0.00000E+0	2.00000E+1	1.40000E+1	2.00013E+1	1.39995E+1
104	02/09/2022	16:19:28.166	0.00000E+0	0.00000E+0	1.20000E+2	0.00000E+0	0.00000E+0	0.00000E+0	2.00000E+1	1.40000E+1	1.99979E+1	1.39997E+1
105	02/09/2022	16:19:29.577	0.00000E+0	0.00000E+0	1.20000E+2	0.00000E+0	0.00000E+0	0.00000E+0	2.00000E+1	1.40000E+1	2.00006E+1	1.40008E+1
106	02/09/2022	16:19:30.979	0.00000E+0	0.00000E+0	1.20000E+2	0.00000E+0	0.00000E+0	0.00000E+0	2.00000E+1	1.40000E+1	2.00004E+1	1.39999E+1
107	02/09/2022	16:19:32.504	0.00000E+0	0.00000E+0	1.20000E+2	0.00000E+0	0.00000E+0	0.00000E+0	2.00000E+1	1.40000E+1	2.00008E+1	1.39993E+1
108	02/09/2022	16:19:33.876	0.00000E+0	0.00000E+0	1.20000E+2	0.00000E+0	0.00000E+0	0.00000E+0	2.00000E+1	1.40000E+1	1.99996E+1	1.39984E+1
109	02/09/2022	16:19:35.359	0.00000E+0	0.00000E+0	1.20000E+2	0.00000E+0	0.00000E+0	0.00000E+0	2.00000E+1	1.40000E+1	2.00020E+1	1.39992E+1
110	02/09/2022	16:19:36.751	0.00000E+0	0.00000E+0	1.20000E+2	0.00000E+0	0.00000E+0	0.00000E+0	2.00000E+1	1.40000E+1	1.99996E+1	1.39999E+1
111	02/09/2022	16:19:38.137	0.00000E+0	0.00000E+0	1.20000E+2	0.00000E+0	0.00000E+0	0.00000E+0	2.00000E+1	1.40000E+1	1.99971E+1	1.39990E+1
112	02/09/2022	16:19:39.676	0.00000E+0	0.00000E+0	1.20000E+2	0.00000E+0	0.00000E+0	0.00000E+0	2.00000E+1	1.40000E+1	2.00010E+1	1.40005E+1
113	02/09/2022	16:19:41.057	0.00000E+0	0.00000E+0	1.20000E+2	0.00000E+0	0.00000E+0	0.00000E+0	2.00000E+1	1.40000E+1	1.99993E+1	1.39981E+1
114	02/09/2022	16:19:42.515	0.00000E+0	0.00000E+0	1.20000E+2	0.00000E+0	0.00000E+0	0.00000E+0	2.00000E+1	1.40000E+1	1.99990E+1	1.40001E+1
115	02/09/2022	16:19:43.837	0.00000E+0	0.00000E+0	1.20000E+2	0.00000E+0	0.00000E+0	0.00000E+0	2.00000E+1	1.40000E+1	1.99996E+1	1.40006E+1
116	02/09/2022	16:19:45.214	0.00000E+0	0.00000E+0	1.20000E+2	0.00000E+0	0.00000E+0	0.00000E+0	2.00000E+1	1.40000E+1	1.99986E+1	1.39980E+1
117	02/09/2022	16:19:46.696	0.00000E+0	0.00000E+0	1.20000E+2	0.00000E+0	0.00000E+0	0.00000E+0	2.00000E+1	1.40000E+1	1.99994E+1	1.40001E+1
118	02/09/2022	16:19:48.091	0.00000E+0	0.00000E+0	1.20000E+2	0.00000E+0	0.00000E+0	0.00000E+0	2.00000E+1	1.40000E+1	1.99998E+1	1.39995E+1
119	02/09/2022	16:19:49.529	0.00000E+0	0.00000E+0	1.20000E+2	0.00000E+0	0.00000E+0	0.00000E+0	2.00000E+1	1.40000E+1	2.00007E+1	1.40000E+1
120	02/09/2022	16:19:51.029	0.00000E+0	0.00000E+0	1.20000E+2	0.00000E+0	0.00000E+0	0.00000E+0	2.00000E+1	1.40000E+1	1.99993E+1	1.40002E+1
121	02/09/2022	16:19:52.420	0.00000E+0	0.00000E+0	1.20000E+2	0.00000E+0	0.00000E+0	0.00000E+0	2.00000E+1	1.40000E+1	1.99993E+1	1.40029E+1
122	02/09/2022	16:19:53.907	0.00000E+0	0.00000E+0	1.20000E+2	0.00000E+0	0.00000E+0	0.00000E+0	2.00000E+1	1.40000E+1	2.00009E+1	1.39964E+1
123	02/09/2022	16:19:55.293	0.00000E+0	0.00000E+0	1.20000E+2	0.00000E+0	0.00000E+0	0.00000E+0	2.00000E+1	1.40000E+1	1.99988E+1	1.39984E+1
124	02/09/2022	16:19:56.713	0.00000E+0	0.00000E+0	1.20000E+2	0.00000E+0	0.00000E+0	0.00000E+0	2.00000E+1	1.40000E+1	2.00009E+1	1.39999E+1
125	02/09/2022	16:19:58.254	0.00000E+0	0.00000E+0	1.20000E+2	0.00000E+0	0.00000E+0	0.00000E+0	2.00000E+1	1.40000E+1	2.00018E+1	1.39979E+1
126	02/09/2022	16:19:59.646	0.00000E+0	0.00000E+0	1.20000E+2	0.00000E+0	0.00000E+0	0.00000E+0	2.00000E+1	1.40000E+1	2.00005E+1	1.40000E+1
127	02/09/2022	16:20:01.034	0.00000E+0	0.00000E+0	1.20000E+2	0.00000E+0	0.00000E+0	0.00000E+0	2.00000E+1	1.40000E+1	1.99997E+1	1.39986E+1
128	02/09/2022	16:20:02.551	0.00000E+0	0.00000E+0	1.20000E+2	0.00000E+0	0.00000E+0	0.00000E+0	2.00000E+1	1.40000E+1	2.00001E+1	1.39983E+1
129	02/09/2022	16:20:03.969	0.00000E+0	0.00000E+0	1.20000E+2	0.00000E+0	0.00000E+0	0.00000E+0	2.00000E+1	1.40000E+1	2.00010E+1	1.39986E+1
130	02/09/2022	16:20:05.439	0.00000E+0	0.00000E+0	1.20000E+2	0.00000E+0	0.00000E+0	0.00000E+0	2.00000E+1	1.40000E+1	1.99996E+1	1.40004E+1
131	02/09/2022	16:20:06.847	0.00000E+0	0.00000E+0	1.20000E+2	0.00000E+0	0.00000E+0	0.00000E+0	2.00000E+1	1.40000E+1	1.99990E+1	1.40005E+1
132	02/09/2022	16:20:08.232	0.00000E+0	0.00000E+0	1.20000E+2	0.00000E+0	0.00000E+0	0.00000E+0	2.00000E+1	1.40000E+1	1.99995E+1	1.39991E+1
133	02/09/2022	16:20:09.761	0.00000E+0	0.00000E+0	1.20000E+2	0.00000E+0	0.00000E+0	0.00000E+0	2.00000E+1	1.40000E+1	1.99993E+1	1.40000E+1
134	02/09/2022	16:20:11.167	0.00000E+0	0.00000E+0	1.20000E+2	0.00000E+0	0.00000E+0	0.00000E+0	2.00000E+1	1.40000E+1	1.99999E+1	1.40021E+1
135	02/09/2022	16:20:12.612	0.00000E+0	0.00000E+0	1.20000E+2	0.00000E+0	0.00000E+0	0.00000E+0	2.00000E+1	1.40000E+1	2.00003E+1	1.40003E+1
136	02/09/2022	16:20:13.977	0.00000E+0	0.00000E+0	1.20000E+2	0.00000E+0	0.00000E+0	0.00000E+0	2.00000E+1	1.40000E+1	2.00003E+1	1.39965E+1
137	02/09/2022	16:20:15.369	0.00000E+0	0.00000E+0	1.20000E+2	0.00000E+0	0.00000E+0	0.00000E+0	2.00000E+1	1.40000E+1	2.00002E+1	1.39996E+1
138	02/09/2022	16:20:16.926	0.00000E+0	0.00000E+0	1.20000E+2	0.00000E+0	0.00000E+0	0.00000E+0	2.00000E+1	1.40000E+1	1.99977E+1	1.40015E+1
139	02/09/2022	16:20:18.286	0.00000E+0	0.00000E+0	1.20000E+2	0.00000E+0	0.00000E+0	0.00000E+0	2.00000E+1	1.40000E+1	2.00029E+1	1.39988E+1
140	02/09/2022	16:20:19.752	0.00000E+0	0.00000E+0	1.20000E+2	0.00000E+0	0.00000E+0	0.00000E+0	2.00000E+1	1.40000E+1	2.00004E+1	1.39991E+1
141	02/09/2022	16:20:21.246	0.00000E+0	0.00000E+0	1.20000E+2	0.00000E+0	0.00000E+0	0.00000E+0	2.00000E+1	1.40000E+1	1.99972E+1	1.40017E+1
142	02/09/2022	16:20:22.654	0.00000E+0	0.00000E+0	1.20000E+2	0.00000E+0	0.00000E+0	0.00000E+0	2.00000E+1	1.40000E+1	2.00044E+1	1.40004E+1
143	02/09/2022	16:20:24.138	0.00000E+0	0.00000E+0	1.20000E+2	0.00000E+0	0.00000E+0	0.00000E+0	2.00000E+1	1.40000E+1	1.99977E+1	1.39992E+1
144	02/09/2022	16:20:25.534	0.00000E+0	0.00000E+0	1.20000E+2	0.00000E+0	0.00000E+0	0.00000E+0	2.00000E+1	1.40000E+1	1.99997E+1	1.40010E+1
145	02/09/2022	16:20:26.892	0.00000E+0	0.00000E+0	1.20000E+2	0.00000E+0	0.00000E+0	0.00000E+0	2.00000E+1	1.40000E+1	2.00021E+1	1.39988E+1
146	02/09/2022	16:20:28.440	0.00000E+0	0.00000E+0	1.20000E+2	0.00000E+0	0.00000E+0	0.00000E+0	2.00000E+1	1.40000E+1	1.99982E+1	1.40010E+1
147	02/09/2022	16:20:29.842	0.00000E+0	0.00000E+0	1.20000E+2	0.00000E+0	0.00000E+0	0.00000E+0	2.00000E+1	1.40000E+1	1.99998E+1	1.39994E+1
148	02/09/2022	16:20:31.220	0.00000E+0	0.00000E+0	1.20000E+2	0.00000E+0	0.00000E+0	0.00000E+0	2.00000E+1	1.40000E+1	2.00017E+1	1.39985E+1
149	02/09/2022	16:20:32.724	0.00000E+0	0.00000E+0	1.20000E+2	0.00000E+0	0.00000E+0	0.00000E+0	2.00000E+1	1.40000E+1	2.00012E+1	1.40007E+1
150	02/09/2022	16:20:34.104	0.00000E+0	0.00000E+0	1.20000E+2	0.00000E+0	0.00000E+0	0.00000E+0	2.00000E+1	1.40000E+1	2.00006E+1	1.39999E+1
151	02/09/2022	16:20:35.643	0.00000E+0	0.00000E+0	1.20000E+2	0.00000E+0	0.00000E+0	0.00000E+0	2.00000E+1	1.40000E+1	1.99996E+1	1.39994E+1
152	02/09/2022	16:20:37.008	0.00000E+0	0.00000E+0	1.20000E+2	0.00000E+0	0.00000E+0	0.00000E+0	2.00000E+1	1.40000E+1	1.99994E+1	1.40008E+1
153	02/09/2022	16:20:38.405	0.00000E+0	0.00000E+0	1.20000E+2	0.00000E+0	0.00000E+0	0.00000E+0	2.00000E+1	1.40000E+1	2.00016E+1	1.39985E+1
154	02/09/2022	16:20:39.849	0.00000E+0	0.00000E+0	1.20000E+2	0.00000E+0	0.00000E+0	0.00000E+0	2.00000E+1	1.40000E+1	2.00029E+1	1.40004E+1
155	02/09/2022	16:20:41.229	0.00000E+0	0.00000E+0	1.20000E+2	0.00000E+0	0.00000E+0	0.00000E+0	2.00000E+1	1.40000E+1	1.99998E+1	1.40013E+1
156	02/09/2022	16:20:42.707	0.00000E+0	0.00000E+0	1.20000E+2	0.00000E+0	0.00000E+0	0.00000E+0	2.00000E+1	1.40000E+1	1.99986E+1	1.40020E+1
157	02/09/2022	16:20:44.130	0.00000E+0	0.00000E+0	1.20000E+2	0.00000E+0	0.00000E+0	0.00000E+0	2.00000E+1	1.40000E+1	2.00017E+1	1.40010E+1
158	02/09/2022	16:20:45.529	0.00000E+0	0.00000E+0	1.20000E+2	0.00000E+0	0.00000E+0	0.00000E+0	2.00000E+1	1.40000E+1	2.00000E+1	1.39998E+1
159	02/09/2022	16:20:47.007	0.00000E+0	0.00000E+0	1.20000E+2	0.00000E+0	0.00000E+0	0.00000E+0	2.00000E+1	1.40000E+1	2.00000E+1	1.39999E+1
160	02/09/2022	16:20:48.397	0.00000E+0	0.00000E+0	1.20000E+2	0.00000E+0	0.00000E+0	0.00000E+0	2.00000E+1	1.40000E+1	1.99993E+1	1.40020E+1
161	02/09/2022	16:20:49.810	0.00000E+0	0.00000E+0	1.20000E+2	0.00000E+0	0.00000E+0	0.00000E+0	2.00000E+1	1.40000E+1	1.99999E+1	1.39982E+1
162	02/09/2022	16:20:51.336	0.00000E+0	0.00000E+0	1.20000E+2	0.00000E+0	0.00000E+0	0.00000E+0	2.00000E+1	1.40000E+1	2.00015E+1	1.39992E+1
163	02/09/2022	16:20:52.733	0.00000E+0	0.00000E+0	1.20000E+2	0.00000E+0	0.00000E+0	0.00000E+0	2.00000E+1	1.40000E+1	1.99983E+1	1.39994E+1
164	02/09/2022	16:20:54.186	0.00000E+0	0.00000E+0	1.20000E+2	0.00000E+0	0.00000E+0	0.00000E+0	2.00000E+1	1.40000E+1	1.99987E+1	1.40000E+1
165	02/09/2022	16:20:55.563	0.00000E+0	0.00000E+0	1.20000E+2	0.00000E+0	0.00000E+0	0.00000E+0	2.00000E+1	1.40000E+1	2.00011E+1	1.40011E+1
166	02/09/2022	16:20:56.959	0.00000E+0	0.00000E+0	1.20000E+2	0.00000E+0	0.00000E+0	0.00000E+0	2.00000E+1	1.40000E+1	2.00001E+1	1.40002E+1
167	02/09/2022	16:20:58.530	0.00000E+0	0.00000E+0	1.20000E+2	0.00000E+0	0.00000E+0	0.00000E+0	2.00000E+1	1.40000E+1	2.00018E+1	1.40006E+1
168	02/09/2022	16:20:59.905	0.00000E+0	0.00000E+0	1.20000E+2	0.00000E+0	0.00000E+0	0.00000E+0	2.00000E+1	1.40000E+1	2.00000E+1	1.40010E+1
169	02/09/2022	16:21:01.357	0.00000E+0	0.00000E+0	1.20000E+2	0.00000E+0	0.00000E+0	0.00000E+0	2.00000E+1	1.40000E+1	2.00003E+1	1.40020E+1
170	02/09/2022	16:21:02.719	0.00000E+0	0.00000E+0	1.20000E+2	0.00000E+0	0.00000E+0	0.00000E+0	2.00000E+1	1.40000E+1	2.00010E+1	1.40004E+1
171	02/09/2022	16:21:04.106	0.00000E+0	0.00000E+0	1.20000E+2	0.00000E+0	0.00000E+0	0.00000E+0	2.00000E+1	1.40000E+1	1.99982E+1	1.40011E+1
172	02/09/2022	16:21:05.664	0.00000E+0	0.00000E+0	1.20000E+2	0.00000E+0	0.00000E+0	0.00000E+0	2.00000E+1	1.40000E+1	2.00014E+1	1.40011E+1
173	02/09/2022	16:21:07.062	0.00000E+0	0.00000E+0	1.20000E+2	0.00000E+0	0.00000E+0	0.00000E+0	2.00000E+1	1.40000E+1	1.99989E+1	1.40003E+1
174	02/09/2022	16:21:08.501	0.00000E+0	0.00000E+0	1.20000E+2	0.00000E+0	0.00000E+0	0.00000E+0	2.00000E+1	1.40000E+1	1.99979E+1	1.40000E+1
175	02/09/2022	16:21:10.015	0.00000E+0	0.00000E+0	1.20000E+2	0.00000E+0	0.00000E+0	0.00000E+0	2.00000E+1	1.40000E+1	2.00005E+1	1.40008E+1
176	02/09/2022	16:21:11.396	0.00000E+0	0.00000E+0	1.20000E+2	0.00000E+0	0.00000E+0	0.00000E+0	2.00000E+1	1.40000E+1	2.00002E+1	1.39985E+1
177	02/09/2022	16:21:12.837	0.00000E+0	0.00000E+0	1.20000E+2	0.00000E+0	0.00000E+0	0.00000E+0	2.00000E+1	1.40000E+1	1.99988E+1	1.40025E+1
178	02/09/2022	16:21:14.332	0.00000E+0	0.00000E+0	1.20000E+2	0.00000E+0	0.00000E+0	0.00000E+0	2.00000E+1	1.40000E+1	2.00005E+1	1.40010E+1
179	02/09/2022	16:21:15.717	0.00000E+0	0.00000E+0	1.20000E+2	0.00000E+0	0.00000E+0	0.00000E+0	2.00000E+1	1.40000E+1	2.00034E+1	1.40008E+1
180	02/09/2022	16:21:17.222	0.00000E+0	0.00000E+0	1.20000E+2	0.00000E+0	0.00000E+0	0.00000E+0	2.00000E+1	1.40000E+1	2.00014E+1	1.39993E+1
181	02/09/2022	16:21:18.633	0.00000E+0	0.00000E+0	1.20000E+2	0.00000E+0	0.00000E+0	0.00000E+0	2.00000E+1	1.40000E+1	1.99998E+1	1.40008E+1
182	02/09/2022	16:21:20.026	0.00000E+0	0.00000E+0	1.20000E+2	0.00000E+0	0.00000E+0	0.00000E+0	2.00000E+1	1.40000E+1	2.00016E+1	1.40000E+1
183	02/09/2022	16:21:21.537	0.00000E+0	0.00000E+0	1.20000E+2	0.00000E+0	0.00000E+0	0.00000E+0	2.00000E+1	1.40000E+1	2.00024E+1	1.40000E+1
184	02/09/2022	16:21:22.928	0.00000E+0	0.00000E+0	1.20000E+2	0.00000E+0	0.00000E+0	0.00000E+0	2.00000E+1	1.40000E+1	1.99973E+1	1.39988E+1
185	02/09/2022	16:21:24.407	0.00000E+0	0.00000E+0	1.20000E+2	0.00000E+0	0.00000E+0	0.00000E+0	2.00000E+1	1.40000E+1	1.99976E+1	1.40010E+1
186	02/09/2022	16:21:25.767	0.00000E+0	0.00000E+0	1.20000E+2	0.00000E+0	0.00000E+0	0.00000E+0	2.00000E+1	1.40000E+1	1.99989E+1	1.39993E+1
187	02/09/2022	16:21:27.159	0.00000E+0	0.00000E+0	1.20000E+2	0.00000E+0	0.00000E+0	0.00000E+0	2.00000E+1	1.40000E+1	1.99993E+1	1.40016E+1
188	02/09/2022	16:21:28.650	0.00000E+0	0.00000E+0	1.20000E+2	0.00000E+0	0.00000E+0	0.00000E+0	2.00000E+1	1.40000E+1	2.00005E+1	1.39994E+1
189	02/09/2022	16:21:30.026	0.00000E+0	0.00000E+0	1.20000E+2	0.00000E+0	0.00000E+0	0.00000E+0	2.00000E+1	1.40000E+1	1.99983E+1	1.40015E+1
190	02/09/2022	16:21:31.486	0.00000E+0	0.00000E+0	1.20000E+2	0.00000E+0	0.00000E+0	0.00000E+0	2.00000E+1	1.40000E+1	1.99986E+1	1.40017E+1
191	02/09/2022	16:21:32.892	0.00000E+0	0.00000E+0	1.20000E+2	0.00000E+0	0.00000E+0	0.00000E+0	2.00000E+1	1.40000E+1	1.99968E+1	1.39992E+1
192	02/09/2022	16:21:34.291	0.00000E+0	0.00000E+0	1.20000E+2	0.00000E+0	0.00000E+0	0.00000E+0	2.00000E+1	1.40000E+1	1.99995E+1	1.40010E+1
193	02/09/2022	16:21:35.826	0.00000E+0	0.00000E+0	1.20000E+2	0.00000E+0	0.00000E+0	0.00000E+0	2.00000E+1	1.40000E+1	2.00009E+1	1.40007E+1
194	02/09/2022	16:21:37.215	0.00000E+0	0.00000E+0	1.20000E+2	0.00000E+0	0.00000E+0	0.00000E+0	2.00000E+1	1.40000E+1	1.99986E+1	1.39991E+1
195	02/09/2022	16:21:38.613	0.00000E+0	0.00000E+0	1.20000E+2	0.00000E+0	0.00000E+0	0.00000E+0	2.00000E+1	1.40000E+1	1.99983E+1	1.39997E+1
196	02/09/2022	16:21:40.122	0.00000E+0	0.00000E+0	1.20000E+2	0.00000E+0	0.00000E+0	0.00000E+0	2.00000E+1	1.40000E+1	2.00014E+1	1.40002E+1
197	02/09/2022	16:21:41.517	0.00000E+0	0.00000E+0	1.20000E+2	0.00000E+0	0.00000E+0	0.00000E+0	2.00000E+1	1.40000E+1	1.99999E+1	1.39993E+1
198	02/09/2022	16:21:43.048	0.00000E+0	0.00000E+0	1.20000E+2	0.00000E+0	0.00000E+0	0.00000E+0	2.00000E+1	1.40000E+1	1.99989E+1	1.39974E+1
199	02/09/2022	16:21:44.433	0.00000E+0	0.00000E+0	1.20000E+2	0.00000E+0	0.00000E+0	0.00000E+0	2.00000E+1	1.40000E+1	2.00023E+1	1.40008E+1
200	02/09/2022	16:21:45.813	0.00000E+0	0.00000E+0	1.20000E+2	0.00000E+0	0.00000E+0	0.00000E+0	2.00000E+1	1.40000E+1	2.00010E+1	1.39988E+1
201	02/09/2022	16:21:47.336	0.00000E+0	0.00000E+0	1.20000E+2	0.00000E+0	0.00000E+0	0.00000E+0	2.00000E+1	1.40000E+1	1.99992E+1	1.40003E+1
202	02/09/2022	16:21:48.717	0.00000E+0	0.00000E+0	1.20000E+2	0.00000E+0	0.00000E+0	0.00000E+0	2.00000E+1	1.40000E+1	1.99988E+1	1.40007E+1
203	02/09/2022	16:21:50.161	0.00000E+0	0.00000E+0	1.20000E+2	0.00000E+0	0.00000E+0	0.00000E+0	2.00000E+1	1.40000E+1	2.00024E+1	1.40012E+1
204	02/09/2022	16:21:51.657	0.00000E+0	0.00000E+0	1.20000E+2	0.00000E+0	0.00000E+0	0.00000E+0	2.00000E+1	1.40000E+1	1.99976E+1	1.39994E+1
205	02/09/2022	16:21:53.051	0.00000E+0	0.00000E+0	1.20000E+2	0.00000E+0	0.00000E+0	0.00000E+0	2.00000E+1	1.40000E+1	1.99992E+1	1.40005E+1
206	02/09/2022	16:21:54.535	0.00000E+0	0.00000E+0	1.20000E+2	0.00000E+0	0.00000E+0	0.00000E+0	2.00000E+1	1.40000E+1	1.99993E+1	1.39986E+1
207	02/09/2022	16:21:55.920	0.00000E+0	0.00000E+0	1.20000E+2	0.00000E+0	0.00000E+0	0.00000E+0	2.00000E+1	1.40000E+1	1.99966E+1	1.39978E+1
208	02/09/2022	16:21:57.299	0.00000E+0	0.00000E+0	1.20000E+2	0.00000E+0	0.00000E+0	0.00000E+0	2.00000E+1	1.40000E+1	2.00027E+1	1.39999E+1
209	02/09/2022	16:21:58.793	0.00000E+0	0.00000E+0	1.20000E+2	0.00000E+0	0.00000E+0	0.00000E+0	2.00000E+1	1.40000E+1	1.99997E+1	1.40004E+1
210	02/09/2022	16:22:00.183	0.00000E+0	0.00000E+0	1.20000E+2	0.00000E+0	0.00000E+0	0.00000E+0	2.00000E+1	1.40000E+1	1.99995E+1	1.40008E+1
211	02/09/2022	16:22:01.740	0.00000E+0	0.00000E+0	1.20000E+2	0.00000E+0	0.00000E+0	0.00000E+0	2.00000E+1	1.40000E+1	1.99982E+1	1.39994E+1
212	02/09/2022	16:22:03.147	0.00000E+0	0.00000E+0	1.20000E+2	0.00000E+0	0.00000E+0	0.00000E+0	2.00000E+1	1.40000E+1	1.99996E+1	1.39983E+1
213	02/09/2022	16:22:04.527	0.00000E+0	0.00000E+0	1.20000E+2	0.00000E+0	0.00000E+0	0.00000E+0	2.00000E+1	1.40000E+1	1.99996E+1	1.40018E+1
214	02/09/2022	16:22:06.081	0.00000E+0	0.00000E+0	1.20000E+2	0.00000E+0	0.00000E+0	0.00000E+0	2.00000E+1	1.40000E+1	2.00004E+1	1.39988E+1
215	02/09/2022	16:22:07.469	0.00000E+0	0.00000E+0	1.20000E+2	0.00000E+0	0.00000E+0	0.00000E+0	2.00000E+1	1.40000E+1	2.00015E+1	1.40000E+1
216	02/09/2022	16:22:08.850	0.00000E+0	0.00000E+0	1.20000E+2	0.00000E+0	0.00000E+0	0.00000E+0	2.00000E+1	1.40000E+1	1.99965E+1	1.40010E+1
217	02/09/2022	16:22:10.338	0.00000E+0	0.00000E+0	1.20000E+2	0.00000E+0	0.00000E+0	0.00000E+0	2.00000E+1	1.40000E+1	1.99989E+1	1.39987E+1
218	02/09/2022	16:22:11.738	0.00000E+0	0.00000E+0	1.20000E+2	0.00000E+0	0.00000E+0	0.00000E+0	2.00000E+1	1.40000E+1	2.00002E+1	1.40013E+1
219	02/09/2022	16:22:13.166	0.00000E+0	0.00000E+0	1.20000E+2	0.00000E+0	0.00000E+0	0.00000E+0	2.00000E+1	1.40000E+1	2.00003E+1	1.40005E+1
220	02/09/2022	16:22:14.567	0.00000E+0	0.00000E+0	1.20000E+2	0.00000E+0	0.00000E+0	0.00000E+0	2.00000E+1	1.40000E+1	1.99982E+1	1.40024E+1
221	02/09/2022	16:22:15.937	0.00000E+0	0.00000E+0	1.20000E+2	0.00000E+0	0.00000E+0	0.00000E+0	2.00000E+1	1.40000E+1	1.99992E+1	1.39992E+1
222	02/09/2022	16:22:17.478	0.00000E+0	0.00000E+0	1.20000E+2	0.00000E+0	0.00000E+0	0.00000E+0	2.00000E+1	1.40000E+1	1.99995E+1	1.39997E+1
223	02/09/2022	16:22:18.878	0.00000E+0	0.00000E+0	1.20000E+2	0.00000E+0	0.00000E+0	0.00000E+0	2.00000E+1	1.40000E+1	2.00013E+1	1.39981E+1
224	02/09/2022	16:22:20.312	0.00000E+0	0.00000E+0	1.20000E+2	0.00000E+0	0.00000E+0	0.00000E+0	2.00000E+1	1.40000E+1	1.99986E+1	1.39991E+1
225	02/09/2022	16:22:21.702	0.00000E+0	0.00000E+0	1.20000E+2	0.00000E+0	0.00000E+0	0.00000E+0	2.00000E+1	1.40000E+1	1.99999E+1	1.39999E+1
226	02/09/2022	16:22:23.103	0.00000E+0	0.00000E+0	1.20000E+2	0.00000E+0	0.00000E+0	0.00000E+0	2.00000E+1	1.40000E+1	2.00015E+1	1.39998E+1
227	02/09/2022	16:22:24.711	0.00000E+0	0.00000E+0	1.20000E+2	0.00000E+0	0.00000E+0	0.00000E+0	2.00000E+1	1.40000E+1	1.99986E+1	1.39988E+1
228	02/09/2022	16:22:26.100	0.00000E+0	0.00000E+0	1.20000E+2	0.00000E+0	0.00000E+0	0.00000E+0	2.00000E+1	1.40000E+1	2.00022E+1	1.39996E+1
229	02/09/2022	16:22:27.542	0.00000E+0	0.00000E+0	1.20000E+2	0.00000E+0	0.00000E+0	0.00000E+0	2.00000E+1	1.40000E+1	2.00016E+1	1.40013E+1
230	02/09/2022	16:22:29.025	0.00000E+0	0.00000E+0	1.20000E+2	0.00000E+0	0.00000E+0	0.00000E+0	2.00000E+1	1.40000E+1	2.00007E+1	1.40012E+1
231	02/09/2022	16:22:30.416	0.00000E+0	0.00000E+0	1.20000E+2	0.00000E+0	0.00000E+0	0.00000E+0	2.00000E+1	1.40000E+1	1.99988E+1	1.39977E+1
232	02/09/2022	16:22:31.859	0.00000E+0	0.00000E+0	1.20000E+2	0.00000E+0	0.00000E+0	0.00000E+0	2.00000E+1	1.40000E+1	1.99997E+1	1.40011E+1
233	02/09/2022	16:22:33.310	0.00000E+0	0.00000E+0	1.20000E+2	0.00000E+0	0.00000E+0	0.00000E+0	2.00000E+1	1.40000E+1	1.99985E+1	1.39996E+1
234	02/09/2022	16:22:34.669	0.00000E+0	0.00000E+0	1.20000E+2	0.00000E+0	0.00000E+0	0.00000E+0	2.00000E+1	1.40000E+1	1.99996E+1	1.40005E+1
235	02/09/2022	16:22:36.190	0.00000E+0	0.00000E+0	1.20000E+2	0.00000E+0	0.00000E+0	0.00000E+0	2.00000E+1	1.40000E+1	1.99970E+1	1.40017E+1
236	02/09/2022	16:22:37.594	0.00000E+0	0.00000E+0	1.20000E+2	0.00000E+0	0.00000E+0	0.00000E+0	2.00000E+1	1.40000E+1	1.99982E+1	1.40003E+1
237	02/09/2022	16:22:38.983	0.00000E+0	0.00000E+0	1.20000E+2	0.00000E+0	0.00000E+0	0.00000E+0	2.00000E+1	1.40000E+1	1.99996E+1	1.40001E+1
238	02/09/2022	16:22:40.477	0.00000E+0	0.00000E+0	1.20000E+2	0.00000E+0	0.00000E+0	0.00000E+0	2.00000E+1	1.40000E+1	2.00035E+1	1.39986E+1
239	02/09/2022	16:22:41.873	0.00000E+0	0.00000E+0	1.20000E+2	0.00000E+0	0.00000E+0	0.00000E+0	2.00000E+1	1.40000E+1	1.99994E+1	1.39986E+1
240	02/09/2022	16:22:43.326	0.00000E+0	0.00000E+0	1.20000E+2	0.00000E+0	0.00000E+0	0.00000E+0	2.00000E+1	1.40000E+1	2.00006E+1	1.40002E+1
241	02/09/2022	16:22:44.701	0.00000E+0	0.00000E+0	1.20000E+2	0.00000E+0	0.00000E+0	0.00000E+0	2.00000E+1	1.40000E+1	2.00025E+1	1.40011E+1
242	02/09/2022	16:22:46.072	0.00000E+0	0.00000E+0	1.20000E+2	0.00000E+0	0.00000E+0	0.00000E+0	2.00000E+1	1.40000E+1	1.99993E+1	1.40024E+1
243	02/09/2022	16:22:47.562	0.00000E+0	0.00000E+0	1.20000E+2	0.00000E+0	0.00000E+0	0.00000E+0	2.00000E+1	1.40000E+1	1.99986E+1	1.40005E+1
244	02/09/2022	16:22:48.962	0.00000E+0	0.00000E+0	1.20000E+2	0.00000E+0	0.00000E+0	0.00000E+0	2.00000E+1	1.40000E+1	1.99978E+1	1.40028E+1
245	02/09/2022	16:22:50.433	0.00000E+0	0.00000E+0	1.20000E+2	0.00000E+0	0.00000E+0	0.00000E+0	2.00000E+1	1.40000E+1	2.00014E+1	1.40005E+1
246	02/09/2022	16:22:51.764	0.00000E+0	0.00000E+0	1.20000E+2	0.00000E+0	0.00000E+0	0.00000E+0	2.00000E+1	1.40000E+1	1.99994E+1	1.39988E+1
247	02/09/2022	16:22:53.164	0.00000E+0	0.00000E+0	1.20000E+2	0.00000E+0	0.00000E+0	0.00000E+0	2.00000E+1	1.40000E+1	2.00002E+1	1.40007E+1
248	02/09/2022	16:22:54.623	0.00000E+0	0.00000E+0	1.20000E+2	0.00000E+0	0.00000E+0	0.00000E+0	2.00000E+1	1.40000E+1	2.00024E+1	1.39995E+1
249	02/09/2022	16:22:56.025	0.00000E+0	0.00000E+0	1.20000E+2	0.00000E+0	0.00000E+0	0.00000E+0	2.00000E+1	1.40000E+1	1.99998E+1	1.40011E+1
250	02/09/2022	16:22:57.414	0.00000E+0	0.00000E+0	1.20000E+2	0.00000E+0	0.00000E+0	0.00000E+0	2.00000E+1	1.40000E+1	2.00000E+1	1.39986E+1
251	02/09/2022	16:22:58.942	0.00000E+0	0.00000E+0	1.20000E+2	0.00000E+0	0.00000E+0	0.00000E+0	2.00000E+1	1.40000E+1	1.99996E+1	1.39963E+1
252	02/09/2022	16:23:00.320	0.00000E+0	0.00000E+0	1.20000E+2	0.00000E+0	0.00000E+0	0.00000E+0	2.00000E+1	1.40000E+1	1.99975E+1	1.40039E+1
253	02/09/2022	16:23:01.772	0.00000E+0	0.00000E+0	1.20000E+2	0.00000E+0	0.00000E+0	0.00000E+0	2.00000E+1	1.40000E+1	1.99997E+1	1.39998E+1
254	02/09/2022	16:23:03.167	0.00000E+0	0.00000E+0	1.20000E+2	0.00000E+0	0.00000E+0	0.00000E+0	2.00000E+1	1.40000E+1	1.99998E+1	1.40013E+1
255	02/09/2022	16:23:04.587	0.00000E+0	0.00000E+0	1.20000E+2	0.00000E+0	0.00000E+0	0.00000E+0	2.00000E+1	1.40000E+1	2.00017E+1	1.40006E+1
256	02/09/2022	16:23:06.118	0.00000E+0	0.00000E+0	1.20000E+2	0.00000E+0	0.00000E+0	0.00000E+0	2.00000E+1	1.40000E+1	2.00001E+1	1.40028E+1
257	02/09/2022	16:23:07.515	0.00000E+0	0.00000E+0	1.20000E+2	0.00000E+0	0.00000E+0	0.00000E+0	2.00000E+1	1.40000E+1	2.00007E+1	1.39977E+1
258	02/09/2022	16:23:08.969	0.00000E+0	0.00000E+0	1.20000E+2	0.00000E+0	0.00000E+0	0.00000E+0	2.00000E+1	1.40000E+1	2.00009E+1	1.40002E+1
259	02/09/2022	16:23:10.501	0.00000E+0	0.00000E+0	1.20000E+2	0.00000E+0	0.00000E+0	0.00000E+0	2.00000E+1	1.40000E+1	1.99984E+1	1.40020E+1
260	02/09/2022	16:23:11.887	0.00000E+0	0.00000E+0	1.20000E+2	0.00000E+0	0.00000E+0	0.00000E+0	2.00000E+1	1.40000E+1	1.99977E+1	1.40003E+1
261	02/09/2022	16:23:13.386	0.00000E+0	0.00000E+0	1.20000E+2	0.00000E+0	0.00000E+0	0.00000E+0	2.00000E+1	1.40000E+1	1.99988E+1	1.39981E+1
262	02/09/2022	16:23:14.763	0.00000E+0	0.00000E+0	1.20000E+2	0.00000E+0	0.00000E+0	0.00000E+0	2.00000E+1	1.40000E+1	1.99976E+1	1.40014E+1
263	02/09/2022	16:23:16.131	0.00000E+0	0.00000E+0	1.20000E+2	0.00000E+0	0.00000E+0	0.00000E+0	2.00000E+1	1.40000E+1	2.00009E+1	1.39978E+1
264	02/09/2022	16:23:17.596	0.00000E+0	0.00000E+0	1.20000E+2	0.00000E+0	0.00000E+0	0.00000E+0	2.00000E+1	1.40000E+1	2.00007E+1	1.40002E+1
265	02/09/2022	16:23:18.978	0.00000E+0	0.00000E+0	1.20000E+2	0.00000E+0	0.00000E+0	0.00000E+0	2.00000E+1	1.40000E+1	1.99992E+1	1.40007E+1
266	02/09/2022	16:23:20.427	0.00000E+0	0.00000E+0	1.20000E+2	0.00000E+0	0.00000E+0	0.00000E+0	2.00000E+1	1.40000E+1	2.00004E+1	1.40008E+1
267	02/09/2022	16:23:21.869	0.00000E+0	0.00000E+0	1.20000E+2	0.00000E+0	0.00000E+0	0.00000E+0	2.00000E+1	1.40000E+1	1.99996E+1	1.39990E+1
268	02/09/2022	16:23:23.247	0.00000E+0	0.00000E+0	1.20000E+2	0.00000E+0	0.00000E+0	0.00000E+0	2.00000E+1	1.40000E+1	2.00020E+1	1.40006E+1
269	02/09/2022	16:23:24.727	0.00000E+0	0.00000E+0	1.20000E+2	0.00000E+0	0.00000E+0	0.00000E+0	2.00000E+1	1.40000E+1	1.99997E+1	1.40015E+1
270	02/09/2022	16:23:26.099	0.00000E+0	0.00000E+0	1.20000E+2	0.00000E+0	0.00000E+0	0.00000E+0	2.00000E+1	1.40000E+1	2.00007E+1	1.40028E+1
271	02/09/2022	16:23:27.565	0.00000E+0	0.00000E+0	1.20000E+2	0.00000E+0	0.00000E+0	0.00000E+0	2.00000E+1	1.40000E+1	1.99987E+1	1.39983E+1
272	02/09/2022	16:23:29.096	0.00000E+0	0.00000E+0	1.20000E+2	0.00000E+0	0.00000E+0	0.00000E+0	2.00000E+1	1.40000E+1	1.99997E+1	1.40005E+1
273	02/09/2022	16:23:30.490	0.00000E+0	0.00000E+0	1.20000E+2	0.00000E+0	0.00000E+0	0.00000E+0	2.00000E+1	1.40000E+1	2.00017E+1	1.39992E+1
274	02/09/2022	16:23:31.950	0.00000E+0	0.00000E+0	1.20000E+2	0.00000E+0	0.00000E+0	0.00000E+0	2.00000E+1	1.40000E+1	1.99987E+1	1.39997E+1
275	02/09/2022	16:23:33.348	0.00000E+0	0.00000E+0	1.20000E+2	0.00000E+0	0.00000E+0	0.00000E+0	2.00000E+1	1.40000E+1	1.99994E+1	1.40007E+1
276	02/09/2022	16:23:34.712	0.00000E+0	0.00000E+0	1.20000E+2	0.00000E+0	0.00000E+0	0.00000E+0	2.00000E+1	1.40000E+1	1.99993E+1	1.39997E+1
277	02/09/2022	16:23:36.214	0.00000E+0	0.00000E+0	1.20000E+2	0.00000E+0	0.00000E+0	0.00000E+0	2.00000E+1	1.40000E+1	1.99994E+1	1.40019E+1
278	02/09/2022	16:23:37.583	0.00000E+0	0.00000E+0	1.20000E+2	0.00000E+0	0.00000E+0	0.00000E+0	2.00000E+1	1.40000E+1	2.00015E+1	1.40006E+1
279	02/09/2022	16:23:39.024	0.00000E+0	0.00000E+0	1.20000E+2	0.00000E+0	0.00000E+0	0.00000E+0	2.00000E+1	1.40000E+1	1.99994E+1	1.40006E+1
280	02/09/2022	16:23:40.420	0.00000E+0	0.00000E+0	1.20000E+2	0.00000E+0	0.00000E+0	0.00000E+0	2.00000E+1	1.40000E+1	2.00007E+1	1.40013E+1
281	02/09/2022	16:23:41.797	0.00000E+0	0.00000E+0	1.20000E+2	0.00000E+0	0.00000E+0	0.00000E+0	2.00000E+1	1.40000E+1	2.00013E+1	1.40032E+1
282	02/09/2022	16:23:43.257	0.00000E+0	0.00000E+0	1.20000E+2	0.00000E+0	0.00000E+0	0.00000E+0	2.00000E+1	1.40000E+1	2.00032E+1	1.40006E+1
283	02/09/2022	16:23:44.648	0.00000E+0	0.00000E+0	1.20000E+2	0.00000E+0	0.00000E+0	0.00000E+0	2.00000E+1	1.40000E+1	2.00026E+1	1.39983E+1
284	02/09/2022	16:23:46.103	0.00000E+0	0.00000E+0	1.20000E+2	0.00000E+0	0.00000E+0	0.00000E+0	2.00000E+1	1.40000E+1	1.99995E+1	1.39993E+1
285	02/09/2022	16:23:47.599	0.00000E+0	0.00000E+0	1.20000E+2	0.00000E+0	0.00000E+0	0.00000E+0	2.00000E+1	1.40000E+1	2.00000E+1	1.40001E+1
286	02/09/2022	16:23:48.974	0.00000E+0	0.00000E+0	1.20000E+2	0.00000E+0	0.00000E+0	0.00000E+0	2.00000E+1	1.40000E+1	1.99992E+1	1.40014E+1
287	02/09/2022	16:23:50.418	0.00000E+0	0.00000E+0	1.20000E+2	0.00000E+0	0.00000E+0	0.00000E+0	2.00000E+1	1.40000E+1	1.99982E+1	1.40031E+1
288	02/09/2022	16:23:51.813	0.00000E+0	0.00000E+0	1.20000E+2	0.00000E+0	0.00000E+0	0.00000E+0	2.00000E+1	1.40000E+1	1.99993E+1	1.40009E+1
289	02/09/2022	16:23:53.179	0.00000E+0	0.00000E+0	1.20000E+2	0.00000E+0	0.00000E+0	0.00000E+0	2.00000E+1	1.40000E+1	1.99980E+1	1.39987E+1
290	02/09/2022	16:23:54.726	0.00000E+0	0.00000E+0	1.20000E+2	0.00000E+0	0.00000E+0	0.00000E+0	2.00000E+1	1.40000E+1	2.00010E+1	1.40006E+1
291	02/09/2022	16:23:56.090	0.00000E+0	0.00000E+0	1.20000E+2	0.00000E+0	0.00000E+0	0.00000E+0	2.00000E+1	1.40000E+1	2.00022E+1	1.39993E+1
292	02/09/2022	16:23:57.534	0.00000E+0	0.00000E+0	1.20000E+2	0.00000E+0	0.00000E+0	0.00000E+0	2.00000E+1	1.40000E+1	1.99984E+1	1.40024E+1
293	02/09/2022	16:23:59.031	0.00000E+0	0.00000E+0	1.20000E+2	0.00000E+0	0.00000E+0	0.00000E+0	2.00000E+1	1.40000E+1	2.00006E+1	1.40003E+1
294	02/09/2022	16:24:00.442	0.00000E+0	0.00000E+0	1.20000E+2	0.00000E+0	0.00000E+0	0.00000E+0	2.00000E+1	1.40000E+1	1.99987E+1	1.39989E+1
295	02/09/2022	16:24:01.929	0.00000E+0	0.00000E+0	1.20000E+2	0.00000E+0	0.00000E+0	0.00000E+0	2.00000E+1	1.40000E+1	2.00005E+1	1.39989E+1
296	02/09/2022	16:24:03.316	0.00000E+0	0.00000E+0	1.20000E+2	0.00000E+0	0.00000E+0	0.00000E+0	2.00000E+1	1.40000E+1	1.99988E+1	1.39985E+1
297	02/09/2022	16:24:04.696	0.00000E+0	0.00000E+0	1.20000E+2	0.00000E+0	0.00000E+0	0.00000E+0	2.00000E+1	1.40000E+1	2.00009E+1	1.40013E+1
298	02/09/2022	16:24:06.195	0.00000E+0	0.00000E+0	1.20000E+2	0.00000E+0	0.00000E+0	0.00000E+0	2.00000E+1	1.40000E+1	1.99988E+1	1.39990E+1
299	02/09/2022	16:24:07.601	0.00000E+0	0.00000E+0	1.20000E+2	0.00000E+0	0.00000E+0	0.00000E+0	2.00000E+1	1.40000E+1	1.99986E+1	1.40003E+1
300	02/09/2022	16:24:09.050	0.00000E+0	0.00000E+0	1.20000E+2	0.00000E+0	0.00000E+0	0.00000E+0	2.00000E+1	1.40000E+1	2.00001E+1	1.40003E+1
301	02/09/2022	16:24:10.430	0.00000E+0	0.00000E+0	1.20000E+2	0.00000E+0	0.00000E+0	0.00000E+0	2.00000E+1	1.40000E+1	1.99996E+1	1.40017E+1
