#Iteration	Date	Time	RTPhase	NFringe	AccelAxis	AccelMean	AccelTemp
1	02/09/2022	16:16:59.003	5.93803963E+0	-6.31000000E+2	2.00000000E+0	-9.80576426E+0	7.16052700E+6
2	02/09/2022	16:17:00.497	5.05331621E+0	-6.31000000E+2	2.00000000E+0	-9.80576426E+0	7.16052700E+6
3	02/09/2022	16:17:01.909	1.41202932E+0	-6.30000000E+2	2.00000000E+0	-9.80576426E+0	7.16052700E+6
4	02/09/2022	16:17:03.331	4.60922877E+0	-6.31000000E+2	2.00000000E+0	-9.80576426E+0	7.16052700E+6
5	02/09/2022	16:17:04.716	5.61820464E+0	-6.30000000E+2	2.00000000E+0	-9.80576426E+0	7.16052700E+6
6	02/09/2022	16:17:06.090	4.64757829E+0	-6.30000000E+2	2.00000000E+0	-9.80576426E+0	7.16052700E+6
7	02/09/2022	16:17:07.582	1.14128171E+0	-6.30000000E+2	2.00000000E+0	-9.80576426E+0	7.16052700E+6
8	02/09/2022	16:17:09.025	1.56619438E+0	-6.30000000E+2	2.00000000E+0	-9.80576426E+0	7.16052700E+6
9	02/09/2022	16:17:10.449	4.64757829E+0	-6.31000000E+2	2.00000000E+0	-9.80576426E+0	7.16052700E+6
10	02/09/2022	16:17:11.992	2.41601974E-1	-6.30000000E+2	2.00000000E+0	-9.80576426E+0	7.16052700E+6
11	02/09/2022	16:17:13.380	1.39055358E+0	-6.30000000E+2	2.00000000E+0	-9.80576426E+0	7.16052700E+6
12	02/09/2022	16:17:14.943	5.88856875E+0	-6.30000000E+2	2.00000000E+0	-9.80576426E+0	7.16052700E+6
13	02/09/2022	16:17:16.399	4.33809767E+0	-6.30000000E+2	2.00000000E+0	-9.80576426E+0	7.16052700E+6
14	02/09/2022	16:17:17.785	8.41388462E-1	-6.30000000E+2	2.00000000E+0	-9.80576426E+0	7.16052700E+6
15	02/09/2022	16:17:19.251	4.38296661E+0	-6.31000000E+2	2.00000000E+0	-9.80576426E+0	7.16052700E+6
16	02/09/2022	16:17:20.653	4.85466570E+0	-6.30000000E+2	2.00000000E+0	-9.80576426E+0	7.16052700E+6
17	02/09/2022	16:17:22.050	2.36923333E+0	-6.30000000E+2	2.00000000E+0	-9.80576426E+0	7.16052700E+6
18	02/09/2022	16:17:23.573	4.50223361E+0	-6.30000000E+2	2.00000000E+0	-9.80576426E+0	7.16052700E+6
19	02/09/2022	16:17:24.961	4.88342784E+0	-6.31000000E+2	2.00000000E+0	-9.80576426E+0	7.16052700E+6
20	02/09/2022	16:17:26.431	3.12778683E+0	-6.30000000E+2	2.00000000E+0	-9.80576426E+0	7.16052700E+6
21	02/09/2022	16:17:27.903	5.54265608E+0	-6.30000000E+2	2.00000000E+0	-9.80576426E+0	7.16052700E+6
22	02/09/2022	16:17:29.315	5.15340846E+0	-6.30000000E+2	2.00000000E+0	-9.80576426E+0	7.16052700E+6
23	02/09/2022	16:17:30.832	1.35067008E+0	-6.30000000E+2	2.00000000E+0	-9.80576426E+0	7.16052700E+6
24	02/09/2022	16:17:32.206	4.89339871E+0	-6.31000000E+2	2.00000000E+0	-9.80576426E+0	7.16052700E+6
25	02/09/2022	16:17:33.653	4.09189375E+0	-6.30000000E+2	2.00000000E+0	-9.80576426E+0	7.16052700E+6
26	02/09/2022	16:17:35.068	3.72335487E+0	-6.30000000E+2	2.00000000E+0	-9.80576426E+0	7.16052700E+6
27	02/09/2022	16:17:36.436	5.61705415E+0	-6.30000000E+2	2.00000000E+0	-9.80576426E+0	7.16052700E+6
28	02/09/2022	16:17:37.969	1.37559727E+0	-6.30000000E+2	2.00000000E+0	-9.80576426E+0	7.16052700E+6
29	02/09/2022	16:17:39.363	1.79322354E+0	-6.30000000E+2	2.00000000E+0	-9.80576426E+0	7.16052700E+6
30	02/09/2022	16:17:40.831	5.20019487E+0	-6.31000000E+2	2.00000000E+0	-9.80576426E+0	7.16052700E+6
31	02/09/2022	16:17:42.416	4.46119963E+0	-6.30000000E+2	2.00000000E+0	-9.80576426E+0	7.16052700E+6
32	02/09/2022	16:17:44.183	4.48152487E+0	-6.30000000E+2	2.00000000E+0	-9.80576426E+0	7.16052700E+6
33	02/09/2022	16:17:45.606	4.33196174E+0	-6.30000000E+2	2.00000000E+0	-9.80576426E+0	7.16052700E+6
34	02/09/2022	16:17:47.035	5.80458330E+0	-6.31000000E+2	2.00000000E+0	-9.80576426E+0	7.16052700E+6
35	02/09/2022	16:17:48.447	6.12978723E+0	-6.31000000E+2	2.00000000E+0	-9.80576426E+0	7.16052700E+6
36	02/09/2022	16:17:50.045	5.14036962E+0	-6.31000000E+2	2.00000000E+0	-9.80576426E+0	7.16052700E+6
37	02/09/2022	16:17:51.439	4.57969964E+0	-6.30000000E+2	2.00000000E+0	-9.80576426E+0	7.16052700E+6
38	02/09/2022	16:17:52.815	4.97661717E+0	-6.30000000E+2	2.00000000E+0	-9.80576426E+0	7.16052700E+6
39	02/09/2022	16:17:54.343	3.80618983E+0	-6.31000000E+2	2.00000000E+0	-9.80576426E+0	7.16052700E+6
40	02/09/2022	16:17:55.775	9.85199161E-1	-6.29000000E+2	2.00000000E+0	-9.80576426E+0	7.16052700E+6
41	02/09/2022	16:17:57.331	4.12525783E+0	-6.30000000E+2	2.00000000E+0	-9.80576426E+0	7.16052700E+6
42	02/09/2022	16:17:58.756	5.99518041E+0	-6.31000000E+2	2.00000000E+0	-9.80576426E+0	7.16052700E+6
43	02/09/2022	16:18:00.131	2.95099554E+0	-6.31000000E+2	2.00000000E+0	-9.80576426E+0	7.16052700E+6
44	02/09/2022	16:18:01.685	3.68078690E+0	-6.31000000E+2	2.00000000E+0	-9.80576426E+0	7.16052700E+6
45	02/09/2022	16:18:03.104	5.41380170E+0	-6.31000000E+2	2.00000000E+0	-9.80576426E+0	7.16052700E+6
46	02/09/2022	16:18:04.595	4.27980640E-1	-6.30000000E+2	2.00000000E+0	-9.80576426E+0	7.16052700E+6
47	02/09/2022	16:18:06.092	5.09089874E+0	-6.30000000E+2	2.00000000E+0	-9.80576426E+0	7.16052700E+6
48	02/09/2022	16:18:07.475	3.55653446E+0	-6.31000000E+2	2.00000000E+0	-9.80576426E+0	7.16052700E+6
49	02/09/2022	16:18:09.000	4.30780155E+0	-6.30000000E+2	2.00000000E+0	-9.80576426E+0	7.16052700E+6
50	02/09/2022	16:18:10.391	5.59941337E+0	-6.31000000E+2	2.00000000E+0	-9.80576426E+0	7.16052700E+6
51	02/09/2022	16:18:11.799	2.55216054E+0	-6.30000000E+2	2.00000000E+0	-9.80576426E+0	7.16052700E+6
52	02/09/2022	16:18:13.323	4.77259773E+0	-6.31000000E+2	2.00000000E+0	-9.80576426E+0	7.16052700E+6
53	02/09/2022	16:18:14.720	2.21391777E+0	-6.30000000E+2	2.00000000E+0	-9.80576426E+0	7.16052700E+6
54	02/09/2022	16:18:16.248	5.01995213E-1	-6.30000000E+2	2.00000000E+0	-9.80576426E+0	7.16052700E+6
55	02/09/2022	16:18:17.658	4.75112200E+0	-6.31000000E+2	2.00000000E+0	-9.80576426E+0	7.16052700E+6
56	02/09/2022	16:18:19.066	3.90781606E+0	-6.31000000E+2	2.00000000E+0	-9.80576426E+0	7.16052700E+6
57	02/09/2022	16:18:20.574	3.82766556E+0	-6.31000000E+2	2.00000000E+0	-9.80576426E+0	7.16052700E+6
58	02/09/2022	16:18:21.976	1.10293219E+0	-6.30000000E+2	2.00000000E+0	-9.80576426E+0	7.16052700E+6
59	02/09/2022	16:18:23.428	5.24966575E+0	-6.30000000E+2	2.00000000E+0	-9.80576426E+0	7.16052700E+6
60	02/09/2022	16:18:24.790	5.45330170E+0	-6.30000000E+2	2.00000000E+0	-9.80576426E+0	7.16052700E+6
61	02/09/2022	16:18:26.184	3.94463160E+0	-6.31000000E+2	2.00000000E+0	-9.80576426E+0	7.16052700E+6
62	02/09/2022	16:18:27.664	9.43398185E-2	-6.29000000E+2	2.00000000E+0	-9.80576426E+0	7.16052700E+6
63	02/09/2022	16:18:29.041	3.92353936E+0	-6.30000000E+2	2.00000000E+0	-9.80576426E+0	7.16052700E+6
64	02/09/2022	16:18:30.502	4.73156374E+0	-6.30000000E+2	2.00000000E+0	-9.80576426E+0	7.16052700E+6
65	02/09/2022	16:18:32.010	2.87736446E+0	-6.30000000E+2	2.00000000E+0	-9.80576426E+0	7.16052700E+6
66	02/09/2022	16:18:33.385	5.72941824E+0	-6.31000000E+2	2.00000000E+0	-9.80576426E+0	7.16052700E+6
67	02/09/2022	16:18:34.934	1.31692251E+0	-6.30000000E+2	2.00000000E+0	-9.80576426E+0	7.16052700E+6
68	02/09/2022	16:18:36.315	5.32674829E+0	-6.31000000E+2	2.00000000E+0	-9.80576426E+0	7.16052700E+6
69	02/09/2022	16:18:37.707	5.04871427E+0	-6.30000000E+2	2.00000000E+0	-9.80576426E+0	7.16052700E+6
70	02/09/2022	16:18:39.209	6.10102509E+0	-6.30000000E+2	2.00000000E+0	-9.80576426E+0	7.16052700E+6
71	02/09/2022	16:18:40.611	4.63645693E-1	-6.30000000E+2	2.00000000E+0	-9.80576426E+0	7.16052700E+6
72	02/09/2022	16:18:41.988	4.75955889E+0	-6.30000000E+2	2.00000000E+0	-9.80576426E+0	7.16052700E+6
73	02/09/2022	16:18:43.486	1.87567501E+0	-6.30000000E+2	2.00000000E+0	-9.80576426E+0	7.16052700E+6
74	02/09/2022	16:18:44.876	4.42975302E+0	-6.30000000E+2	2.00000000E+0	-9.80576426E+0	7.16052700E+6
75	02/09/2022	16:18:46.386	5.36893276E-1	-6.30000000E+2	2.00000000E+0	-9.80576426E+0	7.16052700E+6
76	02/09/2022	16:18:47.777	2.10615562E+0	-6.30000000E+2	2.00000000E+0	-9.80576426E+0	7.16052700E+6
77	02/09/2022	16:18:49.174	5.38158810E+0	-6.31000000E+2	2.00000000E+0	-9.80576426E+0	7.16052700E+6
78	02/09/2022	16:18:50.622	4.67097150E+0	-6.30000000E+2	2.00000000E+0	-9.80576426E+0	7.16052700E+6
79	02/09/2022	16:18:52.026	5.97523866E+0	-6.30000000E+2	2.00000000E+0	-9.80576426E+0	7.16052700E+6
80	02/09/2022	16:18:53.427	5.18562205E+0	-6.31000000E+2	2.00000000E+0	-9.80576426E+0	7.16052700E+6
81	02/09/2022	16:18:54.772	5.22473856E+0	-6.30000000E+2	2.00000000E+0	-9.80576426E+0	7.16052700E+6
82	02/09/2022	16:18:56.156	5.23164148E+0	-6.31000000E+2	2.00000000E+0	-9.80576426E+0	7.16052700E+6
83	02/09/2022	16:18:57.837	1.87299054E+0	-6.30000000E+2	2.00000000E+0	-9.80576426E+0	7.16052700E+6
84	02/09/2022	16:18:59.248	2.33855371E+0	-6.30000000E+2	2.00000000E+0	-9.80576426E+0	7.16052700E+6
85	02/09/2022	16:19:00.632	4.89339871E+0	-6.31000000E+2	2.00000000E+0	-9.80576426E+0	7.16052700E+6
86	02/09/2022	16:19:02.166	3.73064128E+0	-6.30000000E+2	2.00000000E+0	-9.80576426E+0	7.16052700E+6
87	02/09/2022	16:19:03.537	3.14082566E+0	-6.30000000E+2	2.00000000E+0	-9.80576426E+0	7.16052700E+6
88	02/09/2022	16:19:05.099	4.77336472E+0	-6.31000000E+2	2.00000000E+0	-9.80576426E+0	7.16052700E+6
89	02/09/2022	16:19:06.487	5.38350558E+0	-6.30000000E+2	2.00000000E+0	-9.80576426E+0	7.16052700E+6
90	02/09/2022	16:19:07.857	5.33940363E+0	-6.30000000E+2	2.00000000E+0	-9.80576426E+0	7.16052700E+6
91	02/09/2022	16:19:09.365	6.02739401E+0	-6.30000000E+2	2.00000000E+0	-9.80576426E+0	7.16052700E+6
92	02/09/2022	16:19:10.754	3.89209275E+0	-6.31000000E+2	2.00000000E+0	-9.80576426E+0	7.16052700E+6
93	02/09/2022	16:19:12.202	3.95306849E+0	-6.30000000E+2	2.00000000E+0	-9.80576426E+0	7.16052700E+6
94	02/09/2022	16:19:13.696	4.48689380E+0	-6.30000000E+2	2.00000000E+0	-9.80576426E+0	7.16052700E+6
95	02/09/2022	16:19:15.062	3.52278688E+0	-6.30000000E+2	2.00000000E+0	-9.80576426E+0	7.16052700E+6
96	02/09/2022	16:19:16.571	4.30051514E+0	-6.30000000E+2	2.00000000E+0	-9.80576426E+0	7.16052700E+6
97	02/09/2022	16:19:17.965	3.47753445E+0	-6.31000000E+2	2.00000000E+0	-9.80576426E+0	7.16052700E+6
98	02/09/2022	16:19:19.344	6.13860762E+0	-6.31000000E+2	2.00000000E+0	-9.80576426E+0	7.16052700E+6
99	02/09/2022	16:19:20.855	2.49386927E+0	-6.30000000E+2	2.00000000E+0	-9.80576426E+0	7.16052700E+6
100	02/09/2022	16:19:22.231	5.46710753E+0	-6.30000000E+2	2.00000000E+0	-9.80576426E+0	7.16052700E+6
101	02/09/2022	16:19:23.750	2.50690810E+0	-6.30000000E+2	2.00000000E+0	-9.80576426E+0	7.16052700E+6
102	02/09/2022	16:19:25.211	1.18078171E+0	-6.30000000E+2	2.00000000E+0	-9.80576426E+0	7.16052700E+6
103	02/09/2022	16:19:26.610	6.03966586E+0	-6.30000000E+2	2.00000000E+0	-9.80576426E+0	7.16052700E+6
104	02/09/2022	16:19:28.166	3.16000042E-1	-6.29000000E+2	2.00000000E+0	-9.80576426E+0	7.16052700E+6
105	02/09/2022	16:19:29.577	6.16506879E+0	-6.30000000E+2	2.00000000E+0	-9.80576426E+0	7.16052700E+6
106	02/09/2022	16:19:30.979	1.78210218E+0	-6.30000000E+2	2.00000000E+0	-9.80576426E+0	7.16052700E+6
107	02/09/2022	16:19:32.504	3.74329662E+0	-6.30000000E+2	2.00000000E+0	-9.80576426E+0	7.16052700E+6
108	02/09/2022	16:19:33.876	2.13683524E+0	-6.30000000E+2	2.00000000E+0	-9.80576426E+0	7.16052700E+6
109	02/09/2022	16:19:35.359	1.21989822E+0	-6.30000000E+2	2.00000000E+0	-9.80576426E+0	7.16052700E+6
110	02/09/2022	16:19:36.751	1.49026234E+0	-6.30000000E+2	2.00000000E+0	-9.80576426E+0	7.16052700E+6
111	02/09/2022	16:19:38.137	4.99809290E+0	-6.31000000E+2	2.00000000E+0	-9.80576426E+0	7.16052700E+6
112	02/09/2022	16:19:39.676	5.99096197E+0	-6.31000000E+2	2.00000000E+0	-9.80576426E+0	7.16052700E+6
113	02/09/2022	16:19:41.057	4.19735493E+0	-6.31000000E+2	2.00000000E+0	-9.80576426E+0	7.16052700E+6
114	02/09/2022	16:19:42.515	4.22726756E+0	-6.31000000E+2	2.00000000E+0	-9.80576426E+0	7.16052700E+6
115	02/09/2022	16:19:43.837	4.79407346E+0	-6.31000000E+2	2.00000000E+0	-9.80576426E+0	7.16052700E+6
116	02/09/2022	16:19:45.214	1.09679626E-1	-6.30000000E+2	2.00000000E+0	-9.80576426E+0	7.16052700E+6
117	02/09/2022	16:19:46.696	3.10094216E+0	-6.30000000E+2	2.00000000E+0	-9.80576426E+0	7.16052700E+6
118	02/09/2022	16:19:48.091	1.37367980E+0	-6.30000000E+2	2.00000000E+0	-9.80576426E+0	7.16052700E+6
119	02/09/2022	16:19:49.529	6.30082609E-1	-6.30000000E+2	2.00000000E+0	-9.80576426E+0	7.16052700E+6
120	02/09/2022	16:19:51.029	3.85297624E+0	-6.30000000E+2	2.00000000E+0	-9.80576426E+0	7.16052700E+6
121	02/09/2022	16:19:52.420	3.88097139E-1	-6.30000000E+2	2.00000000E+0	-9.80576426E+0	7.16052700E+6
122	02/09/2022	16:19:53.907	1.06995160E+0	-6.30000000E+2	2.00000000E+0	-9.80576426E+0	7.16052700E+6
123	02/09/2022	16:19:55.293	5.40459781E+0	-6.31000000E+2	2.00000000E+0	-9.80576426E+0	7.16052700E+6
124	02/09/2022	16:19:56.713	2.18132068E+0	-6.30000000E+2	2.00000000E+0	-9.80576426E+0	7.16052700E+6
125	02/09/2022	16:19:58.254	4.69666568E+0	-6.31000000E+2	2.00000000E+0	-9.80576426E+0	7.16052700E+6
126	02/09/2022	16:19:59.646	5.64888425E+0	-6.30000000E+2	2.00000000E+0	-9.80576426E+0	7.16052700E+6
127	02/09/2022	16:20:01.034	5.27996187E+0	-6.31000000E+2	2.00000000E+0	-9.80576426E+0	7.16052700E+6
128	02/09/2022	16:20:02.551	6.25864161E-1	-6.30000000E+2	2.00000000E+0	-9.80576426E+0	7.16052700E+6
129	02/09/2022	16:20:03.969	2.48006344E+0	-6.30000000E+2	2.00000000E+0	-9.80576426E+0	7.16052700E+6
130	02/09/2022	16:20:05.439	5.53153472E+0	-6.30000000E+2	2.00000000E+0	-9.80576426E+0	7.16052700E+6
131	02/09/2022	16:20:06.847	4.24337435E+0	-6.30000000E+2	2.00000000E+0	-9.80576426E+0	7.16052700E+6
132	02/09/2022	16:20:08.232	2.65800521E+0	-6.30000000E+2	2.00000000E+0	-9.80576426E+0	7.16052700E+6
133	02/09/2022	16:20:09.761	1.91210705E+0	-6.30000000E+2	2.00000000E+0	-9.80576426E+0	7.16052700E+6
134	02/09/2022	16:20:11.167	4.29859766E+0	-6.31000000E+2	2.00000000E+0	-9.80576426E+0	7.16052700E+6
135	02/09/2022	16:20:12.612	1.64174294E+0	-6.30000000E+2	2.00000000E+0	-9.80576426E+0	7.16052700E+6
136	02/09/2022	16:20:13.977	3.71990341E+0	-6.30000000E+2	2.00000000E+0	-9.80576426E+0	7.16052700E+6
137	02/09/2022	16:20:15.369	5.64965124E+0	-6.31000000E+2	2.00000000E+0	-9.80576426E+0	7.16052700E+6
138	02/09/2022	16:20:16.926	2.79261202E+0	-6.30000000E+2	2.00000000E+0	-9.80576426E+0	7.16052700E+6
139	02/09/2022	16:20:18.286	5.51887938E+0	-6.31000000E+2	2.00000000E+0	-9.80576426E+0	7.16052700E+6
140	02/09/2022	16:20:19.752	1.65056333E+0	-6.30000000E+2	2.00000000E+0	-9.80576426E+0	7.16052700E+6
141	02/09/2022	16:20:21.246	5.18293759E+0	-6.31000000E+2	2.00000000E+0	-9.80576426E+0	7.16052700E+6
142	02/09/2022	16:20:22.654	5.82605903E+0	-6.31000000E+2	2.00000000E+0	-9.80576426E+0	7.16052700E+6
143	02/09/2022	16:20:24.138	4.98965601E+0	-6.30000000E+2	2.00000000E+0	-9.80576426E+0	7.16052700E+6
144	02/09/2022	16:20:25.534	5.21553468E+0	-6.31000000E+2	2.00000000E+0	-9.80576426E+0	7.16052700E+6
145	02/09/2022	16:20:26.892	2.57632073E+0	-6.30000000E+2	2.00000000E+0	-9.80576426E+0	7.16052700E+6
146	02/09/2022	16:20:28.440	3.98719956E+0	-6.30000000E+2	2.00000000E+0	-9.80576426E+0	7.16052700E+6
147	02/09/2022	16:20:29.842	4.71814141E+0	-6.30000000E+2	2.00000000E+0	-9.80576426E+0	7.16052700E+6
148	02/09/2022	16:20:31.220	5.51811239E+0	-6.30000000E+2	2.00000000E+0	-9.80576426E+0	7.16052700E+6
149	02/09/2022	16:20:32.724	5.74590854E+0	-6.30000000E+2	2.00000000E+0	-9.80576426E+0	7.16052700E+6
150	02/09/2022	16:20:34.104	1.14626714E+0	-6.30000000E+2	2.00000000E+0	-9.80576426E+0	7.16052700E+6
151	02/09/2022	16:20:35.643	9.89417608E-1	-6.29000000E+2	2.00000000E+0	-9.80576426E+0	7.16052700E+6
152	02/09/2022	16:20:37.008	5.47439394E+0	-6.30000000E+2	2.00000000E+0	-9.80576426E+0	7.16052700E+6
153	02/09/2022	16:20:38.405	3.76017041E+0	-6.31000000E+2	2.00000000E+0	-9.80576426E+0	7.16052700E+6
154	02/09/2022	16:20:39.849	2.10040319E+0	-6.30000000E+2	2.00000000E+0	-9.80576426E+0	7.16052700E+6
155	02/09/2022	16:20:41.229	4.34615107E+0	-6.31000000E+2	2.00000000E+0	-9.80576426E+0	7.16052700E+6
156	02/09/2022	16:20:42.707	4.88994726E+0	-6.30000000E+2	2.00000000E+0	-9.80576426E+0	7.16052700E+6
157	02/09/2022	16:20:44.130	6.08530179E+0	-6.30000000E+2	2.00000000E+0	-9.80576426E+0	7.16052700E+6
158	02/09/2022	16:20:45.529	2.39454401E+0	-6.30000000E+2	2.00000000E+0	-9.80576426E+0	7.16052700E+6
159	02/09/2022	16:20:47.007	3.55231601E+0	-6.30000000E+2	2.00000000E+0	-9.80576426E+0	7.16052700E+6
160	02/09/2022	16:20:48.397	4.45506370E+0	-6.31000000E+2	2.00000000E+0	-9.80576426E+0	7.16052700E+6
161	02/09/2022	16:20:49.810	4.86732104E+0	-6.31000000E+2	2.00000000E+0	-9.80576426E+0	7.16052700E+6
162	02/09/2022	16:20:51.336	5.99748139E+0	-6.30000000E+2	2.00000000E+0	-9.80576426E+0	7.16052700E+6
163	02/09/2022	16:20:52.733	6.12288431E+0	-6.31000000E+2	2.00000000E+0	-9.80576426E+0	7.16052700E+6
164	02/09/2022	16:20:54.186	3.62824806E+0	-6.31000000E+2	2.00000000E+0	-9.80576426E+0	7.16052700E+6
165	02/09/2022	16:20:55.563	5.73402019E+0	-6.31000000E+2	2.00000000E+0	-9.80576426E+0	7.16052700E+6
166	02/09/2022	16:20:56.959	1.27358755E+0	-6.30000000E+2	2.00000000E+0	-9.80576426E+0	7.16052700E+6
167	02/09/2022	16:20:58.530	5.74284057E+0	-6.31000000E+2	2.00000000E+0	-9.80576426E+0	7.16052700E+6
168	02/09/2022	16:20:59.905	2.54065568E+0	-6.30000000E+2	2.00000000E+0	-9.80576426E+0	7.16052700E+6
169	02/09/2022	16:21:01.357	5.28494731E+0	-6.31000000E+2	2.00000000E+0	-9.80576426E+0	7.16052700E+6
170	02/09/2022	16:21:02.719	4.38718505E+0	-6.31000000E+2	2.00000000E+0	-9.80576426E+0	7.16052700E+6
171	02/09/2022	16:21:04.106	5.51082598E+0	-6.30000000E+2	2.00000000E+0	-9.80576426E+0	7.16052700E+6
172	02/09/2022	16:21:05.664	5.91042798E+0	-6.30000000E+2	2.00000000E+0	-9.80576426E+0	7.16052700E+6
173	02/09/2022	16:21:07.062	2.34699061E-1	-6.30000000E+2	2.00000000E+0	-9.80576426E+0	7.16052700E+6
174	02/09/2022	16:21:08.501	1.83425753E+0	-6.30000000E+2	2.00000000E+0	-9.80576426E+0	7.16052700E+6
175	02/09/2022	16:21:10.015	4.62265110E+0	-6.31000000E+2	2.00000000E+0	-9.80576426E+0	7.16052700E+6
176	02/09/2022	16:21:11.396	6.20265132E+0	-6.31000000E+2	2.00000000E+0	-9.80576426E+0	7.16052700E+6
177	02/09/2022	16:21:12.837	1.09066034E+0	-6.30000000E+2	2.00000000E+0	-9.80576426E+0	7.16052700E+6
178	02/09/2022	16:21:14.332	5.55339395E+0	-6.30000000E+2	2.00000000E+0	-9.80576426E+0	7.16052700E+6
179	02/09/2022	16:21:15.717	4.83587443E+0	-6.31000000E+2	2.00000000E+0	-9.80576426E+0	7.16052700E+6
180	02/09/2022	16:21:17.222	5.62280658E+0	-6.31000000E+2	2.00000000E+0	-9.80576426E+0	7.16052700E+6
181	02/09/2022	16:21:18.633	4.01135976E-1	-6.30000000E+2	2.00000000E+0	-9.80576426E+0	7.16052700E+6
182	02/09/2022	16:21:20.026	4.08192288E+0	-6.30000000E+2	2.00000000E+0	-9.80576426E+0	7.16052700E+6
183	02/09/2022	16:21:21.537	5.83718039E+0	-6.30000000E+2	2.00000000E+0	-9.80576426E+0	7.16052700E+6
184	02/09/2022	16:21:22.928	3.59181601E+0	-6.31000000E+2	2.00000000E+0	-9.80576426E+0	7.16052700E+6
185	02/09/2022	16:21:24.407	4.86655405E+0	-6.30000000E+2	2.00000000E+0	-9.80576426E+0	7.16052700E+6
186	02/09/2022	16:21:25.767	6.00016585E+0	-6.31000000E+2	2.00000000E+0	-9.80576426E+0	7.16052700E+6
187	02/09/2022	16:21:27.159	3.82383061E+0	-6.30000000E+2	2.00000000E+0	-9.80576426E+0	7.16052700E+6
188	02/09/2022	16:21:28.650	4.20770930E+0	-6.30000000E+2	2.00000000E+0	-9.80576426E+0	7.16052700E+6
189	02/09/2022	16:21:30.026	5.20978225E+0	-6.30000000E+2	2.00000000E+0	-9.80576426E+0	7.16052700E+6
190	02/09/2022	16:21:31.486	5.46020461E+0	-6.30000000E+2	2.00000000E+0	-9.80576426E+0	7.16052700E+6
191	02/09/2022	16:21:32.892	3.73255875E+0	-6.30000000E+2	2.00000000E+0	-9.80576426E+0	7.16052700E+6
192	02/09/2022	16:21:34.291	4.87614143E+0	-6.31000000E+2	2.00000000E+0	-9.80576426E+0	7.16052700E+6
193	02/09/2022	16:21:35.826	4.67327247E+0	-6.30000000E+2	2.00000000E+0	-9.80576426E+0	7.16052700E+6
194	02/09/2022	16:21:37.215	4.64527732E+0	-6.31000000E+2	2.00000000E+0	-9.80576426E+0	7.16052700E+6
195	02/09/2022	16:21:38.613	2.80488387E+0	-6.30000000E+2	2.00000000E+0	-9.80576426E+0	7.16052700E+6
196	02/09/2022	16:21:40.122	7.39762235E-1	-6.30000000E+2	2.00000000E+0	-9.80576426E+0	7.16052700E+6
197	02/09/2022	16:21:41.517	4.45468021E+0	-6.30000000E+2	2.00000000E+0	-9.80576426E+0	7.16052700E+6
198	02/09/2022	16:21:43.048	4.79944239E+0	-6.31000000E+2	2.00000000E+0	-9.80576426E+0	7.16052700E+6
199	02/09/2022	16:21:44.433	2.82789358E+0	-6.30000000E+2	2.00000000E+0	-9.80576426E+0	7.16052700E+6
200	02/09/2022	16:21:45.813	6.44271931E-2	-6.29000000E+2	2.00000000E+0	-9.80576426E+0	7.16052700E+6
201	02/09/2022	16:21:47.336	3.68385486E+0	-6.31000000E+2	2.00000000E+0	-9.80576426E+0	7.16052700E+6
202	02/09/2022	16:21:48.717	6.27513191E+0	-6.31000000E+2	2.00000000E+0	-9.80576426E+0	7.16052700E+6
203	02/09/2022	16:21:50.161	5.80151534E+0	-6.31000000E+2	2.00000000E+0	-9.80576426E+0	7.16052700E+6
204	02/09/2022	16:21:51.657	3.98298112E+0	-6.30000000E+2	2.00000000E+0	-9.80576426E+0	7.16052700E+6
205	02/09/2022	16:21:53.051	2.21660224E-1	-6.30000000E+2	2.00000000E+0	-9.80576426E+0	7.16052700E+6
206	02/09/2022	16:21:54.535	2.27067506E+0	-6.30000000E+2	2.00000000E+0	-9.80576426E+0	7.16052700E+6
207	02/09/2022	16:21:55.920	4.47730642E+0	-6.31000000E+2	2.00000000E+0	-9.80576426E+0	7.16052700E+6
208	02/09/2022	16:21:57.299	3.42691308E+0	-6.30000000E+2	2.00000000E+0	-9.80576426E+0	7.16052700E+6
209	02/09/2022	16:21:58.793	5.00691329E+0	-6.31000000E+2	2.00000000E+0	-9.80576426E+0	7.16052700E+6
210	02/09/2022	16:22:00.183	4.51642293E+0	-6.30000000E+2	2.00000000E+0	-9.80576426E+0	7.16052700E+6
211	02/09/2022	16:22:01.740	4.65294722E+0	-6.30000000E+2	2.00000000E+0	-9.80576426E+0	7.16052700E+6
212	02/09/2022	16:22:03.147	1.20033997E+0	-6.29000000E+2	2.00000000E+0	-9.80576426E+0	7.16052700E+6
213	02/09/2022	16:22:04.527	2.17173330E+0	-6.30000000E+2	2.00000000E+0	-9.80576426E+0	7.16052700E+6
214	02/09/2022	16:22:06.081	3.05300526E+0	-6.30000000E+2	2.00000000E+0	-9.80576426E+0	7.16052700E+6
215	02/09/2022	16:22:07.469	6.27858336E+0	-6.31000000E+2	2.00000000E+0	-9.80576426E+0	7.16052700E+6
216	02/09/2022	16:22:08.850	5.63201046E+0	-6.30000000E+2	2.00000000E+0	-9.80576426E+0	7.16052700E+6
217	02/09/2022	16:22:10.338	4.60501033E+0	-6.31000000E+2	2.00000000E+0	-9.80576426E+0	7.16052700E+6
218	02/09/2022	16:22:11.738	1.16429142E+0	-6.30000000E+2	2.00000000E+0	-9.80576426E+0	7.16052700E+6
219	02/09/2022	16:22:13.166	3.80120439E+0	-6.31000000E+2	2.00000000E+0	-9.80576426E+0	7.16052700E+6
220	02/09/2022	16:22:14.567	7.14068057E-1	-6.30000000E+2	2.00000000E+0	-9.80576426E+0	7.16052700E+6
221	02/09/2022	16:22:15.937	8.41004967E-1	-6.30000000E+2	2.00000000E+0	-9.80576426E+0	7.16052700E+6
222	02/09/2022	16:22:17.478	4.88802978E+0	-6.30000000E+2	2.00000000E+0	-9.80576426E+0	7.16052700E+6
223	02/09/2022	16:22:18.878	2.53567024E+0	-6.30000000E+2	2.00000000E+0	-9.80576426E+0	7.16052700E+6
224	02/09/2022	16:22:20.312	2.84783533E+0	-6.30000000E+2	2.00000000E+0	-9.80576426E+0	7.16052700E+6
225	02/09/2022	16:22:21.702	4.51373847E-1	-6.30000000E+2	2.00000000E+0	-9.80576426E+0	7.16052700E+6
226	02/09/2022	16:22:23.103	5.21936963E+0	-6.31000000E+2	2.00000000E+0	-9.80576426E+0	7.16052700E+6
227	02/09/2022	16:22:24.711	1.13284481E+0	-6.30000000E+2	2.00000000E+0	-9.80576426E+0	7.16052700E+6
228	02/09/2022	16:22:26.100	4.91755891E+0	-6.30000000E+2	2.00000000E+0	-9.80576426E+0	7.16052700E+6
229	02/09/2022	16:22:27.542	1.54165069E-1	-6.30000000E+2	2.00000000E+0	-9.80576426E+0	7.16052700E+6
230	02/09/2022	16:22:29.025	5.22550555E+0	-6.30000000E+2	2.00000000E+0	-9.80576426E+0	7.16052700E+6
231	02/09/2022	16:22:30.416	3.37475773E-1	-6.30000000E+2	2.00000000E+0	-9.80576426E+0	7.16052700E+6
232	02/09/2022	16:22:31.859	1.15968948E+0	-6.30000000E+2	2.00000000E+0	-9.80576426E+0	7.16052700E+6
233	02/09/2022	16:22:33.310	5.58484055E+0	-6.30000000E+2	2.00000000E+0	-9.80576426E+0	7.16052700E+6
234	02/09/2022	16:22:34.669	4.77719967E+0	-6.30000000E+2	2.00000000E+0	-9.80576426E+0	7.16052700E+6
235	02/09/2022	16:22:36.190	3.78241313E+0	-6.30000000E+2	2.00000000E+0	-9.80576426E+0	7.16052700E+6
236	02/09/2022	16:22:37.594	5.23355895E+0	-6.30000000E+2	2.00000000E+0	-9.80576426E+0	7.16052700E+6
237	02/09/2022	16:22:38.983	3.85796168E+0	-6.31000000E+2	2.00000000E+0	-9.80576426E+0	7.16052700E+6
238	02/09/2022	16:22:40.477	3.50668008E+0	-6.30000000E+2	2.00000000E+0	-9.80576426E+0	7.16052700E+6
239	02/09/2022	16:22:41.873	3.22979655E+0	-6.30000000E+2	2.00000000E+0	-9.80576426E+0	7.16052700E+6
240	02/09/2022	16:22:43.326	5.26845702E+0	-6.31000000E+2	2.00000000E+0	-9.80576426E+0	7.16052700E+6
241	02/09/2022	16:22:44.701	3.49095678E+0	-6.30000000E+2	2.00000000E+0	-9.80576426E+0	7.16052700E+6
242	02/09/2022	16:22:46.072	3.58376262E+0	-6.30000000E+2	2.00000000E+0	-9.80576426E+0	7.16052700E+6
243	02/09/2022	16:22:47.562	4.44087438E+0	-6.31000000E+2	2.00000000E+0	-9.80576426E+0	7.16052700E+6
244	02/09/2022	16:22:48.962	4.51834041E+0	-6.30000000E+2	2.00000000E+0	-9.80576426E+0	7.16052700E+6
245	02/09/2022	16:22:50.433	5.90966099E+0	-6.31000000E+2	2.00000000E+0	-9.80576426E+0	7.16052700E+6
246	02/09/2022	16:22:51.764	4.22650057E+0	-6.31000000E+2	2.00000000E+0	-9.80576426E+0	7.16052700E+6
247	02/09/2022	16:22:53.164	2.20701486E+0	-6.30000000E+2	2.00000000E+0	-9.80576426E+0	7.16052700E+6
248	02/09/2022	16:22:54.623	2.79683047E+0	-6.30000000E+2	2.00000000E+0	-9.80576426E+0	7.16052700E+6
249	02/09/2022	16:22:56.025	5.05408320E+0	-6.30000000E+2	2.00000000E+0	-9.80576426E+0	7.16052700E+6
250	02/09/2022	16:22:57.414	4.68055888E+0	-6.31000000E+2	2.00000000E+0	-9.80576426E+0	7.16052700E+6
251	02/09/2022	16:22:58.942	4.50223361E+0	-6.30000000E+2	2.00000000E+0	-9.80576426E+0	7.16052700E+6
252	02/09/2022	16:23:00.320	5.01228222E+0	-6.30000000E+2	2.00000000E+0	-9.80576426E+0	7.16052700E+6
253	02/09/2022	16:23:01.772	5.85290370E+0	-6.30000000E+2	2.00000000E+0	-9.80576426E+0	7.16052700E+6
254	02/09/2022	16:23:03.167	4.12065589E+0	-6.31000000E+2	2.00000000E+0	-9.80576426E+0	7.16052700E+6
255	02/09/2022	16:23:04.587	4.74191811E+0	-6.31000000E+2	2.00000000E+0	-9.80576426E+0	7.16052700E+6
256	02/09/2022	16:23:06.118	2.23270904E+0	-6.30000000E+2	2.00000000E+0	-9.80576426E+0	7.16052700E+6
257	02/09/2022	16:23:07.515	4.49379672E+0	-6.30000000E+2	2.00000000E+0	-9.80576426E+0	7.16052700E+6
258	02/09/2022	16:23:08.969	6.11866587E+0	-6.31000000E+2	2.00000000E+0	-9.80576426E+0	7.16052700E+6
259	02/09/2022	16:23:10.501	1.84422840E+0	-6.30000000E+2	2.00000000E+0	-9.80576426E+0	7.16052700E+6
260	02/09/2022	16:23:11.887	6.25825812E+0	-6.31000000E+2	2.00000000E+0	-9.80576426E+0	7.16052700E+6
261	02/09/2022	16:23:13.386	4.44816079E+0	-6.31000000E+2	2.00000000E+0	-9.80576426E+0	7.16052700E+6
262	02/09/2022	16:23:14.763	6.40436979E-2	-6.30000000E+2	2.00000000E+0	-9.80576426E+0	7.16052700E+6
263	02/09/2022	16:23:16.131	6.51174844E-1	-6.30000000E+2	2.00000000E+0	-9.80576426E+0	7.16052700E+6
264	02/09/2022	16:23:17.596	2.64995181E+0	-6.30000000E+2	2.00000000E+0	-9.80576426E+0	7.16052700E+6
265	02/09/2022	16:23:18.978	5.47554442E+0	-6.30000000E+2	2.00000000E+0	-9.80576426E+0	7.16052700E+6
266	02/09/2022	16:23:20.427	2.30634011E+0	-6.30000000E+2	2.00000000E+0	-9.80576426E+0	7.16052700E+6
267	02/09/2022	16:23:21.869	5.21438419E+0	-6.31000000E+2	2.00000000E+0	-9.80576426E+0	7.16052700E+6
268	02/09/2022	16:23:23.247	5.48283083E+0	-6.31000000E+2	2.00000000E+0	-9.80576426E+0	7.16052700E+6
269	02/09/2022	16:23:24.727	4.74191811E+0	-6.30000000E+2	2.00000000E+0	-9.80576426E+0	7.16052700E+6
270	02/09/2022	16:23:26.099	4.49571419E+0	-6.30000000E+2	2.00000000E+0	-9.80576426E+0	7.16052700E+6
271	02/09/2022	16:23:27.565	1.20072346E+0	-6.30000000E+2	2.00000000E+0	-9.80576426E+0	7.16052700E+6
272	02/09/2022	16:23:29.096	4.42860253E+0	-6.30000000E+2	2.00000000E+0	-9.80576426E+0	7.16052700E+6
273	02/09/2022	16:23:30.490	4.97546669E+0	-6.31000000E+2	2.00000000E+0	-9.80576426E+0	7.16052700E+6
274	02/09/2022	16:23:31.950	5.03567543E+0	-6.31000000E+2	2.00000000E+0	-9.80576426E+0	7.16052700E+6
275	02/09/2022	16:23:33.348	5.82759301E+0	-6.30000000E+2	2.00000000E+0	-9.80576426E+0	7.16052700E+6
276	02/09/2022	16:23:34.712	4.72542782E+0	-6.30000000E+2	2.00000000E+0	-9.80576426E+0	7.16052700E+6
277	02/09/2022	16:23:36.214	2.92069942E+0	-6.30000000E+2	2.00000000E+0	-9.80576426E+0	7.16052700E+6
278	02/09/2022	16:23:37.583	3.76822381E+0	-6.30000000E+2	2.00000000E+0	-9.80576426E+0	7.16052700E+6
279	02/09/2022	16:23:39.024	4.59925790E+0	-6.31000000E+2	2.00000000E+0	-9.80576426E+0	7.16052700E+6
280	02/09/2022	16:23:40.420	4.28594232E+0	-6.30000000E+2	2.00000000E+0	-9.80576426E+0	7.16052700E+6
281	02/09/2022	16:23:41.797	3.39278201E+0	-6.30000000E+2	2.00000000E+0	-9.80576426E+0	7.16052700E+6
282	02/09/2022	16:23:43.257	2.87468000E+0	-6.30000000E+2	2.00000000E+0	-9.80576426E+0	7.16052700E+6
283	02/09/2022	16:23:44.648	7.27490389E-1	-6.30000000E+2	2.00000000E+0	-9.80576426E+0	7.16052700E+6
284	02/09/2022	16:23:46.103	3.95536946E+0	-6.31000000E+2	2.00000000E+0	-9.80576426E+0	7.16052700E+6
285	02/09/2022	16:23:47.599	3.58568009E+0	-6.31000000E+2	2.00000000E+0	-9.80576426E+0	7.16052700E+6
286	02/09/2022	16:23:48.974	3.82383061E+0	-6.31000000E+2	2.00000000E+0	-9.80576426E+0	7.16052700E+6
287	02/09/2022	16:23:50.418	3.66698107E+0	-6.30000000E+2	2.00000000E+0	-9.80576426E+0	7.16052700E+6
288	02/09/2022	16:23:51.813	1.98880609E+0	-6.30000000E+2	2.00000000E+0	-9.80576426E+0	7.16052700E+6
289	02/09/2022	16:23:53.179	1.68085945E+0	-6.30000000E+2	2.00000000E+0	-9.80576426E+0	7.16052700E+6
290	02/09/2022	16:23:54.726	5.48129685E+0	-6.31000000E+2	2.00000000E+0	-9.80576426E+0	7.16052700E+6
291	02/09/2022	16:23:56.090	4.28134038E+0	-6.31000000E+2	2.00000000E+0	-9.80576426E+0	7.16052700E+6
292	02/09/2022	16:23:57.534	2.88810233E+0	-6.30000000E+2	2.00000000E+0	-9.80576426E+0	7.16052700E+6
293	02/09/2022	16:23:59.031	5.90544254E+0	-6.30000000E+2	2.00000000E+0	-9.80576426E+0	7.16052700E+6
294	02/09/2022	16:24:00.442	4.73846665E+0	-6.30000000E+2	2.00000000E+0	-9.80576426E+0	7.16052700E+6
295	02/09/2022	16:24:01.929	5.39424344E+0	-6.31000000E+2	2.00000000E+0	-9.80576426E+0	7.16052700E+6
296	02/09/2022	16:24:03.316	4.86578706E+0	-6.30000000E+2	2.00000000E+0	-9.80576426E+0	7.16052700E+6
297	02/09/2022	16:24:04.696	4.59273848E+0	-6.30000000E+2	2.00000000E+0	-9.80576426E+0	7.16052700E+6
298	02/09/2022	16:24:06.195	6.04273382E+0	-6.30000000E+2	2.00000000E+0	-9.80576426E+0	7.16052700E+6
299	02/09/2022	16:24:07.601	2.20049544E+0	-6.30000000E+2	2.00000000E+0	-9.80576426E+0	7.16052700E+6
300	02/09/2022	16:24:09.050	4.61383071E+0	-6.31000000E+2	2.00000000E+0	-9.80576426E+0	7.16052700E+6
301	02/09/2022	16:24:10.430	2.69520424E+0	-6.30000000E+2	2.00000000E+0	-9.80576426E+0	7.16052700E+6
