#k Index:	1.00000000E+0
#Current Chirp:	0.00000000E+0
#Current Phase:	2.51342752E+0
#Raman Axis:	5.00000000E+0
#RT Freq 1:	-4.99441754E+5
#RT Freq 2:	-2.49802833E+5
#RT Freq 3:	-2.49907258E+5
#Sum Freq 1:	3.41831691E+7
#Sum Freq 2:	3.39333663E+7
#Sum Freq 3:	3.36834590E+7
#RT Phase:	5.52079686E+0
#Total Phase 3:	-1.57062126E+4
#NFringe:	-2.50100000E+3
#Accel Axis:	2.00000000E+0
#Accel Mean:	-9.79258406E+0
#Accel Temp:	7.15850500E+6
#Time Step:	2.00000000E-6
#Date Stamp:	17/03/2023
#Time Stamp:	15:52:53.933
-5.46876E-3	-9.62061E-4	-4.50304E-3
-6.59543E-3	3.25566E-4	-2.24969E-3
-6.91734E-3	-3.18247E-4	-5.62971E-3
-8.84878E-3	8.08426E-4	-3.53731E-3
-9.00973E-3	6.47473E-4	-4.50304E-3
-8.68782E-3	3.25566E-4	2.09605E-3
6.28084E-3	8.45041E-2	8.37323E-3
7.72942E-3	1.05589E-1	1.32018E-2
8.05133E-3	1.08808E-1	1.28799E-2
1.07875E-2	1.07681E-1	1.06266E-2
7.24656E-3	1.08325E-1	1.04656E-2
6.28084E-3	1.07199E-1	1.09485E-2
8.05133E-3	1.06394E-1	1.14313E-2
8.37323E-3	1.06555E-1	1.27190E-2
7.24656E-3	1.06233E-1	1.06266E-2
7.40751E-3	1.05106E-1	1.03047E-2
6.60275E-3	1.04462E-1	9.98277E-3
6.60275E-3	1.03979E-1	8.85609E-3
6.11989E-3	1.04140E-1	8.69514E-3
7.72942E-3	1.03336E-1	1.04656E-2
6.44179E-3	1.03336E-1	1.06266E-2
7.56847E-3	1.02692E-1	8.37323E-3
7.56847E-3	1.02048E-1	7.24656E-3
5.95893E-3	1.01082E-1	9.98277E-3
6.28084E-3	1.00921E-1	1.06266E-2
7.56847E-3	1.00278E-1	1.14313E-2
9.01705E-3	9.97947E-2	1.04656E-2
9.66086E-3	9.99556E-2	1.03047E-2
5.79798E-3	9.97947E-2	8.85609E-3
3.86654E-3	9.88290E-2	8.85609E-3
8.37323E-3	9.88290E-2	9.17800E-3
8.21228E-3	9.83461E-2	9.17800E-3
7.40751E-3	9.70585E-2	7.40751E-3
1.01437E-2	9.80242E-2	1.07875E-2
4.18845E-3	9.65756E-2	8.69514E-3
5.15417E-3	9.65756E-2	9.17800E-3
6.76370E-3	9.62537E-2	7.89037E-3
5.95893E-3	9.52880E-2	8.05133E-3
8.21228E-3	9.60928E-2	8.05133E-3
8.69514E-3	9.57709E-2	8.53419E-3
5.63703E-3	9.52880E-2	6.76370E-3
3.22273E-3	9.49661E-2	9.66086E-3
7.08561E-3	9.41613E-2	5.95893E-3
6.28084E-3	9.44832E-2	6.60275E-3
7.08561E-3	9.38394E-2	6.44179E-3
9.49991E-3	9.25518E-2	9.01705E-3
5.47607E-3	9.23908E-2	7.72942E-3
4.02749E-3	9.22299E-2	6.76370E-3
7.56847E-3	9.23908E-2	6.11989E-3
7.24656E-3	9.15861E-2	6.76370E-3
8.37323E-3	9.14251E-2	8.53419E-3
8.05133E-3	9.07813E-2	6.28084E-3
4.67131E-3	9.12642E-2	6.76370E-3
4.34940E-3	9.02984E-2	9.49991E-3
6.28084E-3	8.91718E-2	7.89037E-3
5.95893E-3	8.98156E-2	5.63703E-3
7.89037E-3	8.91718E-2	7.72942E-3
8.21228E-3	8.91718E-2	4.02749E-3
5.31512E-3	8.88499E-2	7.56847E-3
5.31512E-3	8.80451E-2	4.83226E-3
6.44179E-3	8.80451E-2	5.15417E-3
3.38368E-3	8.70794E-2	6.60275E-3
5.47607E-3	8.67575E-2	7.24656E-3
7.08561E-3	8.67575E-2	2.73987E-3
4.99321E-3	8.69184E-2	4.99321E-3
3.22273E-3	8.65965E-2	5.31512E-3
4.34940E-3	8.61137E-2	6.11989E-3
6.44179E-3	8.57918E-2	4.34940E-3
5.47607E-3	8.49870E-2	4.83226E-3
7.56847E-3	8.53089E-2	6.28084E-3
4.67131E-3	8.45041E-2	6.11989E-3
2.90082E-3	8.49870E-2	4.99321E-3
8.21228E-3	8.48260E-2	3.86654E-3
4.83226E-3	8.45041E-2	5.15417E-3
6.11989E-3	8.45041E-2	5.15417E-3
7.56847E-3	8.35384E-2	4.67131E-3
4.02749E-3	8.43432E-2	3.70559E-3
4.83226E-3	8.38603E-2	3.70559E-3
5.15417E-3	8.35384E-2	4.51035E-3
5.47607E-3	8.28946E-2	7.08561E-3
5.31512E-3	8.28946E-2	6.28084E-3
1.01437E-2	8.30556E-2	5.47607E-3
6.11989E-3	8.32165E-2	4.99321E-3
1.29129E-3	8.24117E-2	6.92465E-3
7.24656E-3	8.25727E-2	7.56847E-3
6.44179E-3	8.24117E-2	5.31512E-3
5.63703E-3	8.25727E-2	5.79798E-3
6.60275E-3	8.25727E-2	6.76370E-3
6.28084E-3	8.22508E-2	3.54463E-3
4.83226E-3	8.14460E-2	7.40751E-3
6.76370E-3	8.14460E-2	5.47607E-3
5.79798E-3	8.06413E-2	7.72942E-3
6.76370E-3	8.16070E-2	5.31512E-3
1.04656E-2	8.11241E-2	4.67131E-3
5.95893E-3	8.08022E-2	3.70559E-3
3.38368E-3	8.04803E-2	7.08561E-3
5.95893E-3	8.06413E-2	4.51035E-3
6.28084E-3	8.03193E-2	4.67131E-3
7.72942E-3	8.04803E-2	7.08561E-3
7.24656E-3	7.99974E-2	4.02749E-3
5.31512E-3	7.98365E-2	4.99321E-3
5.47607E-3	7.91927E-2	3.22273E-3
5.79798E-3	7.98365E-2	3.86654E-3
6.76370E-3	7.91927E-2	4.99321E-3
4.67131E-3	7.98365E-2	5.79798E-3
7.89037E-3	7.93536E-2	-1.57294E-4
-6.27352E-3	2.01228E-2	-4.02018E-3
-1.15850E-2	4.83226E-3	-5.14685E-3
-9.00973E-3	1.93510E-3	-5.14685E-3
-9.81450E-3	9.69380E-4	-4.34208E-3
-8.04401E-3	8.08426E-4	-6.59543E-3
-6.11257E-3	6.47473E-4	-3.85922E-3
-9.65354E-3	8.08426E-4	-3.21541E-3
-1.19069E-2	4.86520E-4	-2.41064E-3
-8.20496E-3	1.61319E-3	-6.27352E-3
-7.56115E-3	1.64613E-4	-5.30780E-3
-1.04583E-2	4.86520E-4	-4.82494E-3
-7.07829E-3	4.86520E-4	-4.82494E-3
-7.88306E-3	1.64613E-4	-5.30780E-3
-6.75638E-3	3.12286E-2	1.29129E-3
4.99321E-3	6.92136E-2	1.45224E-3
6.76370E-3	7.85489E-2	2.73987E-3
5.31512E-3	8.03193E-2	1.45224E-3
7.24656E-3	8.04803E-2	9.69380E-4
4.18845E-3	7.93536E-2	-4.79201E-4
2.09605E-3	7.90317E-2	3.22273E-3
5.47607E-3	7.80660E-2	3.54463E-3
3.86654E-3	7.91927E-2	2.73987E-3
3.06177E-3	7.82270E-2	1.61319E-3
5.31512E-3	7.80660E-2	3.22273E-3
5.95893E-3	7.80660E-2	2.73987E-3
8.08426E-4	7.74222E-2	1.64613E-4
4.51035E-3	7.74222E-2	2.41796E-3
3.86654E-3	7.74222E-2	4.51035E-3
5.15417E-3	7.77441E-2	3.70559E-3
5.79798E-3	7.75831E-2	3.06177E-3
4.83226E-3	7.79051E-2	2.25701E-3
6.28084E-3	7.74222E-2	3.54463E-3
3.86654E-3	7.67784E-2	1.93510E-3
5.47607E-3	7.66174E-2	3.38368E-3
5.95893E-3	7.72612E-2	2.90082E-3
6.60275E-3	7.74222E-2	3.86654E-3
4.67131E-3	7.72612E-2	1.93510E-3
3.22273E-3	4.41049E-2	-3.21541E-3
-7.88306E-3	9.01705E-3	-5.79066E-3
-9.49259E-3	2.41796E-3	-5.30780E-3
-9.65354E-3	9.69380E-4	-3.21541E-3
-5.62971E-3	9.69380E-4	-6.91734E-3
-9.81450E-3	4.86520E-4	-6.11257E-3
-1.09412E-2	4.86520E-4	-4.50304E-3
-1.04583E-2	3.65957E-6	-5.62971E-3
-8.20496E-3	1.64613E-4	-3.05445E-3
-8.84878E-3	-1.57294E-4	-5.30780E-3
-5.14685E-3	3.25566E-4	-3.85922E-3
-8.68782E-3	3.65957E-6	-4.66399E-3
-1.22288E-2	4.86520E-4	-4.50304E-3
-8.20496E-3	1.19142E-2	5.63703E-3
1.29129E-3	8.61137E-2	1.07875E-2
5.95893E-3	1.11383E-1	1.40066E-2
1.06266E-2	1.16856E-1	1.36847E-2
6.76370E-3	1.19109E-1	1.15923E-2
7.72942E-3	1.18465E-1	1.46504E-2
8.05133E-3	1.18948E-1	1.43285E-2
7.24656E-3	1.19431E-1	1.28799E-2
8.69514E-3	1.19592E-1	1.28799E-2
1.06266E-2	1.19431E-1	1.11094E-2
8.21228E-3	1.18787E-1	1.38456E-2
5.31512E-3	1.18304E-1	1.43285E-2
7.24656E-3	1.17982E-1	1.27190E-2
7.24656E-3	1.17339E-1	1.17533E-2
7.24656E-3	1.15729E-1	1.46504E-2
7.56847E-3	1.16856E-1	1.30409E-2
5.95893E-3	1.15407E-1	1.23971E-2
6.28084E-3	1.14924E-1	1.20752E-2
8.21228E-3	1.14924E-1	1.19142E-2
6.44179E-3	1.14120E-1	1.01437E-2
6.60275E-3	1.13637E-1	1.48114E-2
9.33896E-3	1.12832E-1	1.12704E-2
6.44179E-3	1.12188E-1	1.23971E-2
6.11989E-3	1.11705E-1	1.12704E-2
9.01705E-3	1.11061E-1	1.14313E-2
6.11989E-3	1.11383E-1	1.04656E-2
1.01437E-2	1.10900E-1	1.25580E-2
9.33896E-3	1.10257E-1	1.32018E-2
7.72942E-3	1.10096E-1	1.09485E-2
8.05133E-3	1.08647E-1	1.17533E-2
7.56847E-3	1.08808E-1	1.14313E-2
6.44179E-3	1.08003E-1	1.15923E-2
7.24656E-3	1.07681E-1	1.27190E-2
1.20752E-2	1.07842E-1	1.04656E-2
7.40751E-3	1.06716E-1	1.23971E-2
6.60275E-3	1.06233E-1	1.12704E-2
7.24656E-3	1.04945E-1	9.66086E-3
6.44179E-3	1.05267E-1	1.01437E-2
6.76370E-3	1.04462E-1	1.17533E-2
9.49991E-3	1.04462E-1	1.03047E-2
6.92465E-3	1.03819E-1	8.69514E-3
5.63703E-3	1.03336E-1	9.82182E-3
8.69514E-3	1.02209E-1	1.01437E-2
7.72942E-3	1.01726E-1	8.85609E-3
5.95893E-3	1.01243E-1	9.98277E-3
1.01437E-2	1.00921E-1	8.69514E-3
6.60275E-3	1.00760E-1	6.76370E-3
6.60275E-3	1.00278E-1	8.37323E-3
7.08561E-3	9.97947E-2	9.66086E-3
5.79798E-3	9.89899E-2	6.92465E-3
8.05133E-3	9.93118E-2	1.11094E-2
8.37323E-3	9.89899E-2	9.82182E-3
8.37323E-3	9.86680E-2	8.53419E-3
4.34940E-3	9.75413E-2	9.66086E-3
6.76370E-3	9.64147E-2	7.08561E-3
5.95893E-3	9.59318E-2	6.76370E-3
5.47607E-3	9.64147E-2	6.92465E-3
7.08561E-3	9.56099E-2	4.18845E-3
5.95893E-3	9.52880E-2	7.72942E-3
3.22273E-3	9.54489E-2	6.11989E-3
6.11989E-3	9.46442E-2	6.60275E-3
3.38368E-3	9.40004E-2	7.72942E-3
8.37323E-3	9.35175E-2	7.24656E-3
9.01705E-3	9.35175E-2	8.85609E-3
4.02749E-3	9.27127E-2	5.79798E-3
5.47607E-3	9.19080E-2	7.08561E-3
7.24656E-3	9.28737E-2	6.44179E-3
7.08561E-3	9.20689E-2	7.08561E-3
8.05133E-3	9.14251E-2	6.92465E-3
8.53419E-3	9.17470E-2	9.33896E-3
8.37323E-3	9.09423E-2	5.79798E-3
5.15417E-3	9.09423E-2	8.21228E-3
7.40751E-3	9.12642E-2	5.15417E-3
4.83226E-3	9.04594E-2	5.79798E-3
5.95893E-3	9.07813E-2	7.08561E-3
7.89037E-3	9.12642E-2	5.63703E-3
6.76370E-3	8.93327E-2	5.95893E-3
5.95893E-3	8.94937E-2	7.56847E-3
4.51035E-3	8.88499E-2	8.37323E-3
6.44179E-3	8.91718E-2	5.47607E-3
5.79798E-3	8.90108E-2	9.01705E-3
1.04656E-2	8.94937E-2	7.72942E-3
7.24656E-3	8.88499E-2	4.67131E-3
5.79798E-3	8.86889E-2	7.40751E-3
7.40751E-3	8.83670E-2	6.11989E-3
6.44179E-3	8.86889E-2	7.40751E-3
7.24656E-3	8.82061E-2	7.56847E-3
9.98277E-3	8.80451E-2	6.44179E-3
8.69514E-3	8.77232E-2	5.31512E-3
6.11989E-3	8.67575E-2	9.82182E-3
7.08561E-3	8.67575E-2	7.40751E-3
7.56847E-3	8.62746E-2	6.60275E-3
7.08561E-3	8.61137E-2	7.72942E-3
1.15923E-2	8.65965E-2	7.08561E-3
8.85609E-3	8.57918E-2	6.76370E-3
6.76370E-3	8.57918E-2	5.63703E-3
7.40751E-3	8.54699E-2	7.72942E-3
5.31512E-3	8.53089E-2	7.24656E-3
6.60275E-3	8.48260E-2	8.05133E-3
9.82182E-3	8.48260E-2	4.18845E-3
-4.82494E-3	2.23762E-2	-5.62971E-3
-1.14240E-2	5.31512E-3	-4.02018E-3
-8.84878E-3	1.45224E-3	-3.05445E-3
-1.11021E-2	1.13033E-3	-5.46876E-3
-8.20496E-3	1.61319E-3	-4.82494E-3
-5.79066E-3	6.47473E-4	-6.75638E-3
-8.52687E-3	1.13033E-3	-4.66399E-3
-1.14240E-2	1.29129E-3	-4.98590E-3
-8.52687E-3	1.64613E-4	-4.18113E-3
-8.68782E-3	4.86520E-4	-5.46876E-3
-6.43448E-3	3.25566E-4	-4.02018E-3
-6.75638E-3	4.86520E-4	-2.73255E-3
-7.72210E-3	6.47473E-4	-5.30780E-3
-9.33164E-3	4.86520E-4	-4.50304E-3
-7.40020E-3	3.25566E-4	-6.11257E-3
-1.06193E-2	-6.40154E-4	-4.34208E-3
-8.52687E-3	3.25566E-4	-3.85922E-3
-5.62971E-3	3.65957E-6	-5.14685E-3
-7.72210E-3	3.65957E-6	-5.95162E-3
-1.04583E-2	6.47473E-4	-5.79066E-3
-1.14240E-2	3.65957E-6	-5.46876E-3
-8.36592E-3	3.65957E-6	-6.59543E-3
-1.12631E-2	4.86520E-4	-5.95162E-3
-8.04401E-3	8.08426E-4	-7.56115E-3
-9.17068E-3	3.65957E-6	-6.27352E-3
-1.17459E-2	1.94790E-2	7.56847E-3
6.28084E-3	1.07842E-1	1.19142E-2
7.89037E-3	1.24421E-1	1.46504E-2
9.82182E-3	1.26513E-1	1.49723E-2
1.33628E-2	1.28283E-1	1.30409E-2
1.12704E-2	1.29249E-1	1.44895E-2
8.37323E-3	1.29571E-1	1.60990E-2
8.21228E-3	1.29732E-1	1.32018E-2
9.33896E-3	1.30215E-1	1.28799E-2
1.01437E-2	1.29732E-1	1.59380E-2
1.28799E-2	1.30859E-1	1.38456E-2
1.11094E-2	1.30698E-1	1.46504E-2
8.21228E-3	1.30698E-1	1.43285E-2
9.98277E-3	1.31341E-1	1.06266E-2
6.76370E-3	1.31502E-1	1.23971E-2
8.37323E-3	1.30859E-1	1.41676E-2
1.11094E-2	1.30859E-1	1.49723E-2
9.98277E-3	1.31502E-1	1.38456E-2
7.40751E-3	1.30698E-1	1.28799E-2
7.72942E-3	1.30698E-1	1.30409E-2
7.08561E-3	1.31181E-1	1.14313E-2
9.98277E-3	1.30698E-1	1.27190E-2
1.19142E-2	1.31181E-1	1.33628E-2
9.01705E-3	1.30859E-1	1.19142E-2
7.24656E-3	1.30859E-1	1.27190E-2
9.01705E-3	1.31020E-1	1.32018E-2
8.21228E-3	1.30215E-1	1.23971E-2
8.69514E-3	1.29571E-1	1.33628E-2
1.22361E-2	1.30215E-1	1.48114E-2
1.20752E-2	1.30859E-1	1.30409E-2
7.40751E-3	1.30054E-1	1.44895E-2
9.82182E-3	1.29732E-1	1.27190E-2
7.24656E-3	1.29088E-1	1.22361E-2
1.03047E-2	1.29571E-1	1.44895E-2
1.35237E-2	1.29732E-1	1.12704E-2
1.04656E-2	1.29732E-1	1.17533E-2
6.44179E-3	1.28766E-1	1.35237E-2
8.37323E-3	1.29088E-1	1.40066E-2
8.85609E-3	1.29088E-1	1.27190E-2
8.69514E-3	1.29893E-1	1.25580E-2
1.15923E-2	1.30537E-1	1.30409E-2
8.85609E-3	1.29732E-1	1.15923E-2
5.63703E-3	1.29088E-1	1.06266E-2
9.82182E-3	1.29088E-1	1.15923E-2
7.24656E-3	1.28927E-1	1.46504E-2
8.69514E-3	1.27961E-1	1.36847E-2
1.19142E-2	1.29088E-1	1.28799E-2
1.09485E-2	1.29088E-1	1.27190E-2
9.49991E-3	1.29088E-1	1.22361E-2
8.05133E-3	1.29249E-1	1.23971E-2
9.82182E-3	1.27479E-1	1.23971E-2
8.53419E-3	1.28122E-1	1.19142E-2
1.25580E-2	1.28122E-1	1.41676E-2
1.12704E-2	1.28766E-1	1.19142E-2
8.05133E-3	1.28444E-1	1.09485E-2
1.01437E-2	1.27961E-1	1.15923E-2
8.21228E-3	1.27479E-1	1.17533E-2
7.08561E-3	1.27318E-1	9.98277E-3
1.15923E-2	1.27961E-1	1.09485E-2
8.21228E-3	1.27801E-1	1.07875E-2
7.24656E-3	1.27640E-1	1.11094E-2
9.01705E-3	1.27961E-1	1.30409E-2
8.05133E-3	1.27640E-1	1.23971E-2
7.72942E-3	1.27157E-1	1.22361E-2
1.25580E-2	1.27318E-1	1.06266E-2
1.04656E-2	1.27961E-1	1.14313E-2
7.56847E-3	1.26996E-1	1.23971E-2
9.98277E-3	1.27801E-1	1.14313E-2
7.08561E-3	1.26835E-1	1.27190E-2
7.56847E-3	1.26674E-1	1.33628E-2
1.27190E-2	1.27157E-1	1.48114E-2
1.04656E-2	1.26996E-1	1.09485E-2
8.37323E-3	1.26996E-1	1.23971E-2
8.05133E-3	1.26030E-1	1.12704E-2
8.05133E-3	1.26674E-1	1.40066E-2
9.17800E-3	1.26996E-1	1.36847E-2
1.28799E-2	1.26835E-1	1.14313E-2
1.20752E-2	1.26513E-1	1.25580E-2
8.21228E-3	1.26191E-1	1.30409E-2
9.33896E-3	1.26513E-1	1.03047E-2
8.85609E-3	1.26030E-1	1.23971E-2
9.33896E-3	1.26513E-1	1.01437E-2
1.06266E-2	1.26191E-1	1.20752E-2
9.33896E-3	1.25225E-1	1.04656E-2
7.72942E-3	1.25064E-1	1.30409E-2
8.69514E-3	1.25225E-1	1.30409E-2
7.08561E-3	1.25547E-1	1.23971E-2
9.82182E-3	1.25225E-1	1.11094E-2
1.15923E-2	1.25225E-1	1.09485E-2
1.04656E-2	1.25225E-1	1.11094E-2
8.05133E-3	1.25064E-1	1.20752E-2
1.04656E-2	1.24421E-1	1.27190E-2
1.01437E-2	1.24260E-1	1.07875E-2
9.33896E-3	1.24099E-1	1.14313E-2
1.07875E-2	1.24099E-1	1.23971E-2
1.01437E-2	1.23777E-1	1.25580E-2
1.06266E-2	1.23616E-1	1.06266E-2
1.12704E-2	1.23777E-1	1.19142E-2
8.85609E-3	1.23294E-1	1.30409E-2
9.01705E-3	1.22811E-1	1.43285E-2
1.09485E-2	1.24260E-1	1.25580E-2
1.07875E-2	1.23294E-1	1.28799E-2
8.69514E-3	1.22650E-1	9.82182E-3
1.09485E-2	1.23294E-1	1.03047E-2
8.69514E-3	1.22972E-1	1.12704E-2
5.63703E-3	1.22328E-1	1.20752E-2
1.41676E-2	1.22972E-1	1.09485E-2
9.98277E-3	1.21684E-1	9.66086E-3
9.98277E-3	1.21523E-1	1.12704E-2
1.11094E-2	1.22006E-1	1.17533E-2
9.17800E-3	1.22811E-1	1.27190E-2
7.40751E-3	1.22328E-1	1.35237E-2
1.33628E-2	1.22328E-1	1.15923E-2
1.32018E-2	1.22167E-1	1.01437E-2
1.04656E-2	1.21845E-1	1.17533E-2
9.49991E-3	1.21362E-1	1.15923E-2
8.05133E-3	1.20880E-1	1.09485E-2
9.49991E-3	1.21040E-1	1.07875E-2
1.15923E-2	1.21684E-1	1.27190E-2
1.17533E-2	1.20880E-1	9.82182E-3
9.17800E-3	1.21362E-1	1.22361E-2
1.01437E-2	1.20558E-1	1.25580E-2
9.49991E-3	1.21201E-1	1.04656E-2
7.40751E-3	1.19431E-1	1.09485E-2
1.07875E-2	1.20719E-1	9.98277E-3
9.82182E-3	1.20719E-1	1.19142E-2
8.37323E-3	1.19753E-1	1.27190E-2
9.82182E-3	1.19109E-1	9.66086E-3
6.92465E-3	1.19431E-1	9.33896E-3
9.01705E-3	1.19431E-1	1.09485E-2
1.04656E-2	1.18787E-1	1.04656E-2
1.01437E-2	1.19431E-1	1.06266E-2
1.04656E-2	1.19753E-1	1.01437E-2
9.66086E-3	1.19914E-1	1.06266E-2
9.33896E-3	1.19592E-1	1.06266E-2
8.21228E-3	1.18143E-1	1.17533E-2
1.19142E-2	1.18626E-1	1.28799E-2
1.15923E-2	1.18465E-1	9.33896E-3
9.01705E-3	1.17660E-1	1.07875E-2
1.07875E-2	1.17178E-1	8.85609E-3
7.40751E-3	1.17339E-1	8.21228E-3
8.37323E-3	1.16695E-1	1.07875E-2
1.15923E-2	1.17500E-1	1.06266E-2
9.98277E-3	1.17982E-1	9.33896E-3
9.17800E-3	1.16856E-1	8.69514E-3
8.53419E-3	1.16373E-1	1.12704E-2
7.40751E-3	1.16212E-1	9.33896E-3
7.08561E-3	1.16051E-1	1.07875E-2
1.12704E-2	1.15729E-1	1.11094E-2
9.49991E-3	1.15407E-1	1.04656E-2
9.98277E-3	1.16051E-1	1.06266E-2
1.01437E-2	1.15729E-1	1.14313E-2
7.08561E-3	1.15568E-1	7.89037E-3
7.72942E-3	1.15246E-1	1.14313E-2
1.15923E-2	1.15407E-1	9.17800E-3
1.19142E-2	1.16373E-1	9.66086E-3
9.33896E-3	1.15407E-1	1.14313E-2
9.17800E-3	1.14120E-1	1.25580E-2
7.24656E-3	1.13959E-1	1.17533E-2
1.03047E-2	1.14120E-1	1.25580E-2
1.17533E-2	1.14602E-1	9.33896E-3
1.03047E-2	1.15729E-1	9.66086E-3
9.01705E-3	1.15246E-1	1.12704E-2
9.49991E-3	1.14763E-1	1.11094E-2
8.53419E-3	1.14120E-1	7.24656E-3
8.53419E-3	1.14280E-1	9.98277E-3
1.06266E-2	1.13315E-1	9.33896E-3
1.04656E-2	1.13315E-1	8.21228E-3
9.33896E-3	1.12510E-1	8.05133E-3
9.66086E-3	1.11866E-1	5.79798E-3
6.76370E-3	1.12027E-1	8.05133E-3
7.24656E-3	1.13154E-1	8.21228E-3
1.03047E-2	1.12993E-1	7.24656E-3
9.66086E-3	1.12027E-1	9.82182E-3
6.92465E-3	1.12027E-1	9.98277E-3
1.07875E-2	1.12349E-1	8.69514E-3
8.21228E-3	1.11866E-1	7.72942E-3
6.60275E-3	1.10096E-1	8.69514E-3
9.33896E-3	1.09774E-1	8.85609E-3
9.17800E-3	1.10257E-1	6.44179E-3
8.85609E-3	1.11222E-1	9.17800E-3
1.15923E-2	1.12027E-1	8.69514E-3
8.69514E-3	1.10418E-1	7.40751E-3
5.95893E-3	1.10257E-1	9.49991E-3
1.15923E-2	1.10579E-1	8.53419E-3
1.09485E-2	1.09452E-1	8.37323E-3
9.01705E-3	1.09452E-1	9.49991E-3
9.17800E-3	1.09130E-1	9.82182E-3
7.56847E-3	1.09452E-1	8.21228E-3
6.28084E-3	1.08808E-1	7.89037E-3
1.01437E-2	1.08969E-1	7.89037E-3
1.06266E-2	1.10257E-1	8.05133E-3
9.17800E-3	1.08969E-1	9.17800E-3
8.53419E-3	1.08486E-1	8.21228E-3
7.89037E-3	1.08003E-1	7.89037E-3
6.76370E-3	1.07520E-1	8.69514E-3
1.25580E-2	1.07038E-1	9.17800E-3
1.06266E-2	1.06716E-1	6.60275E-3
9.98277E-3	1.07199E-1	9.33896E-3
9.66086E-3	1.06233E-1	8.05133E-3
8.53419E-3	1.06555E-1	7.72942E-3
1.03047E-2	1.07842E-1	8.05133E-3
1.11094E-2	1.07199E-1	6.92465E-3
1.14313E-2	1.07359E-1	7.56847E-3
9.82182E-3	1.06233E-1	9.98277E-3
1.01437E-2	1.06233E-1	6.28084E-3
7.89037E-3	1.05911E-1	7.56847E-3
7.24656E-3	1.05428E-1	6.28084E-3
1.11094E-2	1.05428E-1	5.47607E-3
1.11094E-2	1.04784E-1	6.44179E-3
1.12704E-2	1.05750E-1	7.24656E-3
9.66086E-3	1.05750E-1	9.33896E-3
6.92465E-3	1.04945E-1	7.72942E-3
7.40751E-3	1.06072E-1	6.11989E-3
9.17800E-3	1.04784E-1	8.69514E-3
9.98277E-3	1.05267E-1	9.01705E-3
9.33896E-3	1.03979E-1	8.53419E-3
1.17533E-2	1.04140E-1	7.56847E-3
9.17800E-3	1.03658E-1	6.92465E-3
7.56847E-3	1.03014E-1	7.72942E-3
8.85609E-3	1.03819E-1	9.33896E-3
1.11094E-2	1.04301E-1	9.17800E-3
8.53419E-3	1.04945E-1	8.53419E-3
1.09485E-2	1.04140E-1	4.99321E-3
8.53419E-3	1.04140E-1	7.56847E-3
7.89037E-3	1.03497E-1	7.24656E-3
1.15923E-2	1.02853E-1	8.21228E-3
1.07875E-2	1.03497E-1	9.17800E-3
1.06266E-2	1.02692E-1	8.53419E-3
1.04656E-2	1.03336E-1	6.60275E-3
8.69514E-3	1.03014E-1	6.60275E-3
8.37323E-3	1.03497E-1	7.56847E-3
1.03047E-2	1.03175E-1	6.60275E-3
9.66086E-3	1.02692E-1	9.01705E-3
9.33896E-3	1.03175E-1	6.92465E-3
1.04656E-2	1.02531E-1	6.92465E-3
8.21228E-3	1.02209E-1	5.79798E-3
6.44179E-3	1.01243E-1	7.24656E-3
1.17533E-2	1.01404E-1	7.72942E-3
9.49991E-3	1.00599E-1	4.51035E-3
8.69514E-3	1.00921E-1	7.08561E-3
1.03047E-2	1.02531E-1	6.44179E-3
7.24656E-3	1.00921E-1	6.60275E-3
9.33896E-3	1.00760E-1	5.95893E-3
1.30409E-2	1.00278E-1	8.05133E-3
9.82182E-3	1.01243E-1	6.28084E-3
1.09485E-2	1.01243E-1	9.17800E-3
1.14313E-2	1.00760E-1	7.40751E-3
8.69514E-3	1.00760E-1	4.99321E-3
8.69514E-3	1.00117E-1	7.56847E-3
9.82182E-3	9.97947E-2	5.31512E-3
1.03047E-2	1.00921E-1	7.40751E-3
1.03047E-2	1.01243E-1	6.76370E-3
1.12704E-2	1.01243E-1	6.60275E-3
6.44179E-3	1.00599E-1	5.31512E-3
8.05133E-3	1.00278E-1	5.95893E-3
1.06266E-2	9.93118E-2	6.92465E-3
1.09485E-2	9.89899E-2	7.08561E-3
9.66086E-3	9.97947E-2	7.72942E-3
1.06266E-2	9.93118E-2	4.83226E-3
6.60275E-3	9.96337E-2	5.79798E-3
7.89037E-3	9.94728E-2	7.24656E-3
1.12704E-2	9.93118E-2	6.60275E-3
9.82182E-3	9.93118E-2	7.24656E-3
1.04656E-2	9.91509E-2	8.85609E-3
9.82182E-3	9.93118E-2	6.76370E-3
6.76370E-3	9.93118E-2	9.33896E-3
8.05133E-3	9.81852E-2	5.31512E-3
1.06266E-2	9.88290E-2	7.24656E-3
1.11094E-2	9.85071E-2	7.24656E-3
9.33896E-3	9.91509E-2	9.98277E-3
1.03047E-2	9.99556E-2	7.40751E-3
9.49991E-3	9.97947E-2	7.89037E-3
9.66086E-3	9.96337E-2	7.24656E-3
1.03047E-2	9.81852E-2	5.79798E-3
9.82182E-3	9.88290E-2	9.33896E-3
9.17800E-3	9.80242E-2	7.72942E-3
9.01705E-3	9.83461E-2	6.28084E-3
7.56847E-3	9.78632E-2	6.76370E-3
6.60275E-3	9.72194E-2	7.40751E-3
1.23971E-2	9.80242E-2	6.76370E-3
9.01705E-3	9.77023E-2	6.92465E-3
1.09485E-2	9.85071E-2	7.40751E-3
1.03047E-2	9.89899E-2	5.79798E-3
7.89037E-3	9.81852E-2	6.44179E-3
9.98277E-3	9.88290E-2	7.89037E-3
1.19142E-2	9.81852E-2	7.89037E-3
9.17800E-3	9.75413E-2	6.76370E-3
1.07875E-2	9.80242E-2	7.24656E-3
9.33896E-3	9.81852E-2	5.95893E-3
1.01437E-2	9.78632E-2	3.22273E-3
7.56847E-3	9.73804E-2	5.63703E-3
1.06266E-2	9.77023E-2	5.47607E-3
9.49991E-3	9.68975E-2	5.95893E-3
1.15923E-2	9.75413E-2	6.76370E-3
1.14313E-2	9.68975E-2	7.24656E-3
7.24656E-3	9.60928E-2	5.95893E-3
9.17800E-3	9.62537E-2	8.53419E-3
1.04656E-2	9.68975E-2	7.24656E-3
9.98277E-3	9.65756E-2	6.28084E-3
8.69514E-3	9.68975E-2	1.04656E-2
1.07875E-2	9.73804E-2	6.92465E-3
8.85609E-3	9.72194E-2	7.89037E-3
5.31512E-3	9.77023E-2	5.95893E-3
9.98277E-3	9.70585E-2	6.44179E-3
1.11094E-2	9.57709E-2	6.92465E-3
9.82182E-3	9.64147E-2	7.40751E-3
9.82182E-3	9.65756E-2	6.11989E-3
8.21228E-3	9.59318E-2	7.08561E-3
7.72942E-3	9.65756E-2	6.60275E-3
1.22361E-2	9.51270E-2	4.67131E-3
1.12704E-2	9.62537E-2	4.83226E-3
8.53419E-3	9.56099E-2	8.69514E-3
1.06266E-2	9.67366E-2	7.89037E-3
9.66086E-3	9.57709E-2	6.28084E-3
7.89037E-3	9.60928E-2	7.40751E-3
1.03047E-2	9.51270E-2	8.85609E-3
1.06266E-2	9.51270E-2	7.08561E-3
9.33896E-3	9.49661E-2	5.79798E-3
1.12704E-2	9.52880E-2	6.44179E-3
6.92465E-3	9.44832E-2	4.51035E-3
5.63703E-3	9.52880E-2	7.40751E-3
1.19142E-2	9.48051E-2	6.11989E-3
9.98277E-3	9.52880E-2	7.72942E-3
1.01437E-2	9.51270E-2	5.47607E-3
1.17533E-2	9.54489E-2	6.11989E-3
7.08561E-3	9.51270E-2	6.28084E-3
9.82182E-3	9.54489E-2	6.44179E-3
1.19142E-2	9.49661E-2	7.24656E-3
9.66086E-3	9.40004E-2	8.21228E-3
1.15923E-2	9.48051E-2	6.92465E-3
1.27190E-2	9.60928E-2	6.76370E-3
1.12704E-2	9.56099E-2	7.89037E-3
7.24656E-3	9.46442E-2	7.24656E-3
1.17533E-2	9.43223E-2	9.33896E-3
1.11094E-2	9.43223E-2	8.53419E-3
1.09485E-2	9.41613E-2	9.98277E-3
1.35237E-2	9.54489E-2	9.01705E-3
9.01705E-3	9.40004E-2	7.72942E-3
8.69514E-3	9.38394E-2	8.05133E-3
1.12704E-2	9.44832E-2	5.79798E-3
8.53419E-3	9.48051E-2	7.89037E-3
9.82182E-3	9.48051E-2	9.33896E-3
1.17533E-2	9.41613E-2	8.85609E-3
7.40751E-3	9.44832E-2	6.44179E-3
9.49991E-3	9.35175E-2	8.85609E-3
1.06266E-2	9.48051E-2	7.89037E-3
1.11094E-2	9.33566E-2	6.60275E-3
1.22361E-2	9.41613E-2	8.69514E-3
1.11094E-2	9.36785E-2	7.24656E-3
1.09485E-2	9.36785E-2	5.31512E-3
9.49991E-3	9.48051E-2	6.92465E-3
1.15923E-2	9.41613E-2	8.85609E-3
1.15923E-2	9.43223E-2	9.66086E-3
1.11094E-2	9.35175E-2	9.49991E-3
1.28799E-2	9.40004E-2	5.63703E-3
9.17800E-3	9.40004E-2	8.53419E-3
1.01437E-2	9.28737E-2	7.72942E-3
1.01437E-2	9.28737E-2	8.21228E-3
9.66086E-3	9.31956E-2	7.40751E-3
1.20752E-2	9.40004E-2	8.69514E-3
1.20752E-2	9.33566E-2	7.08561E-3
8.05133E-3	9.38394E-2	7.24656E-3
7.56847E-3	9.40004E-2	7.89037E-3
1.17533E-2	9.35175E-2	7.24656E-3
9.82182E-3	9.35175E-2	6.76370E-3
9.82182E-3	9.40004E-2	7.89037E-3
1.14313E-2	9.38394E-2	5.31512E-3
7.56847E-3	9.40004E-2	6.44179E-3
8.85609E-3	9.33566E-2	7.89037E-3
9.82182E-3	9.33566E-2	7.24656E-3
8.53419E-3	9.43223E-2	9.01705E-3
1.17533E-2	9.38394E-2	8.05133E-3
1.30409E-2	9.41613E-2	7.40751E-3
1.07875E-2	9.40004E-2	5.95893E-3
8.05133E-3	9.31956E-2	6.92465E-3
1.15923E-2	9.33566E-2	5.47607E-3
9.82182E-3	9.33566E-2	7.72942E-3
1.15923E-2	9.25518E-2	8.69514E-3
1.15923E-2	9.28737E-2	8.53419E-3
8.85609E-3	9.36785E-2	7.24656E-3
8.85609E-3	9.48051E-2	7.24656E-3
9.82182E-3	9.43223E-2	7.40751E-3
8.69514E-3	9.38394E-2	5.95893E-3
9.66086E-3	9.28737E-2	6.44179E-3
1.09485E-2	9.31956E-2	7.24656E-3
7.72942E-3	9.33566E-2	5.15417E-3
8.85609E-3	9.36785E-2	5.79798E-3
9.33896E-3	9.25518E-2	7.24656E-3
9.66086E-3	9.28737E-2	5.31512E-3
1.07875E-2	9.36785E-2	7.40751E-3
1.15923E-2	9.38394E-2	6.92465E-3
9.33896E-3	9.33566E-2	6.11989E-3
1.07875E-2	9.31956E-2	8.21228E-3
1.12704E-2	9.27127E-2	6.44179E-3
9.17800E-3	9.17470E-2	6.76370E-3
1.06266E-2	9.22299E-2	8.85609E-3
1.43285E-2	9.22299E-2	4.83226E-3
8.69514E-3	9.15861E-2	6.11989E-3
7.72942E-3	9.15861E-2	9.33896E-3
9.66086E-3	9.27127E-2	7.08561E-3
9.82182E-3	9.35175E-2	5.79798E-3
1.06266E-2	9.31956E-2	7.89037E-3
1.22361E-2	9.31956E-2	6.28084E-3
9.17800E-3	9.25518E-2	6.28084E-3
8.37323E-3	9.20689E-2	6.11989E-3
9.98277E-3	9.20689E-2	6.92465E-3
8.53419E-3	9.19080E-2	5.47607E-3
9.82182E-3	9.12642E-2	8.05133E-3
1.17533E-2	9.11032E-2	7.56847E-3
1.01437E-2	9.19080E-2	5.79798E-3
9.49991E-3	9.25518E-2	6.76370E-3
1.15923E-2	9.19080E-2	6.76370E-3
1.06266E-2	9.20689E-2	9.33896E-3
1.09485E-2	9.27127E-2	6.76370E-3
1.17533E-2	9.15861E-2	6.92465E-3
1.09485E-2	9.17470E-2	7.24656E-3
1.04656E-2	9.06204E-2	6.28084E-3
1.11094E-2	9.12642E-2	5.47607E-3
9.01705E-3	9.15861E-2	5.95893E-3
1.07875E-2	9.11032E-2	8.53419E-3
1.17533E-2	9.12642E-2	4.51035E-3
1.04656E-2	9.09423E-2	6.28084E-3
1.03047E-2	9.04594E-2	6.92465E-3
8.53419E-3	9.02984E-2	5.63703E-3
8.05133E-3	9.01375E-2	7.40751E-3
1.17533E-2	9.09423E-2	6.60275E-3
1.35237E-2	9.07813E-2	4.83226E-3
8.53419E-3	9.02984E-2	5.95893E-3
9.49991E-3	9.06204E-2	7.24656E-3
1.06266E-2	9.01375E-2	6.44179E-3
1.06266E-2	9.14251E-2	7.40751E-3
1.35237E-2	9.06204E-2	8.53419E-3
1.46504E-2	9.07813E-2	5.95893E-3
1.20752E-2	8.99765E-2	7.56847E-3
1.04656E-2	8.99765E-2	7.40751E-3
1.25580E-2	8.96546E-2	7.56847E-3
1.11094E-2	8.93327E-2	9.98277E-3
1.28799E-2	8.96546E-2	6.92465E-3
1.54552E-2	9.04594E-2	8.85609E-3
1.15923E-2	9.02984E-2	5.31512E-3
1.22361E-2	9.04594E-2	7.89037E-3
1.14313E-2	8.96546E-2	7.40751E-3
1.12704E-2	8.96546E-2	6.60275E-3
1.15923E-2	8.85280E-2	8.53419E-3
1.41676E-2	8.90108E-2	8.37323E-3
1.20752E-2	9.01375E-2	7.56847E-3
1.06266E-2	8.91718E-2	4.67131E-3
1.25580E-2	8.94937E-2	5.79798E-3
1.19142E-2	8.90108E-2	2.09605E-3
-5.14685E-3	2.31809E-2	-1.60587E-3
-7.07829E-3	5.47607E-3	-4.34208E-3
-8.20496E-3	2.25701E-3	-5.62971E-3
-9.33164E-3	1.29129E-3	-4.82494E-3
-1.01364E-2	1.45224E-3	-5.95162E-3
-1.15850E-2	3.25566E-4	-4.66399E-3
-8.36592E-3	6.47473E-4	-5.46876E-3
-6.11257E-3	1.13033E-3	-5.14685E-3
-9.00973E-3	1.64613E-4	-6.11257E-3
-1.11021E-2	8.08426E-4	-4.18113E-3
-9.49259E-3	6.47473E-4	-6.59543E-3
-1.04583E-2	3.65957E-6	-5.46876E-3
-1.06193E-2	-3.18247E-4	-4.98590E-3
-7.07829E-3	3.65957E-6	-5.95162E-3
-9.65354E-3	3.65957E-6	-5.79066E-3
-1.04583E-2	1.64613E-4	-6.59543E-3
-1.12631E-2	4.86520E-4	-6.11257E-3
-1.15850E-2	3.25566E-4	-6.91734E-3
-9.00973E-3	-1.57294E-4	-5.79066E-3
-7.40020E-3	1.64613E-4	-6.11257E-3
-1.06193E-2	1.64613E-4	-5.14685E-3
-1.04583E-2	3.25566E-4	-4.98590E-3
-6.75638E-3	8.08426E-4	-4.50304E-3
-9.17068E-3	6.47473E-4	-4.18113E-3
-8.36592E-3	8.08426E-4	-5.30780E-3
-6.11257E-3	3.25566E-4	-5.62971E-3
-8.20496E-3	4.86520E-4	-3.37636E-3
-7.40020E-3	6.47473E-4	-2.41064E-3
-7.40020E-3	1.64613E-4	-4.50304E-3
-9.49259E-3	-1.57294E-4	-3.05445E-3
-7.88306E-3	-1.57294E-4	-2.08873E-3
-7.07829E-3	3.25566E-4	-5.14685E-3
-7.72210E-3	3.25566E-4	-4.50304E-3
-8.68782E-3	3.25566E-4	-2.89350E-3
-6.91734E-3	-4.79201E-4	-6.11257E-3
-9.81450E-3	-8.01107E-4	-5.30780E-3
-9.17068E-3	3.65957E-6	-3.85922E-3
-8.20496E-3	-4.79201E-4	-5.14685E-3
-9.65354E-3	-1.57294E-4	-3.85922E-3
-9.97545E-3	3.25566E-4	-2.08873E-3
-9.00973E-3	3.25566E-4	-4.34208E-3
-1.17459E-2	1.64613E-4	-4.18113E-3
-9.97545E-3	3.25566E-4	-4.18113E-3
-5.95162E-3	8.08426E-4	-3.37636E-3
-6.11257E-3	4.86520E-4	-4.50304E-3
-1.02974E-2	4.86520E-4	-3.37636E-3
-8.52687E-3	1.29129E-3	-6.27352E-3
-8.68782E-3	4.86520E-4	-4.66399E-3
-7.56115E-3	3.25566E-4	-2.73255E-3
-5.46876E-3	9.69380E-4	-2.57159E-3
-8.36592E-3	6.47473E-4	-4.98590E-3
-8.52687E-3	3.25566E-4	-3.85922E-3
-8.84878E-3	1.64613E-4	-5.30780E-3
-1.11021E-2	-3.18247E-4	-4.50304E-3
-9.65354E-3	-4.79201E-4	-4.18113E-3
-6.91734E-3	4.86520E-4	-4.66399E-3
-9.81450E-3	9.69380E-4	-6.91734E-3
-1.14240E-2	-3.18247E-4	-5.62971E-3
-9.00973E-3	-6.40154E-4	-9.00973E-3
-1.14240E-2	-4.79201E-4	-4.02018E-3
-1.04583E-2	-6.40154E-4	-6.43448E-3
-6.75638E-3	-8.01107E-4	-6.11257E-3
-1.23898E-2	-6.40154E-4	-6.91734E-3
-1.02974E-2	-9.62061E-4	-6.11257E-3
-9.00973E-3	-3.18247E-4	-7.23924E-3
-1.06193E-2	3.65957E-6	-5.95162E-3
-9.17068E-3	3.65957E-6	-5.62971E-3
-7.88306E-3	1.64613E-4	-4.50304E-3
-7.88306E-3	1.64613E-4	-4.34208E-3
-9.65354E-3	-1.57294E-4	-3.53731E-3
-7.40020E-3	4.86520E-4	-6.11257E-3
-9.65354E-3	-1.57294E-4	-6.43448E-3
-1.01364E-2	-6.40154E-4	-5.46876E-3
-7.23924E-3	-3.18247E-4	-6.91734E-3
-7.23924E-3	-4.79201E-4	-4.66399E-3
-7.88306E-3	1.64613E-4	-3.85922E-3
-9.33164E-3	3.25566E-4	-5.14685E-3
-1.07802E-2	3.65957E-6	-6.11257E-3
-9.81450E-3	-9.62061E-4	-6.11257E-3
-8.52687E-3	3.25566E-4	-5.79066E-3
-9.81450E-3	-1.57294E-4	-7.72210E-3
-1.02974E-2	-6.40154E-4	-6.91734E-3
-1.01364E-2	-9.62061E-4	-6.43448E-3
-1.28726E-2	-1.12301E-3	-5.46876E-3
-1.27117E-2	-6.40154E-4	-5.79066E-3
-8.20496E-3	-6.40154E-4	-7.07829E-3
-8.68782E-3	3.65957E-6	-7.07829E-3
-1.01364E-2	1.64613E-4	-6.43448E-3
-9.97545E-3	-8.01107E-4	-7.88306E-3
-1.07802E-2	-1.44492E-3	-7.23924E-3
-1.20678E-2	-4.79201E-4	-4.34208E-3
-7.07829E-3	-3.18247E-4	-5.46876E-3
-9.17068E-3	1.64613E-4	-4.18113E-3
-9.49259E-3	-8.01107E-4	-6.43448E-3
-8.36592E-3	-1.57294E-4	-6.43448E-3
-1.14240E-2	3.65957E-6	-4.18113E-3
-1.04583E-2	-6.40154E-4	-4.66399E-3
-7.72210E-3	3.65957E-6	-3.53731E-3
-9.17068E-3	1.64613E-4	-4.82494E-3
-1.02974E-2	-1.57294E-4	-7.07829E-3
-9.00973E-3	6.47473E-4	-5.46876E-3
-1.11021E-2	1.64613E-4	-5.95162E-3
-1.02974E-2	1.64613E-4	-6.91734E-3
-8.20496E-3	6.47473E-4	-7.23924E-3
-9.33164E-3	-4.79201E-4	-5.30780E-3
-1.04583E-2	-1.57294E-4	-6.75638E-3
-8.20496E-3	6.47473E-4	-5.95162E-3
-1.07802E-2	-1.28397E-3	-6.11257E-3
-1.15850E-2	-3.18247E-4	-6.43448E-3
-7.07829E-3	-9.62061E-4	-5.62971E-3
-8.84878E-3	-4.79201E-4	-1.06193E-2
-7.72210E-3	-8.01107E-4	-4.18113E-3
-9.00973E-3	-1.12301E-3	-3.37636E-3
-1.23898E-2	-8.01107E-4	-4.34208E-3
-9.33164E-3	-8.01107E-4	-4.66399E-3
-7.72210E-3	-3.18247E-4	-4.66399E-3
-7.56115E-3	1.64613E-4	-5.62971E-3
-8.20496E-3	-8.01107E-4	-5.79066E-3
-9.17068E-3	3.65957E-6	-2.89350E-3
-8.84878E-3	4.86520E-4	-6.11257E-3
-9.33164E-3	3.65957E-6	-3.37636E-3
-8.84878E-3	1.64613E-4	-4.82494E-3
-7.40020E-3	3.25566E-4	-6.43448E-3
-7.72210E-3	3.25566E-4	-5.30780E-3
-7.72210E-3	3.25566E-4	-2.89350E-3
-1.15850E-2	1.64613E-4	-5.79066E-3
-1.06193E-2	3.65957E-6	-4.66399E-3
-8.04401E-3	-4.79201E-4	-5.46876E-3
-7.23924E-3	-8.01107E-4	-4.82494E-3
-8.68782E-3	8.08426E-4	-4.34208E-3
-7.40020E-3	3.25566E-4	-6.75638E-3
-9.81450E-3	3.65957E-6	-6.43448E-3
-1.02974E-2	-3.18247E-4	-5.46876E-3
-7.23924E-3	3.65957E-6	-4.98590E-3
-8.68782E-3	-4.79201E-4	-4.98590E-3
-8.20496E-3	-6.40154E-4	-4.50304E-3
-7.72210E-3	-4.79201E-4	-5.46876E-3
-1.02974E-2	3.65957E-6	-4.34208E-3
-9.97545E-3	-9.62061E-4	-4.34208E-3
-8.04401E-3	-1.57294E-4	-4.66399E-3
-8.36592E-3	-9.62061E-4	-3.85922E-3
-1.04583E-2	-4.79201E-4	-3.05445E-3
-6.75638E-3	3.65957E-6	-4.50304E-3
-8.52687E-3	6.47473E-4	-5.95162E-3
-9.17068E-3	3.65957E-6	-5.62971E-3
-6.59543E-3	3.65957E-6	-1.44492E-3
-8.36592E-3	-1.57294E-4	-3.05445E-3
-5.30780E-3	3.25566E-4	-6.27352E-3
-7.07829E-3	9.69380E-4	-3.85922E-3
-7.72210E-3	3.25566E-4	-1.12301E-3
-9.97545E-3	3.65957E-6	-1.60587E-3
-6.27352E-3	1.64613E-4	-3.85922E-3
-5.95162E-3	8.08426E-4	-2.89350E-3
-6.11257E-3	1.64613E-4	-4.02018E-3
-5.62971E-3	4.86520E-4	-3.05445E-3
-1.09412E-2	8.08426E-4	-2.89350E-3
-9.81450E-3	1.64613E-4	-3.05445E-3
-7.56115E-3	-3.18247E-4	-5.62971E-3
-7.88306E-3	-6.40154E-4	-5.14685E-3
-6.11257E-3	-1.57294E-4	-3.05445E-3
-8.84878E-3	-4.79201E-4	-4.02018E-3
-1.07802E-2	-3.18247E-4	-5.46876E-3
-1.02974E-2	-6.40154E-4	-3.21541E-3
-6.11257E-3	-6.40154E-4	-4.18113E-3
-7.40020E-3	3.25566E-4	-3.85922E-3
-8.68782E-3	1.64613E-4	-3.53731E-3
-7.72210E-3	6.47473E-4	-2.41064E-3
-1.02974E-2	-4.79201E-4	-4.18113E-3
-9.81450E-3	3.65957E-6	-4.34208E-3
-5.62971E-3	1.64613E-4	-3.53731E-3
-7.56115E-3	1.64613E-4	-3.69827E-3
-9.17068E-3	1.64613E-4	-3.53731E-3
-5.79066E-3	1.45224E-3	-4.50304E-3
-9.33164E-3	-1.57294E-4	-4.82494E-3
-9.65354E-3	9.69380E-4	-1.92778E-3
-5.79066E-3	3.25566E-4	-1.60587E-3
-6.59543E-3	4.86520E-4	-3.05445E-3
-5.79066E-3	6.47473E-4	-2.89350E-3
-5.79066E-3	6.47473E-4	-4.66399E-3
-8.52687E-3	-1.57294E-4	-3.69827E-3
-1.07802E-2	-6.40154E-4	-5.95162E-3
-7.07829E-3	-6.40154E-4	-3.53731E-3
-6.43448E-3	-1.57294E-4	-4.34208E-3
-8.52687E-3	-8.01107E-4	-5.46876E-3
-7.72210E-3	-1.57294E-4	-5.79066E-3
-9.49259E-3	-3.18247E-4	-6.11257E-3
-1.15850E-2	-8.01107E-4	-4.34208E-3
-8.84878E-3	-6.40154E-4	-2.73255E-3
-9.49259E-3	-4.79201E-4	-4.50304E-3
-7.72210E-3	3.25566E-4	-5.30780E-3
-7.07829E-3	-1.57294E-4	-4.18113E-3
-1.09412E-2	1.64613E-4	-4.02018E-3
-1.11021E-2	1.64613E-4	-4.50304E-3
-7.23924E-3	6.47473E-4	-2.24969E-3
-7.88306E-3	6.47473E-4	-4.98590E-3
-6.75638E-3	4.86520E-4	-4.82494E-3
-6.75638E-3	4.86520E-4	-4.34208E-3
-1.12631E-2	8.08426E-4	-5.14685E-3
-8.20496E-3	8.08426E-4	-5.46876E-3
-6.43448E-3	4.86520E-4	-5.62971E-3
-8.20496E-3	4.86520E-4	-4.34208E-3
-7.07829E-3	4.86520E-4	-3.85922E-3
-7.72210E-3	9.69380E-4	-5.79066E-3
-9.00973E-3	4.86520E-4	-4.98590E-3
-9.81450E-3	-4.79201E-4	-2.89350E-3
-7.40020E-3	1.64613E-4	-3.69827E-3
-8.84878E-3	1.64613E-4	-8.20496E-3
-8.20496E-3	-6.40154E-4	-4.82494E-3
-9.17068E-3	3.65957E-6	-4.82494E-3
-1.20678E-2	-3.18247E-4	-6.11257E-3
-1.06193E-2	-3.18247E-4	-5.62971E-3
-9.33164E-3	-3.18247E-4	-5.14685E-3
-7.40020E-3	3.25566E-4	-2.41064E-3
-8.52687E-3	-3.18247E-4	-3.53731E-3
-6.27352E-3	-4.79201E-4	-4.50304E-3
-8.84878E-3	-1.57294E-4	-4.66399E-3
-9.97545E-3	6.47473E-4	-2.89350E-3
-8.20496E-3	4.86520E-4	-2.24969E-3
-8.20496E-3	1.64613E-4	-3.53731E-3
-6.43448E-3	3.25566E-4	-2.89350E-3
-5.79066E-3	9.69380E-4	-4.34208E-3
-7.88306E-3	3.25566E-4	-4.34208E-3
-7.72210E-3	4.86520E-4	-2.41064E-3
-6.75638E-3	8.08426E-4	-6.43448E-3
-7.40020E-3	1.64613E-4	-1.92778E-3
-7.56115E-3	-1.57294E-4	1.64613E-4
-4.66399E-3	8.08426E-4	-2.73255E-3
-8.04401E-3	6.47473E-4	-3.85922E-3
-1.02974E-2	-4.79201E-4	-5.30780E-3
-1.01364E-2	-1.57294E-4	-4.34208E-3
-1.07802E-2	-3.18247E-4	-5.46876E-3
-9.81450E-3	-1.57294E-4	-7.40020E-3
-1.06193E-2	-4.79201E-4	-9.81450E-3
-1.52869E-2	-4.79201E-4	-8.68782E-3
-1.60917E-2	-3.18247E-4	-9.65354E-3
-1.25507E-2	-8.01107E-4	-1.07802E-2
-1.25507E-2	-1.76683E-3	-9.65354E-3
-1.20678E-2	-1.76683E-3	-9.97545E-3
-9.65354E-3	-1.44492E-3	-9.49259E-3
-1.43212E-2	-9.62061E-4	-8.20496E-3
-1.35164E-2	-1.28397E-3	-7.23924E-3
-1.11021E-2	-1.28397E-3	-8.20496E-3
-1.28726E-2	-1.28397E-3	-9.00973E-3
-1.04583E-2	-9.62061E-4	-9.65354E-3
-1.09412E-2	-8.01107E-4	-8.68782E-3
-1.44821E-2	-9.62061E-4	-9.00973E-3
-1.56088E-2	-1.28397E-3	-7.23924E-3
-1.07802E-2	-8.01107E-4	-6.43448E-3
-1.14240E-2	-1.12301E-3	-6.91734E-3
-1.14240E-2	-1.28397E-3	-8.36592E-3
-1.14240E-2	2.57891E-3	-6.59543E-3
1.38456E-2	4.82897E-2	-6.40154E-4
2.36638E-2	6.55117E-2	-8.01107E-4
2.47905E-2	7.01793E-2	-1.60587E-3
2.47905E-2	7.05012E-2	6.47473E-4
2.43076E-2	7.00183E-2	-8.01107E-4
2.43076E-2	7.06622E-2	-1.60587E-3
2.14105E-2	7.03403E-2	-2.08873E-3
2.01228E-2	7.01793E-2	-6.40154E-4
2.15714E-2	6.98574E-2	1.64613E-4
2.09276E-2	7.05012E-2	3.65957E-6
2.17324E-2	7.00183E-2	1.61319E-3
2.23762E-2	6.98574E-2	-8.01107E-4
1.86742E-2	6.98574E-2	-1.44492E-3
1.86742E-2	7.00183E-2	-3.53731E-3
1.94790E-2	7.08231E-2	-4.79201E-4
1.94790E-2	7.03403E-2	2.90082E-3
1.88352E-2	7.09841E-2	1.93510E-3
1.93181E-2	7.13060E-2	-9.62061E-4
1.73866E-2	7.08231E-2	3.65957E-6
1.65819E-2	7.05012E-2	1.77415E-3
1.52942E-2	7.03403E-2	1.45224E-3
1.75476E-2	7.16279E-2	2.09605E-3
1.67428E-2	7.14669E-2	1.77415E-3
1.80304E-2	7.21107E-2	1.29129E-3
1.51333E-2	7.11450E-2	3.25566E-4
1.33628E-2	7.08231E-2	2.25701E-3
1.40066E-2	7.06622E-2	9.69380E-4
1.54552E-2	7.05012E-2	2.90082E-3
1.54552E-2	7.03403E-2	1.77415E-3
1.59380E-2	7.00183E-2	-6.40154E-4
1.28799E-2	7.01793E-2	6.47473E-4
1.27190E-2	7.05012E-2	2.41796E-3
1.40066E-2	7.00183E-2	1.77415E-3
1.32018E-2	7.00183E-2	2.41796E-3
1.40066E-2	7.00183E-2	1.64613E-4
1.70647E-2	6.98574E-2	2.57891E-3
1.23971E-2	7.01793E-2	2.73987E-3
1.04656E-2	6.98574E-2	4.34940E-3
1.43285E-2	7.03403E-2	1.45224E-3
1.30409E-2	7.06622E-2	4.02749E-3
1.56161E-2	7.06622E-2	5.15417E-3
1.46504E-2	7.13060E-2	3.54463E-3
1.23971E-2	7.11450E-2	3.06177E-3
1.01437E-2	7.11450E-2	3.86654E-3
1.23971E-2	7.08231E-2	3.70559E-3
1.19142E-2	7.16279E-2	4.67131E-3
1.40066E-2	7.11450E-2	4.99321E-3
1.44895E-2	7.14669E-2	3.54463E-3
1.15923E-2	7.13060E-2	4.34940E-3
1.19142E-2	7.09841E-2	5.31512E-3
1.33628E-2	7.14669E-2	4.34940E-3
1.22361E-2	7.13060E-2	3.54463E-3
1.43285E-2	7.09841E-2	4.67131E-3
1.28799E-2	7.08231E-2	4.83226E-3
1.12704E-2	7.09841E-2	4.99321E-3
1.17533E-2	7.05012E-2	4.83226E-3
1.12704E-2	7.03403E-2	3.54463E-3
9.82182E-3	7.01793E-2	2.90082E-3
1.15923E-2	7.03403E-2	4.83226E-3
1.38456E-2	7.08231E-2	5.31512E-3
1.11094E-2	7.09841E-2	4.67131E-3
8.37323E-3	7.03403E-2	4.99321E-3
1.03047E-2	7.03403E-2	3.70559E-3
1.03047E-2	7.00183E-2	5.47607E-3
1.17533E-2	7.03403E-2	7.08561E-3
1.23971E-2	7.06622E-2	4.83226E-3
9.82182E-3	7.11450E-2	4.67131E-3
8.37323E-3	7.08231E-2	5.95893E-3
1.20752E-2	7.16279E-2	3.54463E-3
1.14313E-2	7.11450E-2	4.02749E-3
1.12704E-2	7.19498E-2	5.63703E-3
1.41676E-2	7.14669E-2	3.86654E-3
1.12704E-2	7.16279E-2	5.63703E-3
1.03047E-2	7.14669E-2	6.92465E-3
1.06266E-2	7.11450E-2	5.95893E-3
1.03047E-2	7.08231E-2	5.79798E-3
1.28799E-2	7.13060E-2	7.40751E-3
1.48114E-2	7.16279E-2	4.67131E-3
1.04656E-2	7.11450E-2	4.18845E-3
8.53419E-3	7.08231E-2	7.08561E-3
9.17800E-3	7.01793E-2	5.63703E-3
1.04656E-2	6.98574E-2	5.95893E-3
9.98277E-3	7.00183E-2	6.11989E-3
1.11094E-2	7.01793E-2	4.99321E-3
9.49991E-3	7.00183E-2	3.54463E-3
8.05133E-3	7.09841E-2	3.86654E-3
6.44179E-3	7.03403E-2	4.34940E-3
7.56847E-3	7.05012E-2	5.47607E-3
8.53419E-3	7.03403E-2	5.95893E-3
1.25580E-2	7.11450E-2	4.67131E-3
8.69514E-3	7.09841E-2	2.73987E-3
7.72942E-3	7.11450E-2	6.28084E-3
8.69514E-3	7.08231E-2	5.63703E-3
8.37323E-3	7.08231E-2	5.63703E-3
1.14313E-2	7.05012E-2	5.63703E-3
1.11094E-2	7.05012E-2	4.83226E-3
1.01437E-2	7.11450E-2	4.99321E-3
9.01705E-3	7.17888E-2	4.02749E-3
9.17800E-3	7.08231E-2	1.93510E-3
-1.92778E-3	1.83523E-2	-1.60587E-3
-5.62971E-3	4.99321E-3	-2.41064E-3
-3.21541E-3	2.09605E-3	-4.02018E-3
-8.68782E-3	1.93510E-3	-2.89350E-3
-9.17068E-3	1.13033E-3	-4.02018E-3
-9.49259E-3	1.29129E-3	-4.02018E-3
-9.17068E-3	9.69380E-4	-4.18113E-3
-7.72210E-3	9.69380E-4	-4.02018E-3
-5.95162E-3	1.29129E-3	-4.34208E-3
-9.97545E-3	-1.57294E-4	-3.85922E-3
-1.12631E-2	3.25566E-4	-6.11257E-3
-9.00973E-3	4.86520E-4	-6.11257E-3
-1.06193E-2	-1.57294E-4	-5.62971E-3
-5.14685E-3	2.92972E-2	-6.40154E-4
5.79798E-3	6.88917E-2	2.41796E-3
4.67131E-3	7.83879E-2	1.77415E-3
2.57891E-3	7.91927E-2	2.73987E-3
5.15417E-3	7.93536E-2	2.41796E-3
4.18845E-3	7.87098E-2	1.45224E-3
4.83226E-3	7.93536E-2	4.34940E-3
7.40751E-3	7.88708E-2	2.90082E-3
2.41796E-3	7.82270E-2	4.86520E-4
2.90082E-3	7.82270E-2	8.08426E-4
3.06177E-3	7.82270E-2	2.73987E-3
1.29129E-3	7.67784E-2	1.45224E-3
4.18845E-3	7.69393E-2	2.09605E-3
4.18845E-3	7.74222E-2	6.47473E-4
3.06177E-3	7.74222E-2	3.65957E-6
1.93510E-3	7.62955E-2	1.61319E-3
1.77415E-3	7.71003E-2	1.77415E-3
1.64613E-4	7.67784E-2	3.06177E-3
2.57891E-3	7.71003E-2	1.45224E-3
4.99321E-3	7.69393E-2	1.93510E-3
3.22273E-3	7.64565E-2	1.64613E-4
3.06177E-3	7.64565E-2	1.93510E-3
2.73987E-3	7.66174E-2	4.86520E-4
1.61319E-3	7.56517E-2	3.25566E-4
3.06177E-3	4.37830E-2	-4.18113E-3
-8.84878E-3	8.69514E-3	-6.43448E-3
-1.09412E-2	2.09605E-3	-6.27352E-3
-9.97545E-3	4.86520E-4	-4.50304E-3
-8.36592E-3	3.25566E-4	-6.27352E-3
-1.28726E-2	1.64613E-4	-5.30780E-3
-1.14240E-2	-4.79201E-4	-7.72210E-3
-7.40020E-3	3.65957E-6	-8.68782E-3
-1.02974E-2	3.25566E-4	-6.75638E-3
-1.31945E-2	-1.57294E-4	-6.11257E-3
-1.35164E-2	3.65957E-6	-7.72210E-3
-1.22288E-2	3.65957E-6	-6.91734E-3
-1.04583E-2	-1.57294E-4	-8.20496E-3
-9.00973E-3	8.08426E-4	-3.85922E-3
-2.24969E-3	3.70229E-2	-2.08873E-3
2.09605E-3	5.40840E-2	-1.28397E-3
6.11989E-3	5.89126E-2	-3.18247E-4
4.34940E-3	6.06831E-2	1.29129E-3
4.18845E-3	6.21316E-2	8.08426E-4
8.37323E-3	6.26145E-2	3.25566E-4
5.31512E-3	6.39021E-2	6.47473E-4
3.06177E-3	6.40631E-2	-1.12301E-3
3.86654E-3	6.53507E-2	9.69380E-4
4.18845E-3	6.51897E-2	9.69380E-4
6.76370E-3	6.51897E-2	4.86520E-4
9.98277E-3	6.59945E-2	6.47473E-4
4.67131E-3	6.66383E-2	-1.60587E-3
4.67131E-3	6.61555E-2	2.41796E-3
6.28084E-3	6.63164E-2	-1.12301E-3
5.79798E-3	6.71212E-2	3.65957E-6
6.60275E-3	6.66383E-2	3.25566E-4
8.37323E-3	6.74431E-2	8.08426E-4
4.67131E-3	6.71212E-2	3.25566E-4
4.34940E-3	6.79260E-2	1.64613E-4
4.99321E-3	6.77650E-2	1.93510E-3
4.02749E-3	6.79260E-2	4.86520E-4
4.51035E-3	6.79260E-2	2.09605E-3
6.44179E-3	6.84088E-2	3.25566E-4
3.54463E-3	6.87307E-2	1.29129E-3
4.99321E-3	6.72821E-2	1.29129E-3
6.28084E-3	6.80869E-2	1.13033E-3
3.54463E-3	6.82479E-2	-9.62061E-4
5.63703E-3	6.79260E-2	-3.18247E-4
6.60275E-3	6.88917E-2	1.64613E-4
5.31512E-3	6.82479E-2	2.41796E-3
4.18845E-3	6.82479E-2	-6.40154E-4
4.67131E-3	6.79260E-2	4.86520E-4
2.73987E-3	6.82479E-2	2.73987E-3
6.11989E-3	6.76040E-2	8.08426E-4
7.72942E-3	6.80869E-2	3.25566E-4
4.67131E-3	6.85698E-2	1.29129E-3
3.86654E-3	6.79260E-2	3.54463E-3
6.76370E-3	6.84088E-2	1.45224E-3
5.31512E-3	6.80869E-2	2.90082E-3
4.83226E-3	6.82479E-2	2.57891E-3
7.89037E-3	6.95355E-2	1.29129E-3
6.11989E-3	6.92136E-2	2.73987E-3
2.41796E-3	6.95355E-2	3.54463E-3
5.95893E-3	6.95355E-2	1.29129E-3
4.51035E-3	6.90526E-2	2.41796E-3
6.11989E-3	6.84088E-2	3.54463E-3
8.21228E-3	6.98574E-2	2.57891E-3
5.79798E-3	6.93745E-2	1.45224E-3
6.11989E-3	6.95355E-2	2.90082E-3
6.44179E-3	6.96964E-2	2.90082E-3
5.95893E-3	6.93745E-2	4.51035E-3
7.72942E-3	6.90526E-2	2.41796E-3
1.01437E-2	6.98574E-2	2.57891E-3
5.63703E-3	6.96964E-2	2.41796E-3
5.79798E-3	6.90526E-2	2.25701E-3
7.08561E-3	6.92136E-2	9.69380E-4
6.44179E-3	6.88917E-2	3.38368E-3
5.95893E-3	6.90526E-2	2.09605E-3
8.37323E-3	6.92136E-2	3.54463E-3
5.47607E-3	6.90526E-2	4.67131E-3
5.47607E-3	6.87307E-2	2.09605E-3
5.15417E-3	6.88917E-2	-1.57294E-4
4.51035E-3	6.92136E-2	3.86654E-3
7.24656E-3	6.93745E-2	2.25701E-3
9.98277E-3	6.90526E-2	1.61319E-3
5.31512E-3	6.96964E-2	3.06177E-3
6.11989E-3	7.00183E-2	3.70559E-3
5.63703E-3	6.98574E-2	2.90082E-3
6.28084E-3	7.05012E-2	1.61319E-3
8.53419E-3	7.01793E-2	4.34940E-3
9.17800E-3	6.98574E-2	2.90082E-3
6.11989E-3	7.09841E-2	3.86654E-3
6.44179E-3	6.96964E-2	3.86654E-3
8.53419E-3	6.98574E-2	4.34940E-3
5.47607E-3	7.00183E-2	3.86654E-3
6.60275E-3	7.03403E-2	5.31512E-3
1.04656E-2	7.06622E-2	2.09605E-3
7.40751E-3	6.96964E-2	3.06177E-3
5.47607E-3	6.95355E-2	4.67131E-3
6.60275E-3	6.92136E-2	6.47473E-4
5.31512E-3	6.88917E-2	6.47473E-4
6.60275E-3	6.95355E-2	3.22273E-3
9.66086E-3	6.95355E-2	2.41796E-3
4.34940E-3	6.92136E-2	1.45224E-3
5.47607E-3	6.90526E-2	3.22273E-3
7.56847E-3	6.92136E-2	2.09605E-3
6.60275E-3	6.93745E-2	3.86654E-3
4.99321E-3	6.98574E-2	3.70559E-3
8.37323E-3	6.92136E-2	3.86654E-3
7.72942E-3	7.06622E-2	3.38368E-3
5.79798E-3	7.06622E-2	2.73987E-3
6.92465E-3	7.06622E-2	2.73987E-3
6.28084E-3	7.05012E-2	4.83226E-3
8.53419E-3	7.01793E-2	5.15417E-3
1.03047E-2	7.05012E-2	4.02749E-3
7.40751E-3	7.11450E-2	4.18845E-3
7.40751E-3	7.09841E-2	3.86654E-3
8.05133E-3	7.08231E-2	6.47473E-4
3.38368E-3	1.73866E-2	-2.08873E-3
-6.11257E-3	2.90082E-3	-2.89350E-3
-4.18113E-3	3.06177E-3	-1.44492E-3
-6.27352E-3	2.09605E-3	-3.37636E-3
-8.84878E-3	1.29129E-3	-1.92778E-3
-7.56115E-3	9.69380E-4	-2.89350E-3
-9.65354E-3	4.86520E-4	1.64613E-4
-6.59543E-3	9.69380E-4	-2.73255E-3
-4.82494E-3	9.69380E-4	-4.82494E-3
-7.88306E-3	1.13033E-3	-4.02018E-3
-9.17068E-3	1.13033E-3	-2.89350E-3
-8.68782E-3	6.47473E-4	-3.85922E-3
-8.52687E-3	4.86520E-4	-3.69827E-3
-8.68782E-3	1.64613E-4	-3.37636E-3
-6.91734E-3	3.65957E-6	-3.37636E-3
-7.40020E-3	3.65957E-6	-2.57159E-3
-9.00973E-3	4.86520E-4	-2.24969E-3
-8.36592E-3	3.25566E-4	-3.69827E-3
-1.06193E-2	1.64613E-4	-3.37636E-3
