#Iteration	Date	Time	STSX	STSY	RotationRateX	RotationRateY	FrCntX	FrCntY	TiptiltCmd1	TiptiltCmd2	TiptiltMonitor1	TiptiltMonitor2
1	17/03/2023	15:48:42.422	0.00000E+0	0.00000E+0	-9.88135E+1	-1.96490E+0	0.00000E+0	0.00000E+0	1.98441E+1	1.50646E+1	1.98477E+1	1.50647E+1
2	17/03/2023	15:48:43.915	0.00000E+0	0.00000E+0	4.54312E+1	5.52226E-1	0.00000E+0	0.00000E+0	2.18589E+1	1.30955E+1	2.18578E+1	1.30940E+1
3	17/03/2023	15:48:45.433	0.00000E+0	0.00000E+0	1.13381E+2	-5.38300E-2	0.00000E+0	0.00000E+0	2.28656E+1	1.21134E+1	2.28654E+1	1.21120E+1
4	17/03/2023	15:48:46.902	0.00000E+0	0.00000E+0	-8.58858E+1	-1.39730E+0	0.00000E+0	0.00000E+0	2.01134E+1	1.48405E+1	2.01140E+1	1.48427E+1
5	17/03/2023	15:48:48.374	0.00000E+0	0.00000E+0	-8.83763E+1	3.94170E-1	0.00000E+0	0.00000E+0	1.96536E+1	1.52805E+1	1.96537E+1	1.52805E+1
6	17/03/2023	15:48:49.856	0.00000E+0	0.00000E+0	1.72781E+2	-2.06788E+0	0.00000E+0	0.00000E+0	2.37419E+1	1.12422E+1	2.37428E+1	1.12421E+1
7	17/03/2023	15:48:51.372	0.00000E+0	0.00000E+0	-1.55772E+2	-1.86224E+0	0.00000E+0	0.00000E+0	1.89864E+1	1.58930E+1	1.89874E+1	1.58915E+1
8	17/03/2023	15:48:52.854	0.00000E+0	0.00000E+0	-8.58554E+1	1.13257E-1	0.00000E+0	0.00000E+0	1.99328E+1	1.49471E+1	1.99318E+1	1.49486E+1
9	17/03/2023	15:48:54.311	0.00000E+0	0.00000E+0	1.31128E+2	1.66427E+0	0.00000E+0	0.00000E+0	2.30947E+1	1.19201E+1	2.30971E+1	1.19207E+1
10	17/03/2023	15:48:55.802	0.00000E+0	0.00000E+0	1.45124E+2	-7.89316E-1	0.00000E+0	0.00000E+0	2.33396E+1	1.16033E+1	2.33393E+1	1.16041E+1
11	17/03/2023	15:48:57.283	0.00000E+0	0.00000E+0	-1.43023E+2	-1.06002E+0	0.00000E+0	0.00000E+0	1.91888E+1	1.57358E+1	1.91884E+1	1.57368E+1
12	17/03/2023	15:48:58.772	0.00000E+0	0.00000E+0	-1.25540E+2	-1.37503E+0	0.00000E+0	0.00000E+0	1.95017E+1	1.54728E+1	1.95031E+1	1.54729E+1
13	17/03/2023	15:49:00.228	0.00000E+0	0.00000E+0	1.28627E+2	1.92018E+0	0.00000E+0	0.00000E+0	2.30822E+1	1.18843E+1	2.30785E+1	1.18840E+1
14	17/03/2023	15:49:01.712	0.00000E+0	0.00000E+0	1.24149E+2	-6.27572E-1	0.00000E+0	0.00000E+0	2.30934E+1	1.19402E+1	2.30930E+1	1.19397E+1
15	17/03/2023	15:49:03.205	0.00000E+0	0.00000E+0	-1.27004E+2	2.07101E+0	0.00000E+0	0.00000E+0	1.94827E+1	1.54351E+1	1.94820E+1	1.54351E+1
16	17/03/2023	15:49:04.674	0.00000E+0	0.00000E+0	-1.36817E+2	-8.14714E-1	0.00000E+0	0.00000E+0	1.93253E+1	1.55732E+1	1.93260E+1	1.55707E+1
17	17/03/2023	15:49:06.160	0.00000E+0	0.00000E+0	1.55601E+2	1.21247E+0	0.00000E+0	0.00000E+0	2.34438E+1	1.15453E+1	2.34440E+1	1.15441E+1
18	17/03/2023	15:49:07.631	0.00000E+0	0.00000E+0	1.77431E+2	-9.22290E-1	0.00000E+0	0.00000E+0	2.37880E+1	1.12193E+1	2.37903E+1	1.12190E+1
19	17/03/2023	15:49:09.143	0.00000E+0	0.00000E+0	-1.46471E+2	-8.24856E-1	0.00000E+0	0.00000E+0	1.91747E+1	1.57847E+1	1.91727E+1	1.57853E+1
20	17/03/2023	15:49:10.618	0.00000E+0	0.00000E+0	-1.36493E+2	-1.03252E+0	0.00000E+0	0.00000E+0	1.92518E+1	1.56448E+1	1.92534E+1	1.56438E+1
21	17/03/2023	15:49:12.118	0.00000E+0	0.00000E+0	1.56632E+2	1.42891E+0	0.00000E+0	0.00000E+0	2.35131E+1	1.14775E+1	2.35138E+1	1.14776E+1
22	17/03/2023	15:49:13.609	0.00000E+0	0.00000E+0	1.33294E+2	1.87249E+0	0.00000E+0	0.00000E+0	2.32060E+1	1.17887E+1	2.32065E+1	1.17891E+1
23	17/03/2023	15:49:15.107	0.00000E+0	0.00000E+0	-1.28639E+2	1.38624E-1	0.00000E+0	0.00000E+0	1.94636E+1	1.54992E+1	1.94662E+1	1.54989E+1
24	17/03/2023	15:49:16.605	0.00000E+0	0.00000E+0	-1.23169E+2	-2.27683E+0	0.00000E+0	0.00000E+0	1.94646E+1	1.54709E+1	1.94628E+1	1.54716E+1
25	17/03/2023	15:49:18.066	0.00000E+0	0.00000E+0	1.56979E+2	9.84644E-2	0.00000E+0	0.00000E+0	2.35509E+1	1.14442E+1	2.35499E+1	1.14464E+1
26	17/03/2023	15:49:19.584	0.00000E+0	0.00000E+0	6.57863E+0	4.50900E-1	0.00000E+0	0.00000E+0	2.17243E+1	1.32731E+1	2.17223E+1	1.32742E+1
27	17/03/2023	15:49:21.066	0.00000E+0	0.00000E+0	-1.46309E+2	-2.29602E+0	0.00000E+0	0.00000E+0	1.92022E+1	1.57640E+1	1.92019E+1	1.57654E+1
28	17/03/2023	15:49:22.553	0.00000E+0	0.00000E+0	1.05329E+2	1.87697E+0	0.00000E+0	0.00000E+0	2.26075E+1	1.23744E+1	2.26117E+1	1.23753E+1
29	17/03/2023	15:49:24.023	0.00000E+0	0.00000E+0	1.64991E+2	-1.18551E-2	0.00000E+0	0.00000E+0	2.35713E+1	1.13895E+1	2.35726E+1	1.13915E+1
30	17/03/2023	15:49:25.487	0.00000E+0	0.00000E+0	-1.40920E+2	4.11005E-1	0.00000E+0	0.00000E+0	1.92570E+1	1.56696E+1	1.92563E+1	1.56703E+1
31	17/03/2023	15:49:26.990	0.00000E+0	0.00000E+0	-1.35396E+2	-1.32675E+0	0.00000E+0	0.00000E+0	1.92875E+1	1.56365E+1	1.92873E+1	1.56362E+1
32	17/03/2023	15:49:28.462	0.00000E+0	0.00000E+0	1.68537E+2	1.81932E+0	0.00000E+0	0.00000E+0	2.36301E+1	1.13657E+1	2.36302E+1	1.13647E+1
33	17/03/2023	15:49:29.949	0.00000E+0	0.00000E+0	1.39912E+2	2.11244E+0	0.00000E+0	0.00000E+0	2.33363E+1	1.16648E+1	2.33377E+1	1.16644E+1
34	17/03/2023	15:49:31.474	0.00000E+0	0.00000E+0	-1.62436E+2	1.04789E+0	0.00000E+0	0.00000E+0	1.89652E+1	1.59577E+1	1.89647E+1	1.59573E+1
35	17/03/2023	15:49:32.971	0.00000E+0	0.00000E+0	-1.67074E+1	-1.32234E+0	0.00000E+0	0.00000E+0	2.05560E+1	1.43775E+1	2.05555E+1	1.43752E+1
36	17/03/2023	15:49:34.417	0.00000E+0	0.00000E+0	1.42898E+2	5.00949E-1	0.00000E+0	0.00000E+0	2.32498E+1	1.16917E+1	2.32507E+1	1.16932E+1
37	17/03/2023	15:49:35.925	0.00000E+0	0.00000E+0	-9.99539E+1	-8.87701E-1	0.00000E+0	0.00000E+0	2.00211E+1	1.48994E+1	2.00212E+1	1.49006E+1
38	17/03/2023	15:49:37.380	0.00000E+0	0.00000E+0	-1.31746E+2	-1.94984E+0	0.00000E+0	0.00000E+0	1.92980E+1	1.55653E+1	1.92985E+1	1.55659E+1
39	17/03/2023	15:49:38.901	0.00000E+0	0.00000E+0	1.35890E+2	1.52316E+0	0.00000E+0	0.00000E+0	2.29746E+1	1.19740E+1	2.29735E+1	1.19744E+1
40	17/03/2023	15:49:40.396	0.00000E+0	0.00000E+0	1.32056E+2	9.43061E-1	0.00000E+0	0.00000E+0	2.31528E+1	1.18395E+1	2.31550E+1	1.18383E+1
41	17/03/2023	15:49:42.013	0.00000E+0	0.00000E+0	-1.49205E+2	-2.21144E+0	0.00000E+0	0.00000E+0	1.90958E+1	1.58337E+1	1.90950E+1	1.58350E+1
42	17/03/2023	15:49:43.493	0.00000E+0	0.00000E+0	-1.28735E+2	-1.10814E+0	0.00000E+0	0.00000E+0	1.94162E+1	1.55323E+1	1.94183E+1	1.55335E+1
43	17/03/2023	15:49:44.944	0.00000E+0	0.00000E+0	1.40777E+2	2.72675E+0	0.00000E+0	0.00000E+0	2.32780E+1	1.17481E+1	2.32751E+1	1.17480E+1
44	17/03/2023	15:49:46.423	0.00000E+0	0.00000E+0	9.98650E+1	8.76007E-1	0.00000E+0	0.00000E+0	2.26760E+1	1.22530E+1	2.26777E+1	1.22517E+1
45	17/03/2023	15:49:47.916	0.00000E+0	0.00000E+0	-1.40912E+2	-3.10089E-1	0.00000E+0	0.00000E+0	1.91893E+1	1.56879E+1	1.91903E+1	1.56874E+1
46	17/03/2023	15:49:49.405	0.00000E+0	0.00000E+0	5.97591E+1	4.41815E-1	0.00000E+0	0.00000E+0	2.18890E+1	1.30692E+1	2.18899E+1	1.30682E+1
47	17/03/2023	15:49:50.871	0.00000E+0	0.00000E+0	1.50947E+2	3.10256E+0	0.00000E+0	0.00000E+0	2.33766E+1	1.16089E+1	2.33778E+1	1.16094E+1
48	17/03/2023	15:49:52.362	0.00000E+0	0.00000E+0	-1.45369E+2	-1.82432E+0	0.00000E+0	0.00000E+0	1.93740E+1	1.54981E+1	1.93728E+1	1.54985E+1
49	17/03/2023	15:49:53.866	0.00000E+0	0.00000E+0	-1.37821E+2	-7.60822E-1	0.00000E+0	0.00000E+0	1.92854E+1	1.56118E+1	1.92816E+1	1.56116E+1
50	17/03/2023	15:49:55.402	0.00000E+0	0.00000E+0	1.66152E+2	1.94308E+0	0.00000E+0	0.00000E+0	2.35996E+1	1.14334E+1	2.35961E+1	1.14334E+1
51	17/03/2023	15:49:56.878	0.00000E+0	0.00000E+0	1.51814E+2	-4.02478E+0	0.00000E+0	0.00000E+0	2.34708E+1	1.15216E+1	2.34722E+1	1.15217E+1
52	17/03/2023	15:49:58.337	0.00000E+0	0.00000E+0	-1.37562E+2	-2.36514E-1	0.00000E+0	0.00000E+0	1.93109E+1	1.55977E+1	1.93109E+1	1.55994E+1
53	17/03/2023	15:49:59.790	0.00000E+0	0.00000E+0	-8.77510E+1	-2.92908E-1	0.00000E+0	0.00000E+0	1.97961E+1	1.51747E+1	1.97948E+1	1.51750E+1
54	17/03/2023	15:50:01.253	0.00000E+0	0.00000E+0	1.70436E+2	-6.01364E-1	0.00000E+0	0.00000E+0	2.36803E+1	1.12607E+1	2.36821E+1	1.12606E+1
55	17/03/2023	15:50:02.716	0.00000E+0	0.00000E+0	-1.54158E+2	1.16016E+0	0.00000E+0	0.00000E+0	1.90840E+1	1.58240E+1	1.90855E+1	1.58254E+1
56	17/03/2023	15:50:04.217	0.00000E+0	0.00000E+0	-1.58720E+2	-3.10096E+0	0.00000E+0	0.00000E+0	1.90746E+1	1.59674E+1	1.90741E+1	1.59688E+1
57	17/03/2023	15:50:05.697	0.00000E+0	0.00000E+0	1.50440E+2	4.00075E+0	0.00000E+0	0.00000E+0	2.33701E+1	1.15954E+1	2.33700E+1	1.15976E+1
58	17/03/2023	15:50:07.157	0.00000E+0	0.00000E+0	1.55798E+2	1.18689E+0	0.00000E+0	0.00000E+0	2.34927E+1	1.14702E+1	2.34945E+1	1.14697E+1
59	17/03/2023	15:50:08.667	0.00000E+0	0.00000E+0	-1.51762E+2	-1.84105E+0	0.00000E+0	0.00000E+0	1.90792E+1	1.58338E+1	1.90794E+1	1.58363E+1
60	17/03/2023	15:50:10.161	0.00000E+0	0.00000E+0	-9.79320E+1	-2.31677E-1	0.00000E+0	0.00000E+0	1.97809E+1	1.51397E+1	1.97801E+1	1.51429E+1
61	17/03/2023	15:50:11.637	0.00000E+0	0.00000E+0	1.41152E+2	1.18319E+0	0.00000E+0	0.00000E+0	2.32352E+1	1.17599E+1	2.32367E+1	1.17606E+1
62	17/03/2023	15:50:13.123	0.00000E+0	0.00000E+0	-7.74548E+1	-1.39060E+0	0.00000E+0	0.00000E+0	2.05248E+1	1.44082E+1	2.05262E+1	1.44101E+1
63	17/03/2023	15:50:14.607	0.00000E+0	0.00000E+0	-1.38021E+2	-1.32629E+0	0.00000E+0	0.00000E+0	1.92970E+1	1.56076E+1	1.92966E+1	1.56068E+1
64	17/03/2023	15:50:16.087	0.00000E+0	0.00000E+0	1.25341E+2	-6.21384E-1	0.00000E+0	0.00000E+0	2.28831E+1	1.20957E+1	2.28847E+1	1.20966E+1
65	17/03/2023	15:50:17.596	0.00000E+0	0.00000E+0	1.48035E+2	2.08872E+0	0.00000E+0	0.00000E+0	2.33215E+1	1.16321E+1	2.33184E+1	1.16313E+1
66	17/03/2023	15:50:19.062	0.00000E+0	0.00000E+0	-1.97876E+2	-2.91481E+0	0.00000E+0	0.00000E+0	1.84695E+1	1.64365E+1	1.84678E+1	1.64353E+1
67	17/03/2023	15:50:20.559	0.00000E+0	0.00000E+0	-1.18739E+1	-4.97773E-1	0.00000E+0	0.00000E+0	2.07470E+1	1.41809E+1	2.07488E+1	1.41834E+1
68	17/03/2023	15:50:22.033	0.00000E+0	0.00000E+0	1.73470E+2	1.28053E+0	0.00000E+0	0.00000E+0	2.37375E+1	1.12401E+1	2.37364E+1	1.12394E+1
69	17/03/2023	15:50:23.512	0.00000E+0	0.00000E+0	-1.78591E+2	-9.53799E-1	0.00000E+0	0.00000E+0	1.87175E+1	1.61575E+1	1.87183E+1	1.61580E+1
70	17/03/2023	15:50:25.033	0.00000E+0	0.00000E+0	-1.37662E+2	-1.59382E+0	0.00000E+0	0.00000E+0	1.91392E+1	1.57679E+1	1.91383E+1	1.57672E+1
71	17/03/2023	15:50:26.522	0.00000E+0	0.00000E+0	1.73918E+2	1.59027E+0	0.00000E+0	0.00000E+0	2.36427E+1	1.13511E+1	2.36415E+1	1.13524E+1
72	17/03/2023	15:50:28.005	0.00000E+0	0.00000E+0	1.73593E+2	1.78579E+0	0.00000E+0	0.00000E+0	2.37782E+1	1.11998E+1	2.37787E+1	1.12002E+1
73	17/03/2023	15:50:29.464	0.00000E+0	0.00000E+0	-1.42611E+2	1.05179E+0	0.00000E+0	0.00000E+0	1.92627E+1	1.57047E+1	1.92616E+1	1.57052E+1
74	17/03/2023	15:50:30.963	0.00000E+0	0.00000E+0	-1.20172E+2	2.35840E+0	0.00000E+0	0.00000E+0	1.95842E+1	1.53568E+1	1.95840E+1	1.53561E+1
75	17/03/2023	15:50:32.459	0.00000E+0	0.00000E+0	1.91527E+2	1.32394E-1	0.00000E+0	0.00000E+0	2.39619E+1	1.10487E+1	2.39602E+1	1.10495E+1
76	17/03/2023	15:50:33.963	0.00000E+0	0.00000E+0	-1.51003E+2	-2.33887E+0	0.00000E+0	0.00000E+0	1.91296E+1	1.57709E+1	1.91274E+1	1.57711E+1
77	17/03/2023	15:50:35.454	0.00000E+0	0.00000E+0	-1.53673E+2	-1.79815E+0	0.00000E+0	0.00000E+0	1.90649E+1	1.58672E+1	1.90649E+1	1.58669E+1
78	17/03/2023	15:50:36.950	0.00000E+0	0.00000E+0	1.77814E+2	4.59881E-1	0.00000E+0	0.00000E+0	2.37463E+1	1.11299E+1	2.37457E+1	1.11294E+1
79	17/03/2023	15:50:38.443	0.00000E+0	0.00000E+0	1.43431E+2	1.34274E-2	0.00000E+0	0.00000E+0	2.33435E+1	1.16601E+1	2.33428E+1	1.16572E+1
80	17/03/2023	15:50:39.907	0.00000E+0	0.00000E+0	-1.48512E+2	5.89806E-1	0.00000E+0	0.00000E+0	1.91512E+1	1.58066E+1	1.91482E+1	1.58054E+1
81	17/03/2023	15:50:41.387	0.00000E+0	0.00000E+0	-1.06450E+2	-1.76574E+0	0.00000E+0	0.00000E+0	1.95721E+1	1.53721E+1	1.95735E+1	1.53700E+1
82	17/03/2023	15:50:42.901	0.00000E+0	0.00000E+0	1.37544E+2	1.11025E+0	0.00000E+0	0.00000E+0	2.32254E+1	1.17424E+1	2.32264E+1	1.17419E+1
83	17/03/2023	15:50:44.406	0.00000E+0	0.00000E+0	6.70204E+1	6.61346E-1	0.00000E+0	0.00000E+0	2.24319E+1	1.25005E+1	2.24328E+1	1.25004E+1
84	17/03/2023	15:50:45.889	0.00000E+0	0.00000E+0	-1.62751E+2	7.30020E-1	0.00000E+0	0.00000E+0	1.89754E+1	1.59617E+1	1.89747E+1	1.59608E+1
85	17/03/2023	15:50:47.364	0.00000E+0	0.00000E+0	3.65722E+1	-7.21147E-1	0.00000E+0	0.00000E+0	2.15197E+1	1.34351E+1	2.15225E+1	1.34370E+1
86	17/03/2023	15:50:48.843	0.00000E+0	0.00000E+0	1.71127E+2	9.62465E-1	0.00000E+0	0.00000E+0	2.37219E+1	1.12529E+1	2.37228E+1	1.12523E+1
87	17/03/2023	15:50:50.333	0.00000E+0	0.00000E+0	-1.42349E+2	-3.01365E+0	0.00000E+0	0.00000E+0	1.91790E+1	1.57483E+1	1.91790E+1	1.57465E+1
88	17/03/2023	15:50:51.820	0.00000E+0	0.00000E+0	-1.25870E+2	-8.58686E-1	0.00000E+0	0.00000E+0	1.94163E+1	1.55081E+1	1.94168E+1	1.55107E+1
89	17/03/2023	15:50:53.318	0.00000E+0	0.00000E+0	1.02896E+2	1.14508E+0	0.00000E+0	0.00000E+0	2.25458E+1	1.24182E+1	2.25472E+1	1.24192E+1
90	17/03/2023	15:50:54.820	0.00000E+0	0.00000E+0	1.58648E+2	2.81856E+0	0.00000E+0	0.00000E+0	2.35008E+1	1.14445E+1	2.35019E+1	1.14423E+1
91	17/03/2023	15:50:56.299	0.00000E+0	0.00000E+0	-1.49289E+2	-2.72119E+0	0.00000E+0	0.00000E+0	1.91146E+1	1.57891E+1	1.91137E+1	1.57876E+1
92	17/03/2023	15:50:57.759	0.00000E+0	0.00000E+0	-1.33692E+2	-1.27307E+0	0.00000E+0	0.00000E+0	1.93399E+1	1.55923E+1	1.93394E+1	1.55957E+1
93	17/03/2023	15:50:59.281	0.00000E+0	0.00000E+0	1.80143E+2	-8.82889E+0	0.00000E+0	0.00000E+0	2.38001E+1	1.11742E+1	2.38013E+1	1.11790E+1
94	17/03/2023	15:51:00.751	0.00000E+0	0.00000E+0	1.43430E+2	-1.53206E-1	0.00000E+0	0.00000E+0	2.32752E+1	1.16766E+1	2.32731E+1	1.16757E+1
95	17/03/2023	15:51:02.234	0.00000E+0	0.00000E+0	-1.78446E+2	-1.66733E+0	0.00000E+0	0.00000E+0	1.87203E+1	1.62296E+1	1.87210E+1	1.62295E+1
96	17/03/2023	15:51:03.705	0.00000E+0	0.00000E+0	-1.10758E+2	-3.41712E+0	0.00000E+0	0.00000E+0	1.94813E+1	1.54213E+1	1.94803E+1	1.54215E+1
97	17/03/2023	15:51:05.188	0.00000E+0	0.00000E+0	1.73147E+2	3.01097E+0	0.00000E+0	0.00000E+0	2.37370E+1	1.12803E+1	2.37350E+1	1.12834E+1
98	17/03/2023	15:51:06.710	0.00000E+0	0.00000E+0	-4.30924E+1	-8.38563E-1	0.00000E+0	0.00000E+0	2.09544E+1	1.39938E+1	2.09545E+1	1.39906E+1
99	17/03/2023	15:51:08.202	0.00000E+0	0.00000E+0	-1.50208E+2	-7.27953E-1	0.00000E+0	0.00000E+0	1.90943E+1	1.58210E+1	1.90941E+1	1.58215E+1
100	17/03/2023	15:51:09.681	0.00000E+0	0.00000E+0	8.73403E+1	7.87076E-1	0.00000E+0	0.00000E+0	2.22841E+1	1.26692E+1	2.22848E+1	1.26689E+1
101	17/03/2023	15:51:11.153	0.00000E+0	0.00000E+0	1.80860E+2	2.14454E+0	0.00000E+0	0.00000E+0	2.38090E+1	1.11785E+1	2.38105E+1	1.11783E+1
102	17/03/2023	15:51:12.632	0.00000E+0	0.00000E+0	-1.40674E+2	-1.20118E+0	0.00000E+0	0.00000E+0	1.92697E+1	1.57006E+1	1.92685E+1	1.57006E+1
103	17/03/2023	15:51:14.118	0.00000E+0	0.00000E+0	-1.11092E+2	-1.98996E+0	0.00000E+0	0.00000E+0	1.96631E+1	1.52661E+1	1.96632E+1	1.52662E+1
104	17/03/2023	15:51:15.628	0.00000E+0	0.00000E+0	3.73409E+1	-4.38912E-1	0.00000E+0	0.00000E+0	2.15046E+1	1.34313E+1	2.15007E+1	1.34319E+1
105	17/03/2023	15:51:17.142	0.00000E+0	0.00000E+0	1.55517E+2	4.05567E-1	0.00000E+0	0.00000E+0	2.34972E+1	1.14756E+1	2.34992E+1	1.14766E+1
106	17/03/2023	15:51:18.617	0.00000E+0	0.00000E+0	-5.21487E+1	-3.70387E-1	0.00000E+0	0.00000E+0	2.06369E+1	1.43105E+1	2.06341E+1	1.43077E+1
107	17/03/2023	15:51:20.095	0.00000E+0	0.00000E+0	-1.52750E+2	-3.37244E+0	0.00000E+0	0.00000E+0	1.90606E+1	1.58780E+1	1.90602E+1	1.58785E+1
108	17/03/2023	15:51:21.573	0.00000E+0	0.00000E+0	1.33154E+1	1.77080E+0	0.00000E+0	0.00000E+0	2.10393E+1	1.38728E+1	2.10402E+1	1.38734E+1
109	17/03/2023	15:51:23.058	0.00000E+0	0.00000E+0	1.53767E+2	3.78004E-1	0.00000E+0	0.00000E+0	2.34112E+1	1.15814E+1	2.34169E+1	1.15843E+1
110	17/03/2023	15:51:24.523	0.00000E+0	0.00000E+0	-1.46227E+2	1.94975E+0	0.00000E+0	0.00000E+0	1.91353E+1	1.57209E+1	1.91357E+1	1.57220E+1
111	17/03/2023	15:51:26.005	0.00000E+0	0.00000E+0	-1.47931E+2	-1.53622E+0	0.00000E+0	0.00000E+0	1.91778E+1	1.58032E+1	1.91770E+1	1.58032E+1
112	17/03/2023	15:51:27.503	0.00000E+0	0.00000E+0	1.64755E+2	1.52083E+0	0.00000E+0	0.00000E+0	2.35570E+1	1.14517E+1	2.35595E+1	1.14497E+1
113	17/03/2023	15:51:29.008	0.00000E+0	0.00000E+0	1.45484E+2	7.96541E-2	0.00000E+0	0.00000E+0	2.33759E+1	1.16485E+1	2.33765E+1	1.16495E+1
114	17/03/2023	15:51:30.512	0.00000E+0	0.00000E+0	-1.30979E+2	1.35441E-1	0.00000E+0	0.00000E+0	1.93627E+1	1.55619E+1	1.93629E+1	1.55598E+1
115	17/03/2023	15:51:32.015	0.00000E+0	0.00000E+0	-1.09983E+2	-6.29551E-1	0.00000E+0	0.00000E+0	1.96224E+1	1.53396E+1	1.96197E+1	1.53404E+1
116	17/03/2023	15:51:33.508	0.00000E+0	0.00000E+0	1.85124E+2	5.78966E-1	0.00000E+0	0.00000E+0	2.37427E+1	1.12189E+1	2.37430E+1	1.12193E+1
117	17/03/2023	15:51:34.981	0.00000E+0	0.00000E+0	1.24107E+2	8.09557E-1	0.00000E+0	0.00000E+0	2.30373E+1	1.19275E+1	2.30351E+1	1.19270E+1
118	17/03/2023	15:51:36.446	0.00000E+0	0.00000E+0	-1.29455E+2	-9.85500E-1	0.00000E+0	0.00000E+0	1.93938E+1	1.55147E+1	1.93929E+1	1.55122E+1
119	17/03/2023	15:51:37.958	0.00000E+0	0.00000E+0	-1.10641E+2	-5.39959E-1	0.00000E+0	0.00000E+0	1.96705E+1	1.52348E+1	1.96708E+1	1.52354E+1
120	17/03/2023	15:51:39.442	0.00000E+0	0.00000E+0	1.51299E+2	9.70267E-1	0.00000E+0	0.00000E+0	2.34544E+1	1.15998E+1	2.34554E+1	1.15985E+1
121	17/03/2023	15:51:40.942	0.00000E+0	0.00000E+0	-3.79749E+1	-4.60108E-1	0.00000E+0	0.00000E+0	2.12380E+1	1.37496E+1	2.12387E+1	1.37502E+1
122	17/03/2023	15:51:42.427	0.00000E+0	0.00000E+0	-1.27783E+2	-7.93656E-1	0.00000E+0	0.00000E+0	1.94295E+1	1.55328E+1	1.94295E+1	1.55324E+1
123	17/03/2023	15:51:43.911	0.00000E+0	0.00000E+0	-7.03497E+1	-2.01947E+0	0.00000E+0	0.00000E+0	2.01474E+1	1.47620E+1	2.01483E+1	1.47604E+1
124	17/03/2023	15:51:45.385	0.00000E+0	0.00000E+0	1.63830E+2	-2.25793E+0	0.00000E+0	0.00000E+0	2.36795E+1	1.13071E+1	2.36802E+1	1.13075E+1
125	17/03/2023	15:51:46.854	0.00000E+0	0.00000E+0	3.10349E+0	7.64754E-1	0.00000E+0	0.00000E+0	2.17447E+1	1.32775E+1	2.17429E+1	1.32768E+1
126	17/03/2023	15:51:48.345	0.00000E+0	0.00000E+0	-1.89739E+2	-2.63456E+0	0.00000E+0	0.00000E+0	1.84634E+1	1.64016E+1	1.84653E+1	1.64028E+1
127	17/03/2023	15:51:49.819	0.00000E+0	0.00000E+0	1.83000E+2	-4.13744E-1	0.00000E+0	0.00000E+0	2.38828E+1	1.11352E+1	2.38806E+1	1.11330E+1
128	17/03/2023	15:51:51.550	0.00000E+0	0.00000E+0	1.01908E+1	-2.47623E-1	0.00000E+0	0.00000E+0	2.18726E+1	1.30955E+1	2.18739E+1	1.30971E+1
129	17/03/2023	15:51:52.983	0.00000E+0	0.00000E+0	-1.39603E+2	-1.78903E+0	0.00000E+0	0.00000E+0	1.92705E+1	1.56806E+1	1.92687E+1	1.56818E+1
130	17/03/2023	15:51:54.512	0.00000E+0	0.00000E+0	3.09701E+1	-7.14424E-1	0.00000E+0	0.00000E+0	2.13309E+1	1.36205E+1	2.13317E+1	1.36186E+1
131	17/03/2023	15:51:55.990	0.00000E+0	0.00000E+0	1.72632E+2	9.42276E-1	0.00000E+0	0.00000E+0	2.37768E+1	1.12171E+1	2.37740E+1	1.12160E+1
132	17/03/2023	15:51:57.477	0.00000E+0	0.00000E+0	-1.99362E+2	-2.24368E+0	0.00000E+0	0.00000E+0	1.84390E+1	1.64991E+1	1.84387E+1	1.64982E+1
133	17/03/2023	15:51:58.972	0.00000E+0	0.00000E+0	-1.18508E+1	1.02538E+0	0.00000E+0	0.00000E+0	2.06974E+1	1.42679E+1	2.06968E+1	1.42671E+1
134	17/03/2023	15:52:00.477	0.00000E+0	0.00000E+0	1.82436E+2	1.95337E+0	0.00000E+0	0.00000E+0	2.39245E+1	1.11047E+1	2.39261E+1	1.11054E+1
135	17/03/2023	15:52:01.963	0.00000E+0	0.00000E+0	-2.08449E+2	-2.97082E+0	0.00000E+0	0.00000E+0	1.82548E+1	1.66014E+1	1.82552E+1	1.66037E+1
136	17/03/2023	15:52:03.428	0.00000E+0	0.00000E+0	9.73135E+1	1.48826E+0	0.00000E+0	0.00000E+0	2.22689E+1	1.26745E+1	2.22680E+1	1.26743E+1
137	17/03/2023	15:52:04.915	0.00000E+0	0.00000E+0	1.65888E+2	-1.23179E+0	0.00000E+0	0.00000E+0	2.36862E+1	1.12669E+1	2.36875E+1	1.12674E+1
138	17/03/2023	15:52:06.389	0.00000E+0	0.00000E+0	-1.99153E+2	1.27647E+0	0.00000E+0	0.00000E+0	1.84257E+1	1.65583E+1	1.84237E+1	1.65568E+1
139	17/03/2023	15:52:07.864	0.00000E+0	0.00000E+0	5.74006E+1	-1.21420E+0	0.00000E+0	0.00000E+0	2.17420E+1	1.32457E+1	2.17443E+1	1.32459E+1
140	17/03/2023	15:52:09.359	0.00000E+0	0.00000E+0	1.63144E+2	3.56975E-1	0.00000E+0	0.00000E+0	2.35653E+1	1.13762E+1	2.35665E+1	1.13752E+1
141	17/03/2023	15:52:10.842	0.00000E+0	0.00000E+0	-1.86045E+2	-1.10643E+0	0.00000E+0	0.00000E+0	1.85859E+1	1.62927E+1	1.85845E+1	1.62929E+1
142	17/03/2023	15:52:12.387	0.00000E+0	0.00000E+0	-3.62207E+1	1.17243E+0	0.00000E+0	0.00000E+0	2.03410E+1	1.45663E+1	2.03404E+1	1.45666E+1
143	17/03/2023	15:52:13.857	0.00000E+0	0.00000E+0	1.64219E+2	-6.52343E-1	0.00000E+0	0.00000E+0	2.36106E+1	1.13718E+1	2.36090E+1	1.13738E+1
144	17/03/2023	15:52:15.364	0.00000E+0	0.00000E+0	-2.08456E+2	-2.04018E+0	0.00000E+0	0.00000E+0	1.82567E+1	1.66576E+1	1.82578E+1	1.66561E+1
145	17/03/2023	15:52:16.842	0.00000E+0	0.00000E+0	-1.15912E+2	-3.75723E+0	0.00000E+0	0.00000E+0	1.95500E+1	1.53875E+1	1.95501E+1	1.53885E+1
146	17/03/2023	15:52:18.320	0.00000E+0	0.00000E+0	1.94273E+2	3.98125E-1	0.00000E+0	0.00000E+0	2.39554E+1	1.10139E+1	2.39582E+1	1.10126E+1
147	17/03/2023	15:52:19.832	0.00000E+0	0.00000E+0	-1.80677E+2	-3.10718E+0	0.00000E+0	0.00000E+0	1.86815E+1	1.62263E+1	1.86823E+1	1.62254E+1
148	17/03/2023	15:52:21.292	0.00000E+0	0.00000E+0	-1.15417E+2	-4.26605E-1	0.00000E+0	0.00000E+0	1.95202E+1	1.53534E+1	1.95198E+1	1.53556E+1
149	17/03/2023	15:52:22.756	0.00000E+0	0.00000E+0	2.17576E+2	6.15006E-1	0.00000E+0	0.00000E+0	2.43106E+1	1.07164E+1	2.43097E+1	1.07136E+1
150	17/03/2023	15:52:24.237	0.00000E+0	0.00000E+0	1.24536E+2	-7.10818E-1	0.00000E+0	0.00000E+0	2.30024E+1	1.19462E+1	2.30020E+1	1.19455E+1
151	17/03/2023	15:52:25.705	0.00000E+0	0.00000E+0	-1.39810E+2	2.85342E-1	0.00000E+0	0.00000E+0	1.92507E+1	1.57156E+1	1.92487E+1	1.57133E+1
152	17/03/2023	15:52:27.187	0.00000E+0	0.00000E+0	-9.85415E+1	1.49617E+0	0.00000E+0	0.00000E+0	1.98329E+1	1.50813E+1	1.98333E+1	1.50809E+1
153	17/03/2023	15:52:28.663	0.00000E+0	0.00000E+0	1.67726E+2	-9.57845E-1	0.00000E+0	0.00000E+0	2.37062E+1	1.13184E+1	2.37040E+1	1.13183E+1
154	17/03/2023	15:52:30.141	0.00000E+0	0.00000E+0	8.35343E+1	1.53917E+0	0.00000E+0	0.00000E+0	2.25358E+1	1.24517E+1	2.25361E+1	1.24529E+1
155	17/03/2023	15:52:31.630	0.00000E+0	0.00000E+0	-1.66701E+2	1.66692E+0	0.00000E+0	0.00000E+0	1.88104E+1	1.60768E+1	1.88105E+1	1.60787E+1
156	17/03/2023	15:52:33.111	0.00000E+0	0.00000E+0	1.71398E+2	2.21058E+0	0.00000E+0	0.00000E+0	2.36477E+1	1.13062E+1	2.36441E+1	1.13050E+1
157	17/03/2023	15:52:34.591	0.00000E+0	0.00000E+0	1.43846E+2	2.56597E+0	0.00000E+0	0.00000E+0	2.33003E+1	1.16386E+1	2.32986E+1	1.16397E+1
158	17/03/2023	15:52:36.073	0.00000E+0	0.00000E+0	-1.75546E+2	-1.10912E+0	0.00000E+0	0.00000E+0	1.87380E+1	1.61588E+1	1.87394E+1	1.61599E+1
159	17/03/2023	15:52:37.561	0.00000E+0	0.00000E+0	2.88066E+1	-1.13367E-1	0.00000E+0	0.00000E+0	2.14251E+1	1.35039E+1	2.14242E+1	1.35024E+1
160	17/03/2023	15:52:39.055	0.00000E+0	0.00000E+0	1.07783E+2	1.46744E+0	0.00000E+0	0.00000E+0	2.28582E+1	1.21215E+1	2.28622E+1	1.21202E+1
161	17/03/2023	15:52:40.542	0.00000E+0	0.00000E+0	-6.06397E+1	-8.06579E-2	0.00000E+0	0.00000E+0	2.06320E+1	1.42743E+1	2.06324E+1	1.42742E+1
162	17/03/2023	15:52:42.036	0.00000E+0	0.00000E+0	-1.31077E+2	-6.05992E-1	0.00000E+0	0.00000E+0	1.93733E+1	1.55355E+1	1.93716E+1	1.55347E+1
163	17/03/2023	15:52:43.513	0.00000E+0	0.00000E+0	1.08602E+2	-3.09351E-1	0.00000E+0	0.00000E+0	2.26056E+1	1.23671E+1	2.26040E+1	1.23662E+1
164	17/03/2023	15:52:44.998	0.00000E+0	0.00000E+0	1.75633E+2	2.53010E+0	0.00000E+0	0.00000E+0	2.37515E+1	1.12308E+1	2.37532E+1	1.12296E+1
165	17/03/2023	15:52:46.492	0.00000E+0	0.00000E+0	-1.52063E+2	-1.13682E+0	0.00000E+0	0.00000E+0	1.90921E+1	1.58342E+1	1.90916E+1	1.58337E+1
166	17/03/2023	15:52:47.971	0.00000E+0	0.00000E+0	-1.45439E+2	-2.52225E-1	0.00000E+0	0.00000E+0	1.91579E+1	1.57399E+1	1.91572E+1	1.57382E+1
167	17/03/2023	15:52:49.462	0.00000E+0	0.00000E+0	-7.74725E+1	-5.82240E-1	0.00000E+0	0.00000E+0	2.00969E+1	1.48420E+1	2.00951E+1	1.48401E+1
168	17/03/2023	15:52:50.937	0.00000E+0	0.00000E+0	1.54109E+2	1.11288E+0	0.00000E+0	0.00000E+0	2.34186E+1	1.15878E+1	2.34199E+1	1.15870E+1
169	17/03/2023	15:52:52.427	0.00000E+0	0.00000E+0	-1.50612E+2	-1.71383E+0	0.00000E+0	0.00000E+0	1.91487E+1	1.57275E+1	1.91469E+1	1.57286E+1
170	17/03/2023	15:52:53.933	0.00000E+0	0.00000E+0	-1.64447E+2	-1.12744E+0	0.00000E+0	0.00000E+0	1.88922E+1	1.59920E+1	1.88930E+1	1.59908E+1
171	17/03/2023	15:52:55.402	0.00000E+0	0.00000E+0	1.70451E+2	1.52607E+0	0.00000E+0	0.00000E+0	2.36821E+1	1.12573E+1	2.36803E+1	1.12577E+1
172	17/03/2023	15:52:56.879	0.00000E+0	0.00000E+0	1.28532E+2	3.47829E+0	0.00000E+0	0.00000E+0	2.32715E+1	1.16827E+1	2.32738E+1	1.16826E+1
173	17/03/2023	15:52:58.355	0.00000E+0	0.00000E+0	-1.60557E+2	-6.62976E-1	0.00000E+0	0.00000E+0	1.88863E+1	1.59972E+1	1.88856E+1	1.59973E+1
174	17/03/2023	15:52:59.832	0.00000E+0	0.00000E+0	1.66310E+2	1.48975E+0	0.00000E+0	0.00000E+0	2.33514E+1	1.15999E+1	2.33511E+1	1.15997E+1
175	17/03/2023	15:53:01.336	0.00000E+0	0.00000E+0	1.42494E+2	1.78097E+0	0.00000E+0	0.00000E+0	2.32580E+1	1.16912E+1	2.32615E+1	1.16937E+1
176	17/03/2023	15:53:02.817	0.00000E+0	0.00000E+0	-1.56074E+2	-8.99320E-1	0.00000E+0	0.00000E+0	1.90384E+1	1.58899E+1	1.90372E+1	1.58903E+1
177	17/03/2023	15:53:04.295	0.00000E+0	0.00000E+0	-1.26775E+2	-1.16700E+0	0.00000E+0	0.00000E+0	1.94118E+1	1.55571E+1	1.94097E+1	1.55585E+1
178	17/03/2023	15:53:05.782	0.00000E+0	0.00000E+0	1.56225E+2	2.86742E+0	0.00000E+0	0.00000E+0	2.34506E+1	1.14940E+1	2.34512E+1	1.14947E+1
179	17/03/2023	15:53:07.285	0.00000E+0	0.00000E+0	-8.32436E+1	2.51078E-3	0.00000E+0	0.00000E+0	2.04755E+1	1.44880E+1	2.04775E+1	1.44889E+1
180	17/03/2023	15:53:08.790	0.00000E+0	0.00000E+0	-1.34566E+2	2.50383E-1	0.00000E+0	0.00000E+0	1.92980E+1	1.55911E+1	1.92970E+1	1.55875E+1
181	17/03/2023	15:53:10.268	0.00000E+0	0.00000E+0	-3.95008E+1	1.04800E+0	0.00000E+0	0.00000E+0	2.03952E+1	1.45458E+1	2.03955E+1	1.45464E+1
182	17/03/2023	15:53:11.774	0.00000E+0	0.00000E+0	1.04435E+2	1.30579E+0	0.00000E+0	0.00000E+0	2.27214E+1	1.22934E+1	2.27208E+1	1.22949E+1
183	17/03/2023	15:53:13.268	0.00000E+0	0.00000E+0	-6.81341E+1	9.23947E-1	0.00000E+0	0.00000E+0	2.03055E+1	1.46365E+1	2.03059E+1	1.46371E+1
184	17/03/2023	15:53:14.782	0.00000E+0	0.00000E+0	-6.42792E+1	9.50681E-1	0.00000E+0	0.00000E+0	2.02847E+1	1.46519E+1	2.02874E+1	1.46501E+1
185	17/03/2023	15:53:16.296	0.00000E+0	0.00000E+0	1.29717E+2	2.77168E+0	0.00000E+0	0.00000E+0	2.30519E+1	1.19064E+1	2.30502E+1	1.19079E+1
186	17/03/2023	15:53:17.775	0.00000E+0	0.00000E+0	8.32391E+1	1.37011E+0	0.00000E+0	0.00000E+0	2.23755E+1	1.26008E+1	2.23772E+1	1.26008E+1
187	17/03/2023	15:53:19.344	0.00000E+0	0.00000E+0	-1.17058E+2	-1.41480E+0	0.00000E+0	0.00000E+0	1.94966E+1	1.53917E+1	1.94964E+1	1.53928E+1
188	17/03/2023	15:53:20.823	0.00000E+0	0.00000E+0	1.03835E+2	9.91088E-1	0.00000E+0	0.00000E+0	2.24357E+1	1.26123E+1	2.24355E+1	1.26122E+1
189	17/03/2023	15:53:22.346	0.00000E+0	0.00000E+0	1.40124E+2	1.60597E+0	0.00000E+0	0.00000E+0	2.32701E+1	1.17193E+1	2.32712E+1	1.17194E+1
190	17/03/2023	15:53:23.854	0.00000E+0	0.00000E+0	-1.69553E+2	-1.23587E+0	0.00000E+0	0.00000E+0	1.87925E+1	1.60447E+1	1.87935E+1	1.60426E+1
191	17/03/2023	15:53:25.361	0.00000E+0	0.00000E+0	-1.25681E+2	-1.04056E-1	0.00000E+0	0.00000E+0	1.94696E+1	1.54672E+1	1.94702E+1	1.54651E+1
192	17/03/2023	15:53:26.860	0.00000E+0	0.00000E+0	1.67246E+2	-1.35794E-1	0.00000E+0	0.00000E+0	2.37362E+1	1.12675E+1	2.37372E+1	1.12674E+1
193	17/03/2023	15:53:28.363	0.00000E+0	0.00000E+0	7.81051E+1	3.62195E-1	0.00000E+0	0.00000E+0	2.26923E+1	1.22512E+1	2.26911E+1	1.22518E+1
194	17/03/2023	15:53:29.868	0.00000E+0	0.00000E+0	-1.60419E+2	-4.32159E-1	0.00000E+0	0.00000E+0	1.89837E+1	1.59435E+1	1.89835E+1	1.59433E+1
195	17/03/2023	15:53:31.445	0.00000E+0	0.00000E+0	1.67462E+2	-7.36021E-1	0.00000E+0	0.00000E+0	2.35746E+1	1.14245E+1	2.35752E+1	1.14252E+1
196	17/03/2023	15:53:32.962	0.00000E+0	0.00000E+0	1.40864E+2	1.59899E+0	0.00000E+0	0.00000E+0	2.32245E+1	1.17484E+1	2.32243E+1	1.17476E+1
197	17/03/2023	15:53:34.455	0.00000E+0	0.00000E+0	-1.54055E+2	1.03745E+0	0.00000E+0	0.00000E+0	1.90880E+1	1.58508E+1	1.90882E+1	1.58513E+1
198	17/03/2023	15:53:35.950	0.00000E+0	0.00000E+0	-1.26497E+2	-1.65392E+0	0.00000E+0	0.00000E+0	1.94926E+1	1.55041E+1	1.94937E+1	1.55043E+1
199	17/03/2023	15:53:37.469	0.00000E+0	0.00000E+0	1.75650E+2	-3.30023E+0	0.00000E+0	0.00000E+0	2.37129E+1	1.12777E+1	2.37123E+1	1.12752E+1
200	17/03/2023	15:53:38.959	0.00000E+0	0.00000E+0	5.83665E+1	-2.24119E+0	0.00000E+0	0.00000E+0	2.21406E+1	1.28210E+1	2.21398E+1	1.28235E+1
201	17/03/2023	15:53:40.683	0.00000E+0	0.00000E+0	-1.03623E+2	-1.40062E+0	0.00000E+0	0.00000E+0	1.98303E+1	1.51047E+1	1.98302E+1	1.51063E+1
202	17/03/2023	15:53:42.258	0.00000E+0	0.00000E+0	-9.70647E+1	-1.49595E+0	0.00000E+0	0.00000E+0	1.99031E+1	1.50467E+1	1.99029E+1	1.50472E+1
203	17/03/2023	15:53:43.803	0.00000E+0	0.00000E+0	1.78526E+2	3.43832E+0	0.00000E+0	0.00000E+0	2.37384E+1	1.12537E+1	2.37375E+1	1.12533E+1
204	17/03/2023	15:53:45.300	0.00000E+0	0.00000E+0	1.40684E+2	-9.26718E-1	0.00000E+0	0.00000E+0	2.32397E+1	1.17003E+1	2.32397E+1	1.16999E+1
205	17/03/2023	15:53:46.802	0.00000E+0	0.00000E+0	-1.78339E+2	-3.71862E+0	0.00000E+0	0.00000E+0	1.86967E+1	1.61950E+1	1.86980E+1	1.61939E+1
206	17/03/2023	15:53:48.311	0.00000E+0	0.00000E+0	7.87063E+1	3.69704E+0	0.00000E+0	0.00000E+0	2.20267E+1	1.29039E+1	2.20270E+1	1.29047E+1
207	17/03/2023	15:53:49.819	0.00000E+0	0.00000E+0	1.56131E+2	3.03125E-1	0.00000E+0	0.00000E+0	2.34563E+1	1.15016E+1	2.34542E+1	1.14993E+1
208	17/03/2023	15:53:51.300	0.00000E+0	0.00000E+0	-1.61022E+2	1.08737E+0	0.00000E+0	0.00000E+0	1.89507E+1	1.59369E+1	1.89535E+1	1.59369E+1
209	17/03/2023	15:53:52.816	0.00000E+0	0.00000E+0	-1.53496E+2	-1.12533E+0	0.00000E+0	0.00000E+0	1.90397E+1	1.58621E+1	1.90422E+1	1.58614E+1
210	17/03/2023	15:53:54.344	0.00000E+0	0.00000E+0	1.62152E+2	5.03295E-1	0.00000E+0	0.00000E+0	2.35019E+1	1.14238E+1	2.35017E+1	1.14242E+1
211	17/03/2023	15:53:55.847	0.00000E+0	0.00000E+0	1.31404E+2	6.29078E-1	0.00000E+0	0.00000E+0	2.32689E+1	1.17521E+1	2.32702E+1	1.17515E+1
212	17/03/2023	15:53:57.355	0.00000E+0	0.00000E+0	-1.44715E+2	1.94350E-1	0.00000E+0	0.00000E+0	1.91685E+1	1.57112E+1	1.91667E+1	1.57134E+1
213	17/03/2023	15:53:58.936	0.00000E+0	0.00000E+0	4.94114E+0	1.65096E+0	0.00000E+0	0.00000E+0	2.06521E+1	1.41438E+1	2.06531E+1	1.41450E+1
214	17/03/2023	15:54:00.522	0.00000E+0	0.00000E+0	1.35389E+2	1.81722E+0	0.00000E+0	0.00000E+0	2.31726E+1	1.17913E+1	2.31755E+1	1.17922E+1
215	17/03/2023	15:54:02.025	0.00000E+0	0.00000E+0	-1.66778E+2	-1.48527E+0	0.00000E+0	0.00000E+0	1.89158E+1	1.60667E+1	1.89139E+1	1.60671E+1
216	17/03/2023	15:54:03.533	0.00000E+0	0.00000E+0	-1.39468E+2	-4.58367E-1	0.00000E+0	0.00000E+0	1.92731E+1	1.56225E+1	1.92728E+1	1.56236E+1
217	17/03/2023	15:54:05.040	0.00000E+0	0.00000E+0	1.75250E+2	2.66963E+0	0.00000E+0	0.00000E+0	2.37138E+1	1.12575E+1	2.37137E+1	1.12587E+1
218	17/03/2023	15:54:06.544	0.00000E+0	0.00000E+0	1.25777E+2	1.67790E+0	0.00000E+0	0.00000E+0	2.31158E+1	1.18367E+1	2.31162E+1	1.18365E+1
219	17/03/2023	15:54:08.053	0.00000E+0	0.00000E+0	-1.38136E+2	-5.82413E-1	0.00000E+0	0.00000E+0	1.92595E+1	1.56377E+1	1.92591E+1	1.56386E+1
220	17/03/2023	15:54:09.631	0.00000E+0	0.00000E+0	-3.78614E+0	2.40707E+0	0.00000E+0	0.00000E+0	2.07758E+1	1.41846E+1	2.07765E+1	1.41845E+1
221	17/03/2023	15:54:11.139	0.00000E+0	0.00000E+0	1.31743E+2	-4.04096E-1	0.00000E+0	0.00000E+0	2.32018E+1	1.17613E+1	2.32016E+1	1.17631E+1
222	17/03/2023	15:54:12.637	0.00000E+0	0.00000E+0	-1.56427E+2	-8.97717E-1	0.00000E+0	0.00000E+0	1.90673E+1	1.58972E+1	1.90658E+1	1.58968E+1
223	17/03/2023	15:54:14.140	0.00000E+0	0.00000E+0	-1.42186E+2	-1.57193E+0	0.00000E+0	0.00000E+0	1.92665E+1	1.56612E+1	1.92696E+1	1.56626E+1
224	17/03/2023	15:54:15.625	0.00000E+0	0.00000E+0	1.92001E+2	2.89276E+0	0.00000E+0	0.00000E+0	2.40611E+1	1.09477E+1	2.40638E+1	1.09482E+1
225	17/03/2023	15:54:17.135	0.00000E+0	0.00000E+0	1.12832E+2	3.42003E+0	0.00000E+0	0.00000E+0	2.30464E+1	1.18901E+1	2.30470E+1	1.18907E+1
226	17/03/2023	15:54:18.632	0.00000E+0	0.00000E+0	-1.88488E+2	8.54874E-1	0.00000E+0	0.00000E+0	1.85506E+1	1.63676E+1	1.85511E+1	1.63666E+1
227	17/03/2023	15:54:20.137	0.00000E+0	0.00000E+0	2.07616E+2	1.01486E+0	0.00000E+0	0.00000E+0	2.42573E+1	1.06147E+1	2.42569E+1	1.06166E+1
228	17/03/2023	15:54:21.636	0.00000E+0	0.00000E+0	7.24048E+1	-1.43928E+0	0.00000E+0	0.00000E+0	2.27661E+1	1.21784E+1	2.27657E+1	1.21809E+1
229	17/03/2023	15:54:23.150	0.00000E+0	0.00000E+0	-1.67170E+2	-2.84063E+0	0.00000E+0	0.00000E+0	1.88424E+1	1.61018E+1	1.88433E+1	1.61015E+1
230	17/03/2023	15:54:24.649	0.00000E+0	0.00000E+0	1.92778E+2	4.17546E-1	0.00000E+0	0.00000E+0	2.38397E+1	1.11067E+1	2.38389E+1	1.11052E+1
231	17/03/2023	15:54:26.155	0.00000E+0	0.00000E+0	1.67362E+2	1.96272E-1	0.00000E+0	0.00000E+0	2.37058E+1	1.12336E+1	2.37031E+1	1.12358E+1
232	17/03/2023	15:54:27.649	0.00000E+0	0.00000E+0	-1.81481E+2	1.66161E+0	0.00000E+0	0.00000E+0	1.86951E+1	1.62918E+1	1.86967E+1	1.62907E+1
233	17/03/2023	15:54:29.157	0.00000E+0	0.00000E+0	1.62590E+2	-2.29888E-1	0.00000E+0	0.00000E+0	2.31548E+1	1.17486E+1	2.31532E+1	1.17498E+1
234	17/03/2023	15:54:30.663	0.00000E+0	0.00000E+0	1.61841E+2	2.29885E+0	0.00000E+0	0.00000E+0	2.35696E+1	1.13823E+1	2.35690E+1	1.13831E+1
235	17/03/2023	15:54:32.162	0.00000E+0	0.00000E+0	-1.53539E+2	-1.61044E+0	0.00000E+0	0.00000E+0	1.90689E+1	1.58615E+1	1.90687E+1	1.58612E+1
236	17/03/2023	15:54:33.690	0.00000E+0	0.00000E+0	-1.30766E+2	-8.66846E-2	0.00000E+0	0.00000E+0	1.93242E+1	1.55935E+1	1.93252E+1	1.55932E+1
237	17/03/2023	15:54:35.196	0.00000E+0	0.00000E+0	1.87073E+2	-5.07504E-1	0.00000E+0	0.00000E+0	2.39077E+1	1.10266E+1	2.39059E+1	1.10272E+1
238	17/03/2023	15:54:36.700	0.00000E+0	0.00000E+0	-1.80297E+2	-3.50811E+0	0.00000E+0	0.00000E+0	1.86622E+1	1.62461E+1	1.86607E+1	1.62456E+1
239	17/03/2023	15:54:38.203	0.00000E+0	0.00000E+0	-1.38476E+2	-1.50510E+0	0.00000E+0	0.00000E+0	1.92046E+1	1.56731E+1	1.92054E+1	1.56723E+1
240	17/03/2023	15:54:39.702	0.00000E+0	0.00000E+0	1.97280E+2	2.19581E+0	0.00000E+0	0.00000E+0	2.40955E+1	1.09070E+1	2.40968E+1	1.09058E+1
241	17/03/2023	15:54:41.216	0.00000E+0	0.00000E+0	-1.69795E+2	3.03507E-1	0.00000E+0	0.00000E+0	1.92522E+1	1.57006E+1	1.92505E+1	1.57019E+1
242	17/03/2023	15:54:42.716	0.00000E+0	0.00000E+0	-1.53184E+2	5.88244E-1	0.00000E+0	0.00000E+0	1.90505E+1	1.58693E+1	1.90483E+1	1.58725E+1
