#Iteration	Date	Time	Chirp	Phase	RamanAxis	RTPhase	NFringe	Ratio
1	02/09/2022	14:43:19.035	0.00000000E+0	-3.14159265E+1	5.00000000E+0	3.31531598E+0	-6.30000000E+2	2.72525192E-1
2	02/09/2022	14:43:20.519	0.00000000E+0	-3.12065382E+1	5.00000000E+0	5.64466580E+0	-6.31000000E+2	2.83232989E-1
3	02/09/2022	14:43:21.908	0.00000000E+0	-3.09971498E+1	5.00000000E+0	2.09388378E+0	-6.30000000E+2	2.96103850E-1
4	02/09/2022	14:43:23.311	0.00000000E+0	-3.07877614E+1	5.00000000E+0	4.25296173E+0	-6.31000000E+2	3.22023854E-1
5	02/09/2022	14:43:24.907	0.00000000E+0	-3.05779895E+1	5.00000000E+0	5.12541331E+0	-6.31000000E+2	3.58833060E-1
6	02/09/2022	14:43:26.301	0.00000000E+0	-3.03686012E+1	5.00000000E+0	5.91502992E+0	-6.30000000E+2	3.70418853E-1
7	02/09/2022	14:43:27.753	0.00000000E+0	-3.01592128E+1	5.00000000E+0	5.40229684E+0	-6.30000000E+2	4.18864850E-1
8	02/09/2022	14:43:29.133	0.00000000E+0	-2.99498244E+1	5.00000000E+0	4.58813654E+0	-6.30000000E+2	4.49717884E-1
9	02/09/2022	14:43:30.515	0.00000000E+0	-2.97404360E+1	5.00000000E+0	5.57256871E+0	-6.31000000E+2	5.01043323E-1
10	02/09/2022	14:43:31.990	0.00000000E+0	-2.95310476E+1	5.00000000E+0	1.54625263E+0	-6.30000000E+2	5.37134507E-1
11	02/09/2022	14:43:33.384	0.00000000E+0	-2.93216593E+1	5.00000000E+0	2.79184503E-1	-6.30000000E+2	5.53851913E-1
12	02/09/2022	14:43:34.849	0.00000000E+0	-2.91122709E+1	5.00000000E+0	4.79215598E+0	-6.31000000E+2	5.91015464E-1
13	02/09/2022	14:43:36.371	0.00000000E+0	-2.89024990E+1	5.00000000E+0	2.61160229E+0	-6.30000000E+2	6.07276173E-1
14	02/09/2022	14:43:37.737	0.00000000E+0	-2.86931106E+1	5.00000000E+0	6.72267080E-1	-6.30000000E+2	6.23074131E-1
15	02/09/2022	14:43:39.231	0.00000000E+0	-2.84837223E+1	5.00000000E+0	3.97492772E+0	-6.31000000E+2	6.27774212E-1
16	02/09/2022	14:43:40.628	0.00000000E+0	-2.82743339E+1	5.00000000E+0	4.99617543E+0	-6.30000000E+2	6.29870262E-1
17	02/09/2022	14:43:42.020	0.00000000E+0	-2.80649455E+1	5.00000000E+0	4.74920452E+0	-6.31000000E+2	6.14894943E-1
18	02/09/2022	14:43:43.485	0.00000000E+0	-2.78555571E+1	5.00000000E+0	2.08928183E+0	-6.30000000E+2	6.15898148E-1
19	02/09/2022	14:43:44.882	0.00000000E+0	-2.76461687E+1	5.00000000E+0	5.36969975E+0	-6.31000000E+2	5.79536743E-1
20	02/09/2022	14:43:46.309	0.00000000E+0	-2.74363969E+1	5.00000000E+0	3.94424810E+0	-6.31000000E+2	5.55813933E-1
21	02/09/2022	14:43:47.827	0.00000000E+0	-2.72270085E+1	5.00000000E+0	4.99157348E+0	-6.30000000E+2	5.28446154E-1
22	02/09/2022	14:43:49.224	0.00000000E+0	-2.70176201E+1	5.00000000E+0	4.45161225E+0	-6.31000000E+2	4.90652843E-1
23	02/09/2022	14:43:50.708	0.00000000E+0	-2.68082317E+1	5.00000000E+0	5.77850563E+0	-6.30000000E+2	4.57664756E-1
24	02/09/2022	14:43:52.100	0.00000000E+0	-2.65988434E+1	5.00000000E+0	4.19198600E+0	-6.31000000E+2	4.08825762E-1
25	02/09/2022	14:43:53.481	0.00000000E+0	-2.63894550E+1	5.00000000E+0	2.33548575E+0	-6.30000000E+2	3.74882257E-1
26	02/09/2022	14:43:55.079	0.00000000E+0	-2.61800666E+1	5.00000000E+0	3.53045678E+0	-6.30000000E+2	3.40789826E-1
27	02/09/2022	14:43:56.463	0.00000000E+0	-2.59706782E+1	5.00000000E+0	1.62678663E+0	-6.30000000E+2	3.25095305E-1
28	02/09/2022	14:43:57.998	0.00000000E+0	-2.57609064E+1	5.00000000E+0	3.70379661E+0	-6.30000000E+2	2.85178086E-1
29	02/09/2022	14:43:59.392	0.00000000E+0	-2.55515180E+1	5.00000000E+0	5.40152985E+0	-6.31000000E+2	2.76044417E-1
30	02/09/2022	14:44:00.793	0.00000000E+0	-2.53421296E+1	5.00000000E+0	5.85635515E+0	-6.30000000E+2	2.70012052E-1
31	02/09/2022	14:44:02.345	0.00000000E+0	-2.51327412E+1	5.00000000E+0	4.44509283E+0	-6.30000000E+2	2.72518244E-1
32	02/09/2022	14:44:03.741	0.00000000E+0	-2.49233529E+1	5.00000000E+0	9.26140901E-1	-6.30000000E+2	2.80416270E-1
33	02/09/2022	14:44:05.217	0.00000000E+0	-2.47139645E+1	5.00000000E+0	4.40904428E+0	-6.30000000E+2	2.94641902E-1
34	02/09/2022	14:44:06.759	0.00000000E+0	-2.45045761E+1	5.00000000E+0	4.09611220E+0	-6.30000000E+2	3.17479818E-1
35	02/09/2022	14:44:08.134	0.00000000E+0	-2.42948042E+1	5.00000000E+0	4.53099575E+0	-6.30000000E+2	3.46407785E-1
36	02/09/2022	14:44:09.591	0.00000000E+0	-2.40854158E+1	5.00000000E+0	4.15517046E+0	-6.30000000E+2	3.91261555E-1
37	02/09/2022	14:44:10.972	0.00000000E+0	-2.38760275E+1	5.00000000E+0	3.33947618E+0	-6.30000000E+2	4.11060535E-1
38	02/09/2022	14:44:12.331	0.00000000E+0	-2.36666391E+1	5.00000000E+0	1.28087396E-1	-6.29000000E+2	4.51497435E-1
39	02/09/2022	14:44:13.859	0.00000000E+0	-2.34572507E+1	5.00000000E+0	4.07195200E+0	-6.31000000E+2	4.93618294E-1
40	02/09/2022	14:44:15.302	0.00000000E+0	-2.32478623E+1	5.00000000E+0	5.18102011E+0	-6.30000000E+2	5.28600047E-1
41	02/09/2022	14:44:16.695	0.00000000E+0	-2.30384740E+1	5.00000000E+0	4.97968513E+0	-6.31000000E+2	5.61643667E-1
42	02/09/2022	14:44:18.067	0.00000000E+0	-2.28290856E+1	5.00000000E+0	1.39247106E+0	-6.30000000E+2	5.93044896E-1
43	02/09/2022	14:44:19.458	0.00000000E+0	-2.26193137E+1	5.00000000E+0	3.43803444E+0	-6.30000000E+2	6.10588675E-1
44	02/09/2022	14:44:20.934	0.00000000E+0	-2.24099253E+1	5.00000000E+0	5.05638417E+0	-6.31000000E+2	6.25924581E-1
45	02/09/2022	14:44:22.329	0.00000000E+0	-2.22005370E+1	5.00000000E+0	5.89585516E+0	-6.30000000E+2	6.32962791E-1
46	02/09/2022	14:44:23.715	0.00000000E+0	-2.19911486E+1	5.00000000E+0	4.85428220E+0	-6.31000000E+2	6.35047645E-1
47	02/09/2022	14:44:25.276	0.00000000E+0	-2.17817602E+1	5.00000000E+0	1.07301956E+0	-6.30000000E+2	6.26491348E-1
48	02/09/2022	14:44:26.678	0.00000000E+0	-2.15723718E+1	5.00000000E+0	4.04894229E+0	-6.31000000E+2	6.17135914E-1
49	02/09/2022	14:44:28.135	0.00000000E+0	-2.13629834E+1	5.00000000E+0	1.08529141E-1	-6.30000000E+2	5.84820084E-1
50	02/09/2022	14:44:29.528	0.00000000E+0	-2.11532116E+1	5.00000000E+0	3.84377236E+0	-6.30000000E+2	5.70935768E-1
51	02/09/2022	14:44:30.918	0.00000000E+0	-2.09438232E+1	5.00000000E+0	5.19866089E+0	-6.31000000E+2	5.20110935E-1
52	02/09/2022	14:44:32.494	0.00000000E+0	-2.07344348E+1	5.00000000E+0	5.23470944E+0	-6.30000000E+2	5.07921706E-1
53	02/09/2022	14:44:33.874	0.00000000E+0	-2.05250464E+1	5.00000000E+0	4.42515108E+0	-6.30000000E+2	4.51216356E-1
54	02/09/2022	14:44:35.355	0.00000000E+0	-2.03156581E+1	5.00000000E+0	5.66729202E+0	-6.31000000E+2	4.13095377E-1
55	02/09/2022	14:44:36.870	0.00000000E+0	-2.01062697E+1	5.00000000E+0	2.94025768E+0	-6.30000000E+2	3.64952781E-1
56	02/09/2022	14:44:38.260	0.00000000E+0	-1.98968813E+1	5.00000000E+0	5.29453469E+0	-6.31000000E+2	3.31959318E-1
57	02/09/2022	14:44:39.823	0.00000000E+0	-1.96874929E+1	5.00000000E+0	4.72466083E+0	-6.31000000E+2	3.10014763E-1
58	02/09/2022	14:44:41.193	0.00000000E+0	-1.94777211E+1	5.00000000E+0	4.25948115E+0	-6.31000000E+2	2.91768690E-1
59	02/09/2022	14:44:42.626	0.00000000E+0	-1.92683327E+1	5.00000000E+0	5.64044736E+0	-6.30000000E+2	2.77955717E-1
60	02/09/2022	14:44:44.106	0.00000000E+0	-1.90589443E+1	5.00000000E+0	4.31086951E+0	-6.31000000E+2	2.71691378E-1
61	02/09/2022	14:44:45.511	0.00000000E+0	-1.88495559E+1	5.00000000E+0	1.67050508E+0	-6.30000000E+2	2.68794913E-1
62	02/09/2022	14:44:46.959	0.00000000E+0	-1.86401675E+1	5.00000000E+0	5.73363669E+0	-6.30000000E+2	2.80255838E-1
63	02/09/2022	14:44:48.359	0.00000000E+0	-1.84307792E+1	5.00000000E+0	5.40152985E+0	-6.31000000E+2	2.98543908E-1
64	02/09/2022	14:44:49.752	0.00000000E+0	-1.82213908E+1	5.00000000E+0	4.41863166E+0	-6.30000000E+2	3.27485121E-1
65	02/09/2022	14:44:51.285	0.00000000E+0	-1.80116189E+1	5.00000000E+0	2.89999068E+0	-6.30000000E+2	3.52415104E-1
66	02/09/2022	14:44:52.683	0.00000000E+0	-1.78022305E+1	5.00000000E+0	4.72504432E+0	-6.31000000E+2	3.75128432E-1
67	02/09/2022	14:44:54.071	0.00000000E+0	-1.75928422E+1	5.00000000E+0	3.44532085E+0	-6.30000000E+2	4.16271413E-1
68	02/09/2022	14:44:55.550	0.00000000E+0	-1.73834538E+1	5.00000000E+0	1.57578176E+0	-6.30000000E+2	4.55102121E-1
69	02/09/2022	14:44:56.938	0.00000000E+0	-1.71740654E+1	5.00000000E+0	5.31025799E+0	-6.31000000E+2	5.08192065E-1
70	02/09/2022	14:44:58.522	0.00000000E+0	-1.69646770E+1	5.00000000E+0	5.35014149E+0	-6.31000000E+2	5.20946503E-1
71	02/09/2022	14:44:59.889	0.00000000E+0	-1.67552887E+1	5.00000000E+0	5.70219008E+0	-6.31000000E+2	5.61903308E-1
72	02/09/2022	14:45:01.297	0.00000000E+0	-1.65459003E+1	5.00000000E+0	2.51419451E+0	-6.30000000E+2	5.89788206E-1
73	02/09/2022	14:45:02.834	0.00000000E+0	-1.63361284E+1	5.00000000E+0	4.65141324E+0	-6.30000000E+2	6.10303271E-1
74	02/09/2022	14:45:04.214	0.00000000E+0	-1.61267400E+1	5.00000000E+0	3.98911704E+0	-6.30000000E+2	6.21928981E-1
75	02/09/2022	14:45:05.687	0.00000000E+0	-1.59173516E+1	5.00000000E+0	3.79468497E+0	-6.31000000E+2	6.27089864E-1
76	02/09/2022	14:45:07.187	0.00000000E+0	-1.57079633E+1	5.00000000E+0	5.49088423E+0	-6.31000000E+2	6.27003143E-1
77	02/09/2022	14:45:08.563	0.00000000E+0	-1.54985749E+1	5.00000000E+0	5.70794251E+0	-6.31000000E+2	6.21433264E-1
78	02/09/2022	14:45:10.103	0.00000000E+0	-1.52891865E+1	5.00000000E+0	2.69482075E+0	-6.30000000E+2	5.98674419E-1
79	02/09/2022	14:45:11.507	0.00000000E+0	-1.50797981E+1	5.00000000E+0	5.67151047E+0	-6.30000000E+2	5.88110033E-1
80	02/09/2022	14:45:12.897	0.00000000E+0	-1.48700263E+1	5.00000000E+0	6.04158333E+0	-6.31000000E+2	5.43508037E-1
81	02/09/2022	14:45:14.450	0.00000000E+0	-1.46606379E+1	5.00000000E+0	3.96725781E+0	-6.31000000E+2	5.15193564E-1
82	02/09/2022	14:45:15.841	0.00000000E+0	-1.44512495E+1	5.00000000E+0	5.44218034E+0	-6.30000000E+2	4.83245602E-1
83	02/09/2022	14:45:17.357	0.00000000E+0	-1.42418611E+1	5.00000000E+0	2.63077705E+0	-6.30000000E+2	4.54958161E-1
84	02/09/2022	14:45:18.780	0.00000000E+0	-1.40324728E+1	5.00000000E+0	4.66291810E+0	-6.31000000E+2	4.07518693E-1
85	02/09/2022	14:45:20.167	0.00000000E+0	-1.38230844E+1	5.00000000E+0	2.95291302E+0	-6.30000000E+2	3.69408901E-1
86	02/09/2022	14:45:21.660	0.00000000E+0	-1.36136960E+1	5.00000000E+0	3.55384999E+0	-6.31000000E+2	3.31334031E-1
87	02/09/2022	14:45:23.041	0.00000000E+0	-1.34043076E+1	5.00000000E+0	3.96265587E+0	-6.30000000E+2	3.14286094E-1
88	02/09/2022	14:45:24.421	0.00000000E+0	-1.31945357E+1	5.00000000E+0	5.73823863E+0	-6.30000000E+2	2.99736831E-1
89	02/09/2022	14:45:25.918	0.00000000E+0	-1.29851474E+1	5.00000000E+0	5.55454443E+0	-6.30000000E+2	2.75547606E-1
90	02/09/2022	14:45:27.286	0.00000000E+0	-1.27757590E+1	5.00000000E+0	5.25886964E+0	-6.30000000E+2	2.69565198E-1
91	02/09/2022	14:45:28.774	0.00000000E+0	-1.25663706E+1	5.00000000E+0	5.05254922E+0	-6.31000000E+2	2.72687283E-1
92	02/09/2022	14:45:30.136	0.00000000E+0	-1.23569822E+1	5.00000000E+0	4.86271910E-1	-6.30000000E+2	2.82753146E-1
93	02/09/2022	14:45:31.530	0.00000000E+0	-1.21475939E+1	5.00000000E+0	4.19390347E+0	-6.30000000E+2	3.02417769E-1
94	02/09/2022	14:45:33.033	0.00000000E+0	-1.19382055E+1	5.00000000E+0	2.33970420E+0	-6.30000000E+2	3.18708373E-1
95	02/09/2022	14:45:34.410	0.00000000E+0	-1.17284336E+1	5.00000000E+0	4.72427733E+0	-6.30000000E+2	3.44809415E-1
96	02/09/2022	14:45:35.853	0.00000000E+0	-1.15190452E+1	5.00000000E+0	5.24314633E+0	-6.31000000E+2	3.89872835E-1
97	02/09/2022	14:45:37.249	0.00000000E+0	-1.13096569E+1	5.00000000E+0	2.91609748E+0	-6.30000000E+2	4.09350104E-1
98	02/09/2022	14:45:38.668	0.00000000E+0	-1.11002685E+1	5.00000000E+0	7.32092331E-1	-6.30000000E+2	4.60845635E-1
99	02/09/2022	14:45:40.169	0.00000000E+0	-1.08908801E+1	5.00000000E+0	2.45705373E+0	-6.30000000E+2	4.88640460E-1
100	02/09/2022	14:45:41.552	0.00000000E+0	-1.06814917E+1	5.00000000E+0	4.38296661E+0	-6.31000000E+2	5.27168266E-1
101	02/09/2022	14:45:42.977	0.00000000E+0	-1.04721033E+1	5.00000000E+0	3.07371400E+0	-6.30000000E+2	5.58408959E-1
102	02/09/2022	14:45:44.473	0.00000000E+0	-1.02627150E+1	5.00000000E+0	4.39370447E+0	-6.31000000E+2	5.97032067E-1
103	02/09/2022	14:45:45.870	0.00000000E+0	-1.00529431E+1	5.00000000E+0	3.45299075E+0	-6.30000000E+2	6.13159681E-1
104	02/09/2022	14:45:47.338	0.00000000E+0	-9.84355472E+0	5.00000000E+0	5.02532106E+0	-6.31000000E+2	6.24462590E-1
105	02/09/2022	14:45:48.721	0.00000000E+0	-9.63416634E+0	5.00000000E+0	5.72596679E+0	-6.31000000E+2	6.27017963E-1
106	02/09/2022	14:45:50.117	0.00000000E+0	-9.42477796E+0	5.00000000E+0	9.31126338E-1	-6.30000000E+2	6.39605101E-1
107	02/09/2022	14:45:51.644	0.00000000E+0	-9.21538958E+0	5.00000000E+0	1.41317980E+0	-6.30000000E+2	6.14992811E-1
108	02/09/2022	14:45:53.025	0.00000000E+0	-9.00600121E+0	5.00000000E+0	6.17887461E+0	-6.30000000E+2	6.04312391E-1
109	02/09/2022	14:45:54.486	0.00000000E+0	-8.79661283E+0	5.00000000E+0	6.12940373E+0	-6.30000000E+2	5.87643035E-1
110	02/09/2022	14:45:55.968	0.00000000E+0	-8.58684096E+0	5.00000000E+0	3.57570922E+0	-6.31000000E+2	5.48495653E-1
111	02/09/2022	14:45:57.398	0.00000000E+0	-8.37745258E+0	5.00000000E+0	3.50437911E+0	-6.30000000E+2	5.27763753E-1
112	02/09/2022	14:45:58.889	0.00000000E+0	-8.16806420E+0	5.00000000E+0	2.95674797E+0	-6.31000000E+2	4.79011516E-1
113	02/09/2022	14:46:00.261	0.00000000E+0	-7.95867582E+0	5.00000000E+0	5.20709778E+0	-6.31000000E+2	4.44939971E-1
114	02/09/2022	14:46:01.646	0.00000000E+0	-7.74928745E+0	5.00000000E+0	5.53345220E+0	-6.30000000E+2	4.18440815E-1
115	02/09/2022	14:46:03.101	0.00000000E+0	-7.53989907E+0	5.00000000E+0	4.71660743E+0	-6.30000000E+2	3.82171558E-1
116	02/09/2022	14:46:04.502	0.00000000E+0	-7.33051069E+0	5.00000000E+0	4.28287436E+0	-6.31000000E+2	3.41071243E-1
117	02/09/2022	14:46:05.922	0.00000000E+0	-7.12112231E+0	5.00000000E+0	1.05461179E+0	-6.30000000E+2	3.15652042E-1
118	02/09/2022	14:46:07.331	0.00000000E+0	-6.91135044E+0	5.00000000E+0	5.10585505E+0	-6.31000000E+2	2.96645485E-1
119	02/09/2022	14:46:08.704	0.00000000E+0	-6.70196206E+0	5.00000000E+0	6.15854937E+0	-6.31000000E+2	2.76494641E-1
120	02/09/2022	14:46:10.239	0.00000000E+0	-6.49257368E+0	5.00000000E+0	1.08414092E+0	-6.30000000E+2	2.71723797E-1
121	02/09/2022	14:46:11.625	0.00000000E+0	-6.28318531E+0	5.00000000E+0	1.36524290E+0	-6.30000000E+2	2.73303635E-1
122	02/09/2022	14:46:13.024	0.00000000E+0	-6.07379693E+0	5.00000000E+0	5.98060760E+0	-6.31000000E+2	2.79788304E-1
123	02/09/2022	14:46:14.515	0.00000000E+0	-5.86440855E+0	5.00000000E+0	1.71038858E-1	-6.29000000E+2	2.96627013E-1
124	02/09/2022	14:46:15.892	0.00000000E+0	-5.65502017E+0	5.00000000E+0	2.92223340E+0	-6.30000000E+2	3.18693940E-1
125	02/09/2022	14:46:17.428	0.00000000E+0	-5.44524830E+0	5.00000000E+0	5.65156872E+0	-6.30000000E+2	3.33823501E-1
126	02/09/2022	14:46:18.807	0.00000000E+0	-5.23585992E+0	5.00000000E+0	5.44486481E+0	-6.30000000E+2	3.75954448E-1
127	02/09/2022	14:46:20.184	0.00000000E+0	-5.02647155E+0	5.00000000E+0	5.83756389E+0	-6.31000000E+2	4.26707169E-1
128	02/09/2022	14:46:21.694	0.00000000E+0	-4.81708317E+0	5.00000000E+0	5.44141335E+0	-6.31000000E+2	4.53375608E-1
129	02/09/2022	14:46:23.076	0.00000000E+0	-4.60769479E+0	5.00000000E+0	5.84446680E+0	-6.31000000E+2	4.90011976E-1
130	02/09/2022	14:46:24.461	0.00000000E+0	-4.39830641E+0	5.00000000E+0	3.83840343E+0	-6.30000000E+2	5.22611521E-1
131	02/09/2022	14:46:25.972	0.00000000E+0	-4.18891804E+0	5.00000000E+0	3.92047140E+0	-6.30000000E+2	5.59822233E-1
132	02/09/2022	14:46:27.367	0.00000000E+0	-3.97952966E+0	5.00000000E+0	2.25226729E+0	-6.30000000E+2	5.82654093E-1
133	02/09/2022	14:46:28.837	0.00000000E+0	-3.76975779E+0	5.00000000E+0	4.79330647E+0	-6.30000000E+2	6.02902878E-1
134	02/09/2022	14:46:30.225	0.00000000E+0	-3.56036941E+0	5.00000000E+0	6.27589890E+0	-6.31000000E+2	6.29771884E-1
135	02/09/2022	14:46:31.627	0.00000000E+0	-3.35098103E+0	5.00000000E+0	5.26653954E+0	-6.30000000E+2	6.28653911E-1
136	02/09/2022	14:46:33.123	0.00000000E+0	-3.14159265E+0	5.00000000E+0	5.43412694E-1	-6.29000000E+2	6.37008241E-1
137	02/09/2022	14:46:34.512	0.00000000E+0	-2.93220428E+0	5.00000000E+0	5.96680177E+0	-6.31000000E+2	6.17027684E-1
138	02/09/2022	14:46:36.040	0.00000000E+0	-2.72281590E+0	5.00000000E+0	4.13983065E+0	-6.30000000E+2	6.03709658E-1
139	02/09/2022	14:46:37.429	0.00000000E+0	-2.51342752E+0	5.00000000E+0	7.23655437E-1	-6.30000000E+2	5.82311867E-1
140	02/09/2022	14:46:38.806	0.00000000E+0	-2.30365565E+0	5.00000000E+0	4.43780642E+0	-6.31000000E+2	5.53278477E-1
141	02/09/2022	14:46:40.280	0.00000000E+0	-2.09426727E+0	5.00000000E+0	2.01334978E+0	-6.30000000E+2	5.16790539E-1
142	02/09/2022	14:46:41.662	0.00000000E+0	-1.88487889E+0	5.00000000E+0	5.63507842E+0	-6.30000000E+2	4.94869468E-1
143	02/09/2022	14:46:43.095	0.00000000E+0	-1.67549052E+0	5.00000000E+0	4.31853941E+0	-6.31000000E+2	4.47166709E-1
144	02/09/2022	14:46:44.571	0.00000000E+0	-1.46610214E+0	5.00000000E+0	1.73224780E+0	-6.30000000E+2	4.15543019E-1
145	02/09/2022	14:46:45.966	0.00000000E+0	-1.25671376E+0	5.00000000E+0	5.39654441E+0	-6.31000000E+2	3.63880714E-1
146	02/09/2022	14:46:47.391	0.00000000E+0	-1.04732538E+0	5.00000000E+0	4.68899577E+0	-6.31000000E+2	3.42985955E-1
147	02/09/2022	14:46:48.770	0.00000000E+0	-8.37937005E-1	5.00000000E+0	3.58759757E+0	-6.30000000E+2	3.15977320E-1
148	02/09/2022	14:46:50.146	0.00000000E+0	-6.28165133E-1	5.00000000E+0	5.36087936E+0	-6.30000000E+2	2.96758685E-1
149	02/09/2022	14:46:51.735	0.00000000E+0	-4.18776755E-1	5.00000000E+0	4.89569968E+0	-6.30000000E+2	2.81027880E-1
150	02/09/2022	14:46:53.124	0.00000000E+0	-2.09388378E-1	5.00000000E+0	2.92606835E-1	-6.30000000E+2	2.77929737E-1
151	02/09/2022	14:46:54.576	0.00000000E+0	0.00000000E+0	5.00000000E+0	5.48935025E+0	-6.30000000E+2	2.73493052E-1
152	02/09/2022	14:46:55.974	0.00000000E+0	2.09388378E-1	5.00000000E+0	3.71990341E+0	-6.30000000E+2	2.83256513E-1
153	02/09/2022	14:46:57.359	0.00000000E+0	4.18776755E-1	5.00000000E+0	4.43435496E+0	-6.30000000E+2	2.96333463E-1
154	02/09/2022	14:46:58.815	0.00000000E+0	6.28165133E-1	5.00000000E+0	4.68170936E+0	-6.30000000E+2	3.14066507E-1
155	02/09/2022	14:47:00.208	0.00000000E+0	8.37937005E-1	5.00000000E+0	4.27443747E+0	-6.31000000E+2	3.55256613E-1
156	02/09/2022	14:47:01.663	0.00000000E+0	1.04732538E+0	5.00000000E+0	4.50530157E+0	-6.31000000E+2	3.79415597E-1
157	02/09/2022	14:47:03.164	0.00000000E+0	1.25671376E+0	5.00000000E+0	6.06114159E+0	-6.31000000E+2	4.17911061E-1
158	02/09/2022	14:47:04.531	0.00000000E+0	1.46610214E+0	5.00000000E+0	1.68431091E+0	-6.30000000E+2	4.45885225E-1
159	02/09/2022	14:47:06.029	0.00000000E+0	1.67549052E+0	5.00000000E+0	4.08844229E+0	-6.30000000E+2	4.87036713E-1
160	02/09/2022	14:47:07.413	0.00000000E+0	1.88487889E+0	5.00000000E+0	3.91088402E+0	-6.31000000E+2	5.22103307E-1
161	02/09/2022	14:47:08.803	0.00000000E+0	2.09426727E+0	5.00000000E+0	5.14995700E+0	-6.30000000E+2	5.50226237E-1
162	02/09/2022	14:47:10.333	0.00000000E+0	2.30365565E+0	5.00000000E+0	4.11298599E+0	-6.31000000E+2	5.83548675E-1
163	02/09/2022	14:47:11.743	0.00000000E+0	2.51342752E+0	5.00000000E+0	5.07479194E+0	-6.31000000E+2	6.03536938E-1
164	02/09/2022	14:47:13.196	0.00000000E+0	2.72281590E+0	5.00000000E+0	2.53183529E+0	-6.30000000E+2	6.20443541E-1
165	02/09/2022	14:47:14.688	0.00000000E+0	2.93220428E+0	5.00000000E+0	5.69950562E+0	-6.30000000E+2	6.30526310E-1
166	02/09/2022	14:47:16.077	0.00000000E+0	3.14159265E+0	5.00000000E+0	5.33940363E+0	-6.31000000E+2	6.24143612E-1
167	02/09/2022	14:47:17.519	0.00000000E+0	3.35098103E+0	5.00000000E+0	5.96373381E+0	-6.30000000E+2	6.24414501E-1
168	02/09/2022	14:47:18.896	0.00000000E+0	3.56036941E+0	5.00000000E+0	3.92392286E+0	-6.30000000E+2	5.98283302E-1
169	02/09/2022	14:47:20.283	0.00000000E+0	3.76975779E+0	5.00000000E+0	5.72673378E+0	-6.31000000E+2	5.80788090E-1
170	02/09/2022	14:47:21.777	0.00000000E+0	3.97952966E+0	5.00000000E+0	4.05354423E-1	-6.30000000E+2	5.55120954E-1
171	02/09/2022	14:47:23.185	0.00000000E+0	4.18891804E+0	5.00000000E+0	4.52447633E+0	-6.30000000E+2	5.14255551E-1
172	02/09/2022	14:47:24.629	0.00000000E+0	4.39830641E+0	5.00000000E+0	1.86800510E+0	-6.30000000E+2	4.90824481E-1
173	02/09/2022	14:47:25.951	0.00000000E+0	4.60769479E+0	5.00000000E+0	2.53298578E+0	-6.30000000E+2	4.48572727E-1
174	02/09/2022	14:47:27.337	0.00000000E+0	4.81708317E+0	5.00000000E+0	3.43534997E+0	-6.30000000E+2	4.15631174E-1
175	02/09/2022	14:47:28.791	0.00000000E+0	5.02647155E+0	5.00000000E+0	5.74935999E+0	-6.30000000E+2	3.75374654E-1
176	02/09/2022	14:47:30.197	0.00000000E+0	5.23585992E+0	5.00000000E+0	4.68631131E+0	-6.30000000E+2	3.45416306E-1
177	02/09/2022	14:47:31.584	0.00000000E+0	5.44524830E+0	5.00000000E+0	1.84921384E+0	-6.30000000E+2	3.09955640E-1
178	02/09/2022	14:47:33.082	0.00000000E+0	5.65502017E+0	5.00000000E+0	4.86502007E+0	-6.30000000E+2	3.03176177E-1
179	02/09/2022	14:47:34.449	0.00000000E+0	5.86440855E+0	5.00000000E+0	4.28095688E+0	-6.30000000E+2	2.77524715E-1
180	02/09/2022	14:47:35.993	0.00000000E+0	6.07379693E+0	5.00000000E+0	4.54441808E+0	-6.30000000E+2	2.74843840E-1
181	02/09/2022	14:47:37.360	0.00000000E+0	6.28318531E+0	5.00000000E+0	3.78433060E+0	-6.30000000E+2	2.70978620E-1
182	02/09/2022	14:47:38.735	0.00000000E+0	6.49257368E+0	5.00000000E+0	5.24429682E+0	-6.30000000E+2	2.82237301E-1
183	02/09/2022	14:47:40.214	0.00000000E+0	6.70196206E+0	5.00000000E+0	5.48551530E+0	-6.31000000E+2	2.94097260E-1
184	02/09/2022	14:47:41.606	0.00000000E+0	6.91135044E+0	5.00000000E+0	6.10907849E-1	-6.29000000E+2	3.16922089E-1
185	02/09/2022	14:47:43.042	0.00000000E+0	7.12112231E+0	5.00000000E+0	5.39040849E+0	-6.31000000E+2	3.43389706E-1
186	02/09/2022	14:47:44.555	0.00000000E+0	7.33051069E+0	5.00000000E+0	3.63476748E+0	-6.31000000E+2	3.73996759E-1
187	02/09/2022	14:47:45.944	0.00000000E+0	7.53989907E+0	5.00000000E+0	5.86901049E+0	-6.30000000E+2	4.07824534E-1
188	02/09/2022	14:47:47.425	0.00000000E+0	7.74928745E+0	5.00000000E+0	3.87713644E+0	-6.31000000E+2	4.57394566E-1
189	02/09/2022	14:47:48.810	0.00000000E+0	7.95867582E+0	5.00000000E+0	4.47308798E+0	-6.30000000E+2	4.99131815E-1
190	02/09/2022	14:47:50.193	0.00000000E+0	8.16806420E+0	5.00000000E+0	4.39255399E+0	-6.30000000E+2	5.23566488E-1
191	02/09/2022	14:47:51.678	0.00000000E+0	8.37745258E+0	5.00000000E+0	9.59504983E-1	-6.30000000E+2	5.52925139E-1
192	02/09/2022	14:47:53.070	0.00000000E+0	8.58684096E+0	5.00000000E+0	2.72204891E+0	-6.30000000E+2	5.91997219E-1
193	02/09/2022	14:47:54.515	0.00000000E+0	8.79661283E+0	5.00000000E+0	3.44685483E+0	-6.30000000E+2	6.00497758E-1
194	02/09/2022	14:47:55.949	0.00000000E+0	9.00600121E+0	5.00000000E+0	1.61528177E+0	-6.30000000E+2	6.21777741E-1
195	02/09/2022	14:47:57.338	0.00000000E+0	9.21538958E+0	5.00000000E+0	1.38250019E+0	-6.30000000E+2	6.22209766E-1
196	02/09/2022	14:47:58.882	0.00000000E+0	9.42477796E+0	5.00000000E+0	5.04296184E+0	-6.31000000E+2	6.28425226E-1
197	02/09/2022	14:48:00.276	0.00000000E+0	9.63416634E+0	5.00000000E+0	2.78647610E+0	-6.30000000E+2	6.17277144E-1
198	02/09/2022	14:48:01.725	0.00000000E+0	9.84355472E+0	5.00000000E+0	4.01634520E+0	-6.30000000E+2	6.01653834E-1
199	02/09/2022	14:48:03.209	0.00000000E+0	1.00529431E+1	5.00000000E+0	4.52332585E+0	-6.31000000E+2	5.77014553E-1
200	02/09/2022	14:48:04.577	0.00000000E+0	1.02627150E+1	5.00000000E+0	4.30626757E+0	-6.31000000E+2	5.40527221E-1
201	02/09/2022	14:48:06.012	0.00000000E+0	1.04721033E+1	5.00000000E+0	4.53636468E+0	-6.30000000E+2	5.23559108E-1
202	02/09/2022	14:48:07.402	0.00000000E+0	1.06814917E+1	5.00000000E+0	6.21530666E+0	-6.31000000E+2	4.87150084E-1
203	02/09/2022	14:48:08.766	0.00000000E+0	1.08908801E+1	5.00000000E+0	2.59127705E+0	-6.30000000E+2	4.53520131E-1
204	02/09/2022	14:48:10.331	0.00000000E+0	1.11002685E+1	5.00000000E+0	3.61482573E+0	-6.31000000E+2	4.08558727E-1
205	02/09/2022	14:48:11.694	0.00000000E+0	1.13096569E+1	5.00000000E+0	5.34822402E+0	-6.31000000E+2	3.71298156E-1
206	02/09/2022	14:48:13.121	0.00000000E+0	1.15190452E+1	5.00000000E+0	3.02194215E-1	-6.30000000E+2	3.47879849E-1
207	02/09/2022	14:48:14.531	0.00000000E+0	1.17284336E+1	5.00000000E+0	4.09879667E+0	-6.31000000E+2	3.20133723E-1
208	02/09/2022	14:48:15.902	0.00000000E+0	1.19382055E+1	5.00000000E+0	4.37759767E+0	-6.31000000E+2	2.92742686E-1
209	02/09/2022	14:48:17.381	0.00000000E+0	1.21475939E+1	5.00000000E+0	5.87744739E+0	-6.30000000E+2	2.85427301E-1
210	02/09/2022	14:48:18.822	0.00000000E+0	1.23569822E+1	5.00000000E+0	4.78678705E+0	-6.31000000E+2	2.71758952E-1
211	02/09/2022	14:48:20.264	0.00000000E+0	1.25663706E+1	5.00000000E+0	2.78110717E+0	-6.30000000E+2	2.73467283E-1
212	02/09/2022	14:48:21.755	0.00000000E+0	1.27757590E+1	5.00000000E+0	5.57448618E+0	-6.30000000E+2	2.77177582E-1
213	02/09/2022	14:48:23.146	0.00000000E+0	1.29851474E+1	5.00000000E+0	4.37836466E+0	-6.31000000E+2	3.02485948E-1
214	02/09/2022	14:48:24.574	0.00000000E+0	1.31945357E+1	5.00000000E+0	2.40067993E-1	-6.30000000E+2	3.22700733E-1
215	02/09/2022	14:48:26.038	0.00000000E+0	1.34043076E+1	5.00000000E+0	2.86125766E+0	-6.30000000E+2	3.43159576E-1
216	02/09/2022	14:48:27.419	0.00000000E+0	1.36136960E+1	5.00000000E+0	4.93519969E+0	-6.30000000E+2	3.68803983E-1
217	02/09/2022	14:48:28.909	0.00000000E+0	1.38230844E+1	5.00000000E+0	1.11673801E+0	-6.30000000E+2	4.23847341E-1
218	02/09/2022	14:48:30.303	0.00000000E+0	1.40324728E+1	5.00000000E+0	9.96704017E-1	-6.30000000E+2	4.44027889E-1
219	02/09/2022	14:48:31.737	0.00000000E+0	1.42418611E+1	5.00000000E+0	9.26524396E-1	-6.30000000E+2	4.93106776E-1
220	02/09/2022	14:48:33.214	0.00000000E+0	1.44512495E+1	5.00000000E+0	4.22074814E+0	-6.30000000E+2	5.26995983E-1
221	02/09/2022	14:48:34.581	0.00000000E+0	1.46606379E+1	5.00000000E+0	3.88097139E-1	-6.29000000E+2	5.56976979E-1
222	02/09/2022	14:48:36.094	0.00000000E+0	1.48700263E+1	5.00000000E+0	2.18784010E+0	-6.30000000E+2	5.83055208E-1
223	02/09/2022	14:48:37.479	0.00000000E+0	1.50797981E+1	5.00000000E+0	4.37951515E+0	-6.31000000E+2	6.01773815E-1
224	02/09/2022	14:48:38.867	0.00000000E+0	1.52891865E+1	5.00000000E+0	5.83794738E+0	-6.30000000E+2	6.16217924E-1
225	02/09/2022	14:48:40.326	0.00000000E+0	1.54985749E+1	5.00000000E+0	2.61927220E-1	-6.29000000E+2	6.28821432E-1
226	02/09/2022	14:48:41.729	0.00000000E+0	1.57079633E+1	5.00000000E+0	1.23408754E+0	-6.30000000E+2	6.19731765E-1
227	02/09/2022	14:48:43.112	0.00000000E+0	1.59173516E+1	5.00000000E+0	4.98543756E-2	-6.29000000E+2	6.20447460E-1
228	02/09/2022	14:48:44.512	0.00000000E+0	1.61267400E+1	5.00000000E+0	9.72543820E-1	-6.30000000E+2	5.95453442E-1
229	02/09/2022	14:48:45.890	0.00000000E+0	1.63361284E+1	5.00000000E+0	3.96303937E+0	-6.30000000E+2	5.84843545E-1
230	02/09/2022	14:48:47.427	0.00000000E+0	1.65459003E+1	5.00000000E+0	4.58008314E+0	-6.31000000E+2	5.50092646E-1
231	02/09/2022	14:48:48.792	0.00000000E+0	1.67552887E+1	5.00000000E+0	4.68631131E+0	-6.31000000E+2	5.10314792E-1
232	02/09/2022	14:48:50.179	0.00000000E+0	1.69646770E+1	5.00000000E+0	4.90988901E+0	-6.30000000E+2	4.90797493E-1
233	02/09/2022	14:48:51.705	0.00000000E+0	1.71740654E+1	5.00000000E+0	5.69030173E+0	-6.31000000E+2	4.41587269E-1
234	02/09/2022	14:48:53.110	0.00000000E+0	1.73834538E+1	5.00000000E+0	3.54541310E+0	-6.30000000E+2	4.18265646E-1
235	02/09/2022	14:48:54.608	0.00000000E+0	1.75928422E+1	5.00000000E+0	5.10892301E+0	-6.30000000E+2	3.86279826E-1
236	02/09/2022	14:48:55.994	0.00000000E+0	1.78022305E+1	5.00000000E+0	4.74076762E+0	-6.31000000E+2	3.38746683E-1
237	02/09/2022	14:48:57.393	0.00000000E+0	1.80116189E+1	5.00000000E+0	1.06534966E+0	-6.29000000E+2	3.13453739E-1
238	02/09/2022	14:48:58.851	0.00000000E+0	1.82213908E+1	5.00000000E+0	5.66115610E+0	-6.30000000E+2	2.97797464E-1
239	02/09/2022	14:49:00.233	0.00000000E+0	1.84307792E+1	5.00000000E+0	5.74053960E+0	-6.31000000E+2	2.79922020E-1
240	02/09/2022	14:49:01.687	0.00000000E+0	1.86401675E+1	5.00000000E+0	5.28341333E+0	-6.30000000E+2	2.71253899E-1
241	02/09/2022	14:49:03.169	0.00000000E+0	1.88495559E+1	5.00000000E+0	5.88856875E+0	-6.31000000E+2	2.70093119E-1
242	02/09/2022	14:49:04.559	0.00000000E+0	1.90589443E+1	5.00000000E+0	4.44662681E+0	-6.30000000E+2	2.85615292E-1
243	02/09/2022	14:49:06.096	0.00000000E+0	1.92683327E+1	5.00000000E+0	2.94716059E+0	-6.30000000E+2	2.99115281E-1
244	02/09/2022	14:49:07.493	0.00000000E+0	1.94777211E+1	5.00000000E+0	4.81938414E+0	-6.31000000E+2	3.08215848E-1
245	02/09/2022	14:49:08.905	0.00000000E+0	1.96874929E+1	5.00000000E+0	6.18232607E+0	-6.31000000E+2	3.35758669E-1
246	02/09/2022	14:49:10.394	0.00000000E+0	1.98968813E+1	5.00000000E+0	5.54073861E+0	-6.30000000E+2	3.86830244E-1
247	02/09/2022	14:49:11.775	0.00000000E+0	2.01062697E+1	5.00000000E+0	1.80971383E+0	-6.30000000E+2	4.05125554E-1
248	02/09/2022	14:49:13.188	0.00000000E+0	2.03156581E+1	5.00000000E+0	2.45743722E+0	-6.30000000E+2	4.51592179E-1
249	02/09/2022	14:49:14.710	0.00000000E+0	2.05250464E+1	5.00000000E+0	4.60999576E+0	-6.31000000E+2	4.86840179E-1
250	02/09/2022	14:49:16.112	0.00000000E+0	2.07344348E+1	5.00000000E+0	1.18269919E+0	-6.30000000E+2	5.11836083E-1
251	02/09/2022	14:49:17.650	0.00000000E+0	2.09438232E+1	5.00000000E+0	2.04019445E-1	-6.29000000E+2	5.44360968E-1
252	02/09/2022	14:49:19.028	0.00000000E+0	2.11532116E+1	5.00000000E+0	2.78340814E+0	-6.30000000E+2	5.84222624E-1
253	02/09/2022	14:49:20.409	0.00000000E+0	2.13629834E+1	5.00000000E+0	3.97531121E+0	-6.31000000E+2	5.92542034E-1
254	02/09/2022	14:49:21.920	0.00000000E+0	2.15723718E+1	5.00000000E+0	3.55500048E+0	-6.31000000E+2	6.17770688E-1
255	02/09/2022	14:49:23.287	0.00000000E+0	2.17817602E+1	5.00000000E+0	2.43902945E-1	-6.30000000E+2	6.16805386E-1
256	02/09/2022	14:49:24.738	0.00000000E+0	2.19911486E+1	5.00000000E+0	4.54595206E+0	-6.31000000E+2	6.26573826E-1
257	02/09/2022	14:49:26.122	0.00000000E+0	2.22005370E+1	5.00000000E+0	1.45651476E+0	-6.30000000E+2	6.18458339E-1
258	02/09/2022	14:49:27.492	0.00000000E+0	2.24099253E+1	5.00000000E+0	2.06282066E+0	-6.30000000E+2	6.00132522E-1
259	02/09/2022	14:49:29.048	0.00000000E+0	2.26193137E+1	5.00000000E+0	4.50606856E+0	-6.30000000E+2	5.74562712E-1
260	02/09/2022	14:49:30.433	0.00000000E+0	2.28290856E+1	5.00000000E+0	3.60293738E+0	-6.30000000E+2	5.50037070E-1
261	02/09/2022	14:49:31.881	0.00000000E+0	2.30384740E+1	5.00000000E+0	2.10155368E-1	-6.29000000E+2	5.28755206E-1
262	02/09/2022	14:49:33.219	0.00000000E+0	2.32478623E+1	5.00000000E+0	2.70364114E-1	-6.30000000E+2	4.81774632E-1
263	02/09/2022	14:49:34.618	0.00000000E+0	2.34572507E+1	5.00000000E+0	2.30097118E-3	-6.29000000E+2	4.50042213E-1
264	02/09/2022	14:49:36.082	0.00000000E+0	2.36666391E+1	5.00000000E+0	5.35282596E+0	-6.30000000E+2	4.17259420E-1
265	02/09/2022	14:49:37.591	0.00000000E+0	2.38760275E+1	5.00000000E+0	4.27021902E+0	-6.30000000E+2	3.75611952E-1
266	02/09/2022	14:49:39.040	0.00000000E+0	2.40854158E+1	5.00000000E+0	5.86479205E+0	-6.30000000E+2	3.43014134E-1
267	02/09/2022	14:49:40.567	0.00000000E+0	2.42948042E+1	5.00000000E+0	1.38595164E+0	-6.30000000E+2	3.10943142E-1
268	02/09/2022	14:49:41.939	0.00000000E+0	2.45045761E+1	5.00000000E+0	3.90359761E+0	-6.31000000E+2	2.95723923E-1
269	02/09/2022	14:49:43.438	0.00000000E+0	2.47139645E+1	5.00000000E+0	1.55814099E+0	-6.30000000E+2	2.78639719E-1
270	02/09/2022	14:49:44.835	0.00000000E+0	2.49233529E+1	5.00000000E+0	4.21537921E+0	-6.30000000E+2	2.72954362E-1
271	02/09/2022	14:49:46.210	0.00000000E+0	2.51327412E+1	5.00000000E+0	5.21783565E+0	-6.30000000E+2	2.74799322E-1
272	02/09/2022	14:49:47.746	0.00000000E+0	2.53421296E+1	5.00000000E+0	6.81854460E-1	-6.30000000E+2	2.75968307E-1
273	02/09/2022	14:49:49.145	0.00000000E+0	2.55515180E+1	5.00000000E+0	4.09189375E-1	-6.30000000E+2	2.98227898E-1
274	02/09/2022	14:49:50.528	0.00000000E+0	2.57609064E+1	5.00000000E+0	6.02509304E+0	-6.31000000E+2	3.15874817E-1
275	02/09/2022	14:49:52.002	0.00000000E+0	2.59706782E+1	5.00000000E+0	5.13921913E+0	-6.30000000E+2	3.43145767E-1
276	02/09/2022	14:49:53.396	0.00000000E+0	2.61800666E+1	5.00000000E+0	4.08077239E+0	-6.31000000E+2	3.73120881E-1
277	02/09/2022	14:49:54.868	0.00000000E+0	2.63894550E+1	5.00000000E+0	2.56174792E+0	-6.30000000E+2	4.04002570E-1
278	02/09/2022	14:49:56.269	0.00000000E+0	2.65988434E+1	5.00000000E+0	3.27083053E+0	-6.31000000E+2	4.49967955E-1
279	02/09/2022	14:49:57.633	0.00000000E+0	2.68082317E+1	5.00000000E+0	4.51565594E+0	-6.31000000E+2	5.03250258E-1
280	02/09/2022	14:49:59.156	0.00000000E+0	2.70176201E+1	5.00000000E+0	2.24459739E+0	-6.30000000E+2	5.21417306E-1
281	02/09/2022	14:50:00.545	0.00000000E+0	2.72270085E+1	5.00000000E+0	1.48067496E+0	-6.30000000E+2	5.61711056E-1
282	02/09/2022	14:50:02.132	0.00000000E+0	2.74363969E+1	5.00000000E+0	5.71868038E+0	-6.30000000E+2	5.77775245E-1
283	02/09/2022	14:50:03.500	0.00000000E+0	2.76461687E+1	5.00000000E+0	4.82782103E+0	-6.30000000E+2	6.05185149E-1
284	02/09/2022	14:50:04.896	0.00000000E+0	2.78555571E+1	5.00000000E+0	6.24061734E+0	-6.31000000E+2	6.23118568E-1
285	02/09/2022	14:50:06.367	0.00000000E+0	2.80649455E+1	5.00000000E+0	4.20080639E+0	-6.30000000E+2	6.23643538E-1
286	02/09/2022	14:50:07.745	0.00000000E+0	2.82743339E+1	5.00000000E+0	4.89263172E+0	-6.30000000E+2	6.26386754E-1
287	02/09/2022	14:50:09.160	0.00000000E+0	2.84837223E+1	5.00000000E+0	4.52869478E+0	-6.30000000E+2	6.21377396E-1
288	02/09/2022	14:50:10.645	0.00000000E+0	2.86931106E+1	5.00000000E+0	4.69244723E+0	-6.31000000E+2	5.97727810E-1
289	02/09/2022	14:50:12.035	0.00000000E+0	2.89024990E+1	5.00000000E+0	2.99126254E-1	-6.29000000E+2	5.78065386E-1
290	02/09/2022	14:50:13.494	0.00000000E+0	2.91122709E+1	5.00000000E+0	5.91196196E+0	-6.30000000E+2	5.54718081E-1
291	02/09/2022	14:50:14.895	0.00000000E+0	2.93216593E+1	5.00000000E+0	1.60262643E+0	-6.30000000E+2	5.27882390E-1
292	02/09/2022	14:50:16.259	0.00000000E+0	2.95310476E+1	5.00000000E+0	5.61168522E+0	-6.31000000E+2	4.83927587E-1
293	02/09/2022	14:50:17.787	0.00000000E+0	2.97404360E+1	5.00000000E+0	4.54633556E+0	-6.30000000E+2	4.39267084E-1
294	02/09/2022	14:50:19.181	0.00000000E+0	2.99498244E+1	5.00000000E+0	1.78095169E+0	-6.30000000E+2	4.06373796E-1
295	02/09/2022	14:50:20.560	0.00000000E+0	3.01592128E+1	5.00000000E+0	3.46296163E-1	-6.29000000E+2	3.80259772E-1
296	02/09/2022	14:50:22.053	0.00000000E+0	3.03686012E+1	5.00000000E+0	1.61834973E-1	-6.30000000E+2	3.43380213E-1
297	02/09/2022	14:50:23.444	0.00000000E+0	3.05779895E+1	5.00000000E+0	2.82981106E+0	-6.30000000E+2	3.16919922E-1
298	02/09/2022	14:50:24.950	0.00000000E+0	3.07877614E+1	5.00000000E+0	4.20118988E+0	-6.30000000E+2	2.95751578E-1
299	02/09/2022	14:50:26.335	0.00000000E+0	3.09971498E+1	5.00000000E+0	3.71491797E+0	-6.31000000E+2	2.70542614E-1
300	02/09/2022	14:50:27.720	0.00000000E+0	3.12065382E+1	5.00000000E+0	3.51588397E+0	-6.30000000E+2	2.73631116E-1
301	02/09/2022	14:50:29.279	0.00000000E+0	3.14159265E+1	5.00000000E+0	4.98121911E+0	-6.30000000E+2	2.73316388E-1
