#Iteration	Date	Time	RTPhase	NFringe	AccelAxis	AccelMean	AccelTemp
1	02/09/2022	14:43:19.035	3.31531598E+0	-6.30000000E+2	2.00000000E+0	-9.80580318E+0	7.16123000E+6
2	02/09/2022	14:43:20.519	5.64466580E+0	-6.31000000E+2	2.00000000E+0	-9.80580318E+0	7.16123000E+6
3	02/09/2022	14:43:21.908	2.09388378E+0	-6.30000000E+2	2.00000000E+0	-9.80580318E+0	7.16123000E+6
4	02/09/2022	14:43:23.311	4.25296173E+0	-6.31000000E+2	2.00000000E+0	-9.80580318E+0	7.16123000E+6
5	02/09/2022	14:43:24.907	5.12541331E+0	-6.31000000E+2	2.00000000E+0	-9.80580318E+0	7.16123000E+6
6	02/09/2022	14:43:26.301	5.91502992E+0	-6.30000000E+2	2.00000000E+0	-9.80580318E+0	7.16123000E+6
7	02/09/2022	14:43:27.753	5.40229684E+0	-6.30000000E+2	2.00000000E+0	-9.80580318E+0	7.16123000E+6
8	02/09/2022	14:43:29.133	4.58813654E+0	-6.30000000E+2	2.00000000E+0	-9.80580318E+0	7.16123000E+6
9	02/09/2022	14:43:30.515	5.57256871E+0	-6.31000000E+2	2.00000000E+0	-9.80580318E+0	7.16123000E+6
10	02/09/2022	14:43:31.990	1.54625263E+0	-6.30000000E+2	2.00000000E+0	-9.80580318E+0	7.16123000E+6
11	02/09/2022	14:43:33.384	2.79184503E-1	-6.30000000E+2	2.00000000E+0	-9.80580318E+0	7.16123000E+6
12	02/09/2022	14:43:34.849	4.79215598E+0	-6.31000000E+2	2.00000000E+0	-9.80580318E+0	7.16123000E+6
13	02/09/2022	14:43:36.371	2.61160229E+0	-6.30000000E+2	2.00000000E+0	-9.80580318E+0	7.16123000E+6
14	02/09/2022	14:43:37.737	6.72267080E-1	-6.30000000E+2	2.00000000E+0	-9.80580318E+0	7.16123000E+6
15	02/09/2022	14:43:39.231	3.97492772E+0	-6.31000000E+2	2.00000000E+0	-9.80580318E+0	7.16123000E+6
16	02/09/2022	14:43:40.628	4.99617543E+0	-6.30000000E+2	2.00000000E+0	-9.80580318E+0	7.16123000E+6
17	02/09/2022	14:43:42.020	4.74920452E+0	-6.31000000E+2	2.00000000E+0	-9.80580318E+0	7.16123000E+6
18	02/09/2022	14:43:43.485	2.08928183E+0	-6.30000000E+2	2.00000000E+0	-9.80580318E+0	7.16123000E+6
19	02/09/2022	14:43:44.882	5.36969975E+0	-6.31000000E+2	2.00000000E+0	-9.80580318E+0	7.16123000E+6
20	02/09/2022	14:43:46.309	3.94424810E+0	-6.31000000E+2	2.00000000E+0	-9.80580318E+0	7.16123000E+6
21	02/09/2022	14:43:47.827	4.99157348E+0	-6.30000000E+2	2.00000000E+0	-9.80580318E+0	7.16123000E+6
22	02/09/2022	14:43:49.224	4.45161225E+0	-6.31000000E+2	2.00000000E+0	-9.80580318E+0	7.16123000E+6
23	02/09/2022	14:43:50.708	5.77850563E+0	-6.30000000E+2	2.00000000E+0	-9.80580318E+0	7.16123000E+6
24	02/09/2022	14:43:52.100	4.19198600E+0	-6.31000000E+2	2.00000000E+0	-9.80580318E+0	7.16123000E+6
25	02/09/2022	14:43:53.481	2.33548575E+0	-6.30000000E+2	2.00000000E+0	-9.80580318E+0	7.16123000E+6
26	02/09/2022	14:43:55.079	3.53045678E+0	-6.30000000E+2	2.00000000E+0	-9.80580318E+0	7.16123000E+6
27	02/09/2022	14:43:56.463	1.62678663E+0	-6.30000000E+2	2.00000000E+0	-9.80580318E+0	7.16123000E+6
28	02/09/2022	14:43:57.998	3.70379661E+0	-6.30000000E+2	2.00000000E+0	-9.80580318E+0	7.16123000E+6
29	02/09/2022	14:43:59.392	5.40152985E+0	-6.31000000E+2	2.00000000E+0	-9.80580318E+0	7.16123000E+6
30	02/09/2022	14:44:00.793	5.85635515E+0	-6.30000000E+2	2.00000000E+0	-9.80580318E+0	7.16123000E+6
31	02/09/2022	14:44:02.345	4.44509283E+0	-6.30000000E+2	2.00000000E+0	-9.80580318E+0	7.16123000E+6
32	02/09/2022	14:44:03.741	9.26140901E-1	-6.30000000E+2	2.00000000E+0	-9.80580318E+0	7.16123000E+6
33	02/09/2022	14:44:05.217	4.40904428E+0	-6.30000000E+2	2.00000000E+0	-9.80580318E+0	7.16123000E+6
34	02/09/2022	14:44:06.759	4.09611220E+0	-6.30000000E+2	2.00000000E+0	-9.80580318E+0	7.16123000E+6
35	02/09/2022	14:44:08.134	4.53099575E+0	-6.30000000E+2	2.00000000E+0	-9.80580318E+0	7.16123000E+6
36	02/09/2022	14:44:09.591	4.15517046E+0	-6.30000000E+2	2.00000000E+0	-9.80580318E+0	7.16123000E+6
37	02/09/2022	14:44:10.972	3.33947618E+0	-6.30000000E+2	2.00000000E+0	-9.80580318E+0	7.16123000E+6
38	02/09/2022	14:44:12.331	1.28087396E-1	-6.29000000E+2	2.00000000E+0	-9.80580318E+0	7.16123000E+6
39	02/09/2022	14:44:13.859	4.07195200E+0	-6.31000000E+2	2.00000000E+0	-9.80580318E+0	7.16123000E+6
40	02/09/2022	14:44:15.302	5.18102011E+0	-6.30000000E+2	2.00000000E+0	-9.80580318E+0	7.16123000E+6
41	02/09/2022	14:44:16.695	4.97968513E+0	-6.31000000E+2	2.00000000E+0	-9.80580318E+0	7.16123000E+6
42	02/09/2022	14:44:18.067	1.39247106E+0	-6.30000000E+2	2.00000000E+0	-9.80580318E+0	7.16123000E+6
43	02/09/2022	14:44:19.458	3.43803444E+0	-6.30000000E+2	2.00000000E+0	-9.80580318E+0	7.16123000E+6
44	02/09/2022	14:44:20.934	5.05638417E+0	-6.31000000E+2	2.00000000E+0	-9.80580318E+0	7.16123000E+6
45	02/09/2022	14:44:22.329	5.89585516E+0	-6.30000000E+2	2.00000000E+0	-9.80580318E+0	7.16123000E+6
46	02/09/2022	14:44:23.715	4.85428220E+0	-6.31000000E+2	2.00000000E+0	-9.80580318E+0	7.16123000E+6
47	02/09/2022	14:44:25.276	1.07301956E+0	-6.30000000E+2	2.00000000E+0	-9.80580318E+0	7.16123000E+6
48	02/09/2022	14:44:26.678	4.04894229E+0	-6.31000000E+2	2.00000000E+0	-9.80580318E+0	7.16123000E+6
49	02/09/2022	14:44:28.135	1.08529141E-1	-6.30000000E+2	2.00000000E+0	-9.80580318E+0	7.16123000E+6
50	02/09/2022	14:44:29.528	3.84377236E+0	-6.30000000E+2	2.00000000E+0	-9.80580318E+0	7.16123000E+6
51	02/09/2022	14:44:30.918	5.19866089E+0	-6.31000000E+2	2.00000000E+0	-9.80580318E+0	7.16123000E+6
52	02/09/2022	14:44:32.494	5.23470944E+0	-6.30000000E+2	2.00000000E+0	-9.80580318E+0	7.16123000E+6
53	02/09/2022	14:44:33.874	4.42515108E+0	-6.30000000E+2	2.00000000E+0	-9.80580318E+0	7.16123000E+6
54	02/09/2022	14:44:35.355	5.66729202E+0	-6.31000000E+2	2.00000000E+0	-9.80580318E+0	7.16123000E+6
55	02/09/2022	14:44:36.870	2.94025768E+0	-6.30000000E+2	2.00000000E+0	-9.80580318E+0	7.16123000E+6
56	02/09/2022	14:44:38.260	5.29453469E+0	-6.31000000E+2	2.00000000E+0	-9.80580318E+0	7.16123000E+6
57	02/09/2022	14:44:39.823	4.72466083E+0	-6.31000000E+2	2.00000000E+0	-9.80580318E+0	7.16123000E+6
58	02/09/2022	14:44:41.193	4.25948115E+0	-6.31000000E+2	2.00000000E+0	-9.80580318E+0	7.16123000E+6
59	02/09/2022	14:44:42.626	5.64044736E+0	-6.30000000E+2	2.00000000E+0	-9.80580318E+0	7.16123000E+6
60	02/09/2022	14:44:44.106	4.31086951E+0	-6.31000000E+2	2.00000000E+0	-9.80580318E+0	7.16123000E+6
61	02/09/2022	14:44:45.511	1.67050508E+0	-6.30000000E+2	2.00000000E+0	-9.80580318E+0	7.16123000E+6
62	02/09/2022	14:44:46.959	5.73363669E+0	-6.30000000E+2	2.00000000E+0	-9.80580318E+0	7.16123000E+6
63	02/09/2022	14:44:48.359	5.40152985E+0	-6.31000000E+2	2.00000000E+0	-9.80580318E+0	7.16123000E+6
64	02/09/2022	14:44:49.752	4.41863166E+0	-6.30000000E+2	2.00000000E+0	-9.80580318E+0	7.16123000E+6
65	02/09/2022	14:44:51.285	2.89999068E+0	-6.30000000E+2	2.00000000E+0	-9.80580318E+0	7.16123000E+6
66	02/09/2022	14:44:52.683	4.72504432E+0	-6.31000000E+2	2.00000000E+0	-9.80580318E+0	7.16123000E+6
67	02/09/2022	14:44:54.071	3.44532085E+0	-6.30000000E+2	2.00000000E+0	-9.80580318E+0	7.16123000E+6
68	02/09/2022	14:44:55.550	1.57578176E+0	-6.30000000E+2	2.00000000E+0	-9.80580318E+0	7.16123000E+6
69	02/09/2022	14:44:56.938	5.31025799E+0	-6.31000000E+2	2.00000000E+0	-9.80580318E+0	7.16123000E+6
70	02/09/2022	14:44:58.522	5.35014149E+0	-6.31000000E+2	2.00000000E+0	-9.80580318E+0	7.16123000E+6
71	02/09/2022	14:44:59.889	5.70219008E+0	-6.31000000E+2	2.00000000E+0	-9.80580318E+0	7.16123000E+6
72	02/09/2022	14:45:01.297	2.51419451E+0	-6.30000000E+2	2.00000000E+0	-9.80580318E+0	7.16123000E+6
73	02/09/2022	14:45:02.834	4.65141324E+0	-6.30000000E+2	2.00000000E+0	-9.80580318E+0	7.16123000E+6
74	02/09/2022	14:45:04.214	3.98911704E+0	-6.30000000E+2	2.00000000E+0	-9.80580318E+0	7.16123000E+6
75	02/09/2022	14:45:05.687	3.79468497E+0	-6.31000000E+2	2.00000000E+0	-9.80580318E+0	7.16123000E+6
76	02/09/2022	14:45:07.187	5.49088423E+0	-6.31000000E+2	2.00000000E+0	-9.80580318E+0	7.16123000E+6
77	02/09/2022	14:45:08.563	5.70794251E+0	-6.31000000E+2	2.00000000E+0	-9.80580318E+0	7.16123000E+6
78	02/09/2022	14:45:10.103	2.69482075E+0	-6.30000000E+2	2.00000000E+0	-9.80580318E+0	7.16123000E+6
79	02/09/2022	14:45:11.507	5.67151047E+0	-6.30000000E+2	2.00000000E+0	-9.80580318E+0	7.16123000E+6
80	02/09/2022	14:45:12.897	6.04158333E+0	-6.31000000E+2	2.00000000E+0	-9.80580318E+0	7.16123000E+6
81	02/09/2022	14:45:14.450	3.96725781E+0	-6.31000000E+2	2.00000000E+0	-9.80580318E+0	7.16123000E+6
82	02/09/2022	14:45:15.841	5.44218034E+0	-6.30000000E+2	2.00000000E+0	-9.80580318E+0	7.16123000E+6
83	02/09/2022	14:45:17.357	2.63077705E+0	-6.30000000E+2	2.00000000E+0	-9.80580318E+0	7.16123000E+6
84	02/09/2022	14:45:18.780	4.66291810E+0	-6.31000000E+2	2.00000000E+0	-9.80580318E+0	7.16123000E+6
85	02/09/2022	14:45:20.167	2.95291302E+0	-6.30000000E+2	2.00000000E+0	-9.80580318E+0	7.16123000E+6
86	02/09/2022	14:45:21.660	3.55384999E+0	-6.31000000E+2	2.00000000E+0	-9.80580318E+0	7.16123000E+6
87	02/09/2022	14:45:23.041	3.96265587E+0	-6.30000000E+2	2.00000000E+0	-9.80580318E+0	7.16123000E+6
88	02/09/2022	14:45:24.421	5.73823863E+0	-6.30000000E+2	2.00000000E+0	-9.80580318E+0	7.16123000E+6
89	02/09/2022	14:45:25.918	5.55454443E+0	-6.30000000E+2	2.00000000E+0	-9.80580318E+0	7.16123000E+6
90	02/09/2022	14:45:27.286	5.25886964E+0	-6.30000000E+2	2.00000000E+0	-9.80580318E+0	7.16123000E+6
91	02/09/2022	14:45:28.774	5.05254922E+0	-6.31000000E+2	2.00000000E+0	-9.80580318E+0	7.16123000E+6
92	02/09/2022	14:45:30.136	4.86271910E-1	-6.30000000E+2	2.00000000E+0	-9.80580318E+0	7.16123000E+6
93	02/09/2022	14:45:31.530	4.19390347E+0	-6.30000000E+2	2.00000000E+0	-9.80580318E+0	7.16123000E+6
94	02/09/2022	14:45:33.033	2.33970420E+0	-6.30000000E+2	2.00000000E+0	-9.80580318E+0	7.16123000E+6
95	02/09/2022	14:45:34.410	4.72427733E+0	-6.30000000E+2	2.00000000E+0	-9.80580318E+0	7.16123000E+6
96	02/09/2022	14:45:35.853	5.24314633E+0	-6.31000000E+2	2.00000000E+0	-9.80580318E+0	7.16123000E+6
97	02/09/2022	14:45:37.249	2.91609748E+0	-6.30000000E+2	2.00000000E+0	-9.80580318E+0	7.16123000E+6
98	02/09/2022	14:45:38.668	7.32092331E-1	-6.30000000E+2	2.00000000E+0	-9.80580318E+0	7.16123000E+6
99	02/09/2022	14:45:40.169	2.45705373E+0	-6.30000000E+2	2.00000000E+0	-9.80580318E+0	7.16123000E+6
100	02/09/2022	14:45:41.552	4.38296661E+0	-6.31000000E+2	2.00000000E+0	-9.80580318E+0	7.16123000E+6
101	02/09/2022	14:45:42.977	3.07371400E+0	-6.30000000E+2	2.00000000E+0	-9.80580318E+0	7.16123000E+6
102	02/09/2022	14:45:44.473	4.39370447E+0	-6.31000000E+2	2.00000000E+0	-9.80580318E+0	7.16123000E+6
103	02/09/2022	14:45:45.870	3.45299075E+0	-6.30000000E+2	2.00000000E+0	-9.80580318E+0	7.16123000E+6
104	02/09/2022	14:45:47.338	5.02532106E+0	-6.31000000E+2	2.00000000E+0	-9.80580318E+0	7.16123000E+6
105	02/09/2022	14:45:48.721	5.72596679E+0	-6.31000000E+2	2.00000000E+0	-9.80580318E+0	7.16123000E+6
106	02/09/2022	14:45:50.117	9.31126338E-1	-6.30000000E+2	2.00000000E+0	-9.80580318E+0	7.16123000E+6
107	02/09/2022	14:45:51.644	1.41317980E+0	-6.30000000E+2	2.00000000E+0	-9.80580318E+0	7.16123000E+6
108	02/09/2022	14:45:53.025	6.17887461E+0	-6.30000000E+2	2.00000000E+0	-9.80580318E+0	7.16123000E+6
109	02/09/2022	14:45:54.486	6.12940373E+0	-6.30000000E+2	2.00000000E+0	-9.80580318E+0	7.16123000E+6
110	02/09/2022	14:45:55.968	3.57570922E+0	-6.31000000E+2	2.00000000E+0	-9.80580318E+0	7.16123000E+6
111	02/09/2022	14:45:57.398	3.50437911E+0	-6.30000000E+2	2.00000000E+0	-9.80580318E+0	7.16123000E+6
112	02/09/2022	14:45:58.889	2.95674797E+0	-6.31000000E+2	2.00000000E+0	-9.80580318E+0	7.16123000E+6
113	02/09/2022	14:46:00.261	5.20709778E+0	-6.31000000E+2	2.00000000E+0	-9.80580318E+0	7.16123000E+6
114	02/09/2022	14:46:01.646	5.53345220E+0	-6.30000000E+2	2.00000000E+0	-9.80580318E+0	7.16123000E+6
115	02/09/2022	14:46:03.101	4.71660743E+0	-6.30000000E+2	2.00000000E+0	-9.80580318E+0	7.16123000E+6
116	02/09/2022	14:46:04.502	4.28287436E+0	-6.31000000E+2	2.00000000E+0	-9.80580318E+0	7.16123000E+6
117	02/09/2022	14:46:05.922	1.05461179E+0	-6.30000000E+2	2.00000000E+0	-9.80580318E+0	7.16123000E+6
118	02/09/2022	14:46:07.331	5.10585505E+0	-6.31000000E+2	2.00000000E+0	-9.80580318E+0	7.16123000E+6
119	02/09/2022	14:46:08.704	6.15854937E+0	-6.31000000E+2	2.00000000E+0	-9.80580318E+0	7.16123000E+6
120	02/09/2022	14:46:10.239	1.08414092E+0	-6.30000000E+2	2.00000000E+0	-9.80580318E+0	7.16123000E+6
121	02/09/2022	14:46:11.625	1.36524290E+0	-6.30000000E+2	2.00000000E+0	-9.80580318E+0	7.16123000E+6
122	02/09/2022	14:46:13.024	5.98060760E+0	-6.31000000E+2	2.00000000E+0	-9.80580318E+0	7.16123000E+6
123	02/09/2022	14:46:14.515	1.71038858E-1	-6.29000000E+2	2.00000000E+0	-9.80580318E+0	7.16123000E+6
124	02/09/2022	14:46:15.892	2.92223340E+0	-6.30000000E+2	2.00000000E+0	-9.80580318E+0	7.16123000E+6
125	02/09/2022	14:46:17.428	5.65156872E+0	-6.30000000E+2	2.00000000E+0	-9.80580318E+0	7.16123000E+6
126	02/09/2022	14:46:18.807	5.44486481E+0	-6.30000000E+2	2.00000000E+0	-9.80580318E+0	7.16123000E+6
127	02/09/2022	14:46:20.184	5.83756389E+0	-6.31000000E+2	2.00000000E+0	-9.80580318E+0	7.16123000E+6
128	02/09/2022	14:46:21.694	5.44141335E+0	-6.31000000E+2	2.00000000E+0	-9.80580318E+0	7.16123000E+6
129	02/09/2022	14:46:23.076	5.84446680E+0	-6.31000000E+2	2.00000000E+0	-9.80580318E+0	7.16123000E+6
130	02/09/2022	14:46:24.461	3.83840343E+0	-6.30000000E+2	2.00000000E+0	-9.80580318E+0	7.16123000E+6
131	02/09/2022	14:46:25.972	3.92047140E+0	-6.30000000E+2	2.00000000E+0	-9.80580318E+0	7.16123000E+6
132	02/09/2022	14:46:27.367	2.25226729E+0	-6.30000000E+2	2.00000000E+0	-9.80580318E+0	7.16123000E+6
133	02/09/2022	14:46:28.837	4.79330647E+0	-6.30000000E+2	2.00000000E+0	-9.80580318E+0	7.16123000E+6
134	02/09/2022	14:46:30.225	6.27589890E+0	-6.31000000E+2	2.00000000E+0	-9.80580318E+0	7.16123000E+6
135	02/09/2022	14:46:31.627	5.26653954E+0	-6.30000000E+2	2.00000000E+0	-9.80580318E+0	7.16123000E+6
136	02/09/2022	14:46:33.123	5.43412694E-1	-6.29000000E+2	2.00000000E+0	-9.80580318E+0	7.16123000E+6
137	02/09/2022	14:46:34.512	5.96680177E+0	-6.31000000E+2	2.00000000E+0	-9.80580318E+0	7.16123000E+6
138	02/09/2022	14:46:36.040	4.13983065E+0	-6.30000000E+2	2.00000000E+0	-9.80580318E+0	7.16123000E+6
139	02/09/2022	14:46:37.429	7.23655437E-1	-6.30000000E+2	2.00000000E+0	-9.80580318E+0	7.16123000E+6
140	02/09/2022	14:46:38.806	4.43780642E+0	-6.31000000E+2	2.00000000E+0	-9.80580318E+0	7.16123000E+6
141	02/09/2022	14:46:40.280	2.01334978E+0	-6.30000000E+2	2.00000000E+0	-9.80580318E+0	7.16123000E+6
142	02/09/2022	14:46:41.662	5.63507842E+0	-6.30000000E+2	2.00000000E+0	-9.80580318E+0	7.16123000E+6
143	02/09/2022	14:46:43.095	4.31853941E+0	-6.31000000E+2	2.00000000E+0	-9.80580318E+0	7.16123000E+6
144	02/09/2022	14:46:44.571	1.73224780E+0	-6.30000000E+2	2.00000000E+0	-9.80580318E+0	7.16123000E+6
145	02/09/2022	14:46:45.966	5.39654441E+0	-6.31000000E+2	2.00000000E+0	-9.80580318E+0	7.16123000E+6
146	02/09/2022	14:46:47.391	4.68899577E+0	-6.31000000E+2	2.00000000E+0	-9.80580318E+0	7.16123000E+6
147	02/09/2022	14:46:48.770	3.58759757E+0	-6.30000000E+2	2.00000000E+0	-9.80580318E+0	7.16123000E+6
148	02/09/2022	14:46:50.146	5.36087936E+0	-6.30000000E+2	2.00000000E+0	-9.80580318E+0	7.16123000E+6
149	02/09/2022	14:46:51.735	4.89569968E+0	-6.30000000E+2	2.00000000E+0	-9.80580318E+0	7.16123000E+6
150	02/09/2022	14:46:53.124	2.92606835E-1	-6.30000000E+2	2.00000000E+0	-9.80580318E+0	7.16123000E+6
151	02/09/2022	14:46:54.576	5.48935025E+0	-6.30000000E+2	2.00000000E+0	-9.80580318E+0	7.16123000E+6
152	02/09/2022	14:46:55.974	3.71990341E+0	-6.30000000E+2	2.00000000E+0	-9.80580318E+0	7.16123000E+6
153	02/09/2022	14:46:57.359	4.43435496E+0	-6.30000000E+2	2.00000000E+0	-9.80580318E+0	7.16123000E+6
154	02/09/2022	14:46:58.815	4.68170936E+0	-6.30000000E+2	2.00000000E+0	-9.80580318E+0	7.16123000E+6
155	02/09/2022	14:47:00.208	4.27443747E+0	-6.31000000E+2	2.00000000E+0	-9.80580318E+0	7.16123000E+6
156	02/09/2022	14:47:01.663	4.50530157E+0	-6.31000000E+2	2.00000000E+0	-9.80580318E+0	7.16123000E+6
157	02/09/2022	14:47:03.164	6.06114159E+0	-6.31000000E+2	2.00000000E+0	-9.80580318E+0	7.16123000E+6
158	02/09/2022	14:47:04.531	1.68431091E+0	-6.30000000E+2	2.00000000E+0	-9.80580318E+0	7.16123000E+6
159	02/09/2022	14:47:06.029	4.08844229E+0	-6.30000000E+2	2.00000000E+0	-9.80580318E+0	7.16123000E+6
160	02/09/2022	14:47:07.413	3.91088402E+0	-6.31000000E+2	2.00000000E+0	-9.80580318E+0	7.16123000E+6
161	02/09/2022	14:47:08.803	5.14995700E+0	-6.30000000E+2	2.00000000E+0	-9.80580318E+0	7.16123000E+6
162	02/09/2022	14:47:10.333	4.11298599E+0	-6.31000000E+2	2.00000000E+0	-9.80580318E+0	7.16123000E+6
163	02/09/2022	14:47:11.743	5.07479194E+0	-6.31000000E+2	2.00000000E+0	-9.80580318E+0	7.16123000E+6
164	02/09/2022	14:47:13.196	2.53183529E+0	-6.30000000E+2	2.00000000E+0	-9.80580318E+0	7.16123000E+6
165	02/09/2022	14:47:14.688	5.69950562E+0	-6.30000000E+2	2.00000000E+0	-9.80580318E+0	7.16123000E+6
166	02/09/2022	14:47:16.077	5.33940363E+0	-6.31000000E+2	2.00000000E+0	-9.80580318E+0	7.16123000E+6
167	02/09/2022	14:47:17.519	5.96373381E+0	-6.30000000E+2	2.00000000E+0	-9.80580318E+0	7.16123000E+6
168	02/09/2022	14:47:18.896	3.92392286E+0	-6.30000000E+2	2.00000000E+0	-9.80580318E+0	7.16123000E+6
169	02/09/2022	14:47:20.283	5.72673378E+0	-6.31000000E+2	2.00000000E+0	-9.80580318E+0	7.16123000E+6
170	02/09/2022	14:47:21.777	4.05354423E-1	-6.30000000E+2	2.00000000E+0	-9.80580318E+0	7.16123000E+6
171	02/09/2022	14:47:23.185	4.52447633E+0	-6.30000000E+2	2.00000000E+0	-9.80580318E+0	7.16123000E+6
172	02/09/2022	14:47:24.629	1.86800510E+0	-6.30000000E+2	2.00000000E+0	-9.80580318E+0	7.16123000E+6
173	02/09/2022	14:47:25.951	2.53298578E+0	-6.30000000E+2	2.00000000E+0	-9.80580318E+0	7.16123000E+6
174	02/09/2022	14:47:27.337	3.43534997E+0	-6.30000000E+2	2.00000000E+0	-9.80580318E+0	7.16123000E+6
175	02/09/2022	14:47:28.791	5.74935999E+0	-6.30000000E+2	2.00000000E+0	-9.80580318E+0	7.16123000E+6
176	02/09/2022	14:47:30.197	4.68631131E+0	-6.30000000E+2	2.00000000E+0	-9.80580318E+0	7.16123000E+6
177	02/09/2022	14:47:31.584	1.84921384E+0	-6.30000000E+2	2.00000000E+0	-9.80580318E+0	7.16123000E+6
178	02/09/2022	14:47:33.082	4.86502007E+0	-6.30000000E+2	2.00000000E+0	-9.80580318E+0	7.16123000E+6
179	02/09/2022	14:47:34.449	4.28095688E+0	-6.30000000E+2	2.00000000E+0	-9.80580318E+0	7.16123000E+6
180	02/09/2022	14:47:35.993	4.54441808E+0	-6.30000000E+2	2.00000000E+0	-9.80580318E+0	7.16123000E+6
181	02/09/2022	14:47:37.360	3.78433060E+0	-6.30000000E+2	2.00000000E+0	-9.80580318E+0	7.16123000E+6
182	02/09/2022	14:47:38.735	5.24429682E+0	-6.30000000E+2	2.00000000E+0	-9.80580318E+0	7.16123000E+6
183	02/09/2022	14:47:40.214	5.48551530E+0	-6.31000000E+2	2.00000000E+0	-9.80580318E+0	7.16123000E+6
184	02/09/2022	14:47:41.606	6.10907849E-1	-6.29000000E+2	2.00000000E+0	-9.80580318E+0	7.16123000E+6
185	02/09/2022	14:47:43.042	5.39040849E+0	-6.31000000E+2	2.00000000E+0	-9.80580318E+0	7.16123000E+6
186	02/09/2022	14:47:44.555	3.63476748E+0	-6.31000000E+2	2.00000000E+0	-9.80580318E+0	7.16123000E+6
187	02/09/2022	14:47:45.944	5.86901049E+0	-6.30000000E+2	2.00000000E+0	-9.80580318E+0	7.16123000E+6
188	02/09/2022	14:47:47.425	3.87713644E+0	-6.31000000E+2	2.00000000E+0	-9.80580318E+0	7.16123000E+6
189	02/09/2022	14:47:48.810	4.47308798E+0	-6.30000000E+2	2.00000000E+0	-9.80580318E+0	7.16123000E+6
190	02/09/2022	14:47:50.193	4.39255399E+0	-6.30000000E+2	2.00000000E+0	-9.80580318E+0	7.16123000E+6
191	02/09/2022	14:47:51.678	9.59504983E-1	-6.30000000E+2	2.00000000E+0	-9.80580318E+0	7.16123000E+6
192	02/09/2022	14:47:53.070	2.72204891E+0	-6.30000000E+2	2.00000000E+0	-9.80580318E+0	7.16123000E+6
193	02/09/2022	14:47:54.515	3.44685483E+0	-6.30000000E+2	2.00000000E+0	-9.80580318E+0	7.16123000E+6
194	02/09/2022	14:47:55.949	1.61528177E+0	-6.30000000E+2	2.00000000E+0	-9.80580318E+0	7.16123000E+6
195	02/09/2022	14:47:57.338	1.38250019E+0	-6.30000000E+2	2.00000000E+0	-9.80580318E+0	7.16123000E+6
196	02/09/2022	14:47:58.882	5.04296184E+0	-6.31000000E+2	2.00000000E+0	-9.80580318E+0	7.16123000E+6
197	02/09/2022	14:48:00.276	2.78647610E+0	-6.30000000E+2	2.00000000E+0	-9.80580318E+0	7.16123000E+6
198	02/09/2022	14:48:01.725	4.01634520E+0	-6.30000000E+2	2.00000000E+0	-9.80580318E+0	7.16123000E+6
199	02/09/2022	14:48:03.209	4.52332585E+0	-6.31000000E+2	2.00000000E+0	-9.80580318E+0	7.16123000E+6
200	02/09/2022	14:48:04.577	4.30626757E+0	-6.31000000E+2	2.00000000E+0	-9.80580318E+0	7.16123000E+6
201	02/09/2022	14:48:06.012	4.53636468E+0	-6.30000000E+2	2.00000000E+0	-9.80580318E+0	7.16123000E+6
202	02/09/2022	14:48:07.402	6.21530666E+0	-6.31000000E+2	2.00000000E+0	-9.80580318E+0	7.16123000E+6
203	02/09/2022	14:48:08.766	2.59127705E+0	-6.30000000E+2	2.00000000E+0	-9.80580318E+0	7.16123000E+6
204	02/09/2022	14:48:10.331	3.61482573E+0	-6.31000000E+2	2.00000000E+0	-9.80580318E+0	7.16123000E+6
205	02/09/2022	14:48:11.694	5.34822402E+0	-6.31000000E+2	2.00000000E+0	-9.80580318E+0	7.16123000E+6
206	02/09/2022	14:48:13.121	3.02194215E-1	-6.30000000E+2	2.00000000E+0	-9.80580318E+0	7.16123000E+6
207	02/09/2022	14:48:14.531	4.09879667E+0	-6.31000000E+2	2.00000000E+0	-9.80580318E+0	7.16123000E+6
208	02/09/2022	14:48:15.902	4.37759767E+0	-6.31000000E+2	2.00000000E+0	-9.80580318E+0	7.16123000E+6
209	02/09/2022	14:48:17.381	5.87744739E+0	-6.30000000E+2	2.00000000E+0	-9.80580318E+0	7.16123000E+6
210	02/09/2022	14:48:18.822	4.78678705E+0	-6.31000000E+2	2.00000000E+0	-9.80580318E+0	7.16123000E+6
211	02/09/2022	14:48:20.264	2.78110717E+0	-6.30000000E+2	2.00000000E+0	-9.80580318E+0	7.16123000E+6
212	02/09/2022	14:48:21.755	5.57448618E+0	-6.30000000E+2	2.00000000E+0	-9.80580318E+0	7.16123000E+6
213	02/09/2022	14:48:23.146	4.37836466E+0	-6.31000000E+2	2.00000000E+0	-9.80580318E+0	7.16123000E+6
214	02/09/2022	14:48:24.574	2.40067993E-1	-6.30000000E+2	2.00000000E+0	-9.80580318E+0	7.16123000E+6
215	02/09/2022	14:48:26.038	2.86125766E+0	-6.30000000E+2	2.00000000E+0	-9.80580318E+0	7.16123000E+6
216	02/09/2022	14:48:27.419	4.93519969E+0	-6.30000000E+2	2.00000000E+0	-9.80580318E+0	7.16123000E+6
217	02/09/2022	14:48:28.909	1.11673801E+0	-6.30000000E+2	2.00000000E+0	-9.80580318E+0	7.16123000E+6
218	02/09/2022	14:48:30.303	9.96704017E-1	-6.30000000E+2	2.00000000E+0	-9.80580318E+0	7.16123000E+6
219	02/09/2022	14:48:31.737	9.26524396E-1	-6.30000000E+2	2.00000000E+0	-9.80580318E+0	7.16123000E+6
220	02/09/2022	14:48:33.214	4.22074814E+0	-6.30000000E+2	2.00000000E+0	-9.80580318E+0	7.16123000E+6
221	02/09/2022	14:48:34.581	3.88097139E-1	-6.29000000E+2	2.00000000E+0	-9.80580318E+0	7.16123000E+6
222	02/09/2022	14:48:36.094	2.18784010E+0	-6.30000000E+2	2.00000000E+0	-9.80580318E+0	7.16123000E+6
223	02/09/2022	14:48:37.479	4.37951515E+0	-6.31000000E+2	2.00000000E+0	-9.80580318E+0	7.16123000E+6
224	02/09/2022	14:48:38.867	5.83794738E+0	-6.30000000E+2	2.00000000E+0	-9.80580318E+0	7.16123000E+6
225	02/09/2022	14:48:40.326	2.61927220E-1	-6.29000000E+2	2.00000000E+0	-9.80580318E+0	7.16123000E+6
226	02/09/2022	14:48:41.729	1.23408754E+0	-6.30000000E+2	2.00000000E+0	-9.80580318E+0	7.16123000E+6
227	02/09/2022	14:48:43.112	4.98543756E-2	-6.29000000E+2	2.00000000E+0	-9.80580318E+0	7.16123000E+6
228	02/09/2022	14:48:44.512	9.72543820E-1	-6.30000000E+2	2.00000000E+0	-9.80580318E+0	7.16123000E+6
229	02/09/2022	14:48:45.890	3.96303937E+0	-6.30000000E+2	2.00000000E+0	-9.80580318E+0	7.16123000E+6
230	02/09/2022	14:48:47.427	4.58008314E+0	-6.31000000E+2	2.00000000E+0	-9.80580318E+0	7.16123000E+6
231	02/09/2022	14:48:48.792	4.68631131E+0	-6.31000000E+2	2.00000000E+0	-9.80580318E+0	7.16123000E+6
232	02/09/2022	14:48:50.179	4.90988901E+0	-6.30000000E+2	2.00000000E+0	-9.80580318E+0	7.16123000E+6
233	02/09/2022	14:48:51.705	5.69030173E+0	-6.31000000E+2	2.00000000E+0	-9.80580318E+0	7.16123000E+6
234	02/09/2022	14:48:53.110	3.54541310E+0	-6.30000000E+2	2.00000000E+0	-9.80580318E+0	7.16123000E+6
235	02/09/2022	14:48:54.608	5.10892301E+0	-6.30000000E+2	2.00000000E+0	-9.80580318E+0	7.16123000E+6
236	02/09/2022	14:48:55.994	4.74076762E+0	-6.31000000E+2	2.00000000E+0	-9.80580318E+0	7.16123000E+6
237	02/09/2022	14:48:57.393	1.06534966E+0	-6.29000000E+2	2.00000000E+0	-9.80580318E+0	7.16123000E+6
238	02/09/2022	14:48:58.851	5.66115610E+0	-6.30000000E+2	2.00000000E+0	-9.80580318E+0	7.16123000E+6
239	02/09/2022	14:49:00.233	5.74053960E+0	-6.31000000E+2	2.00000000E+0	-9.80580318E+0	7.16123000E+6
240	02/09/2022	14:49:01.687	5.28341333E+0	-6.30000000E+2	2.00000000E+0	-9.80580318E+0	7.16123000E+6
241	02/09/2022	14:49:03.169	5.88856875E+0	-6.31000000E+2	2.00000000E+0	-9.80580318E+0	7.16123000E+6
242	02/09/2022	14:49:04.559	4.44662681E+0	-6.30000000E+2	2.00000000E+0	-9.80580318E+0	7.16123000E+6
243	02/09/2022	14:49:06.096	2.94716059E+0	-6.30000000E+2	2.00000000E+0	-9.80580318E+0	7.16123000E+6
244	02/09/2022	14:49:07.493	4.81938414E+0	-6.31000000E+2	2.00000000E+0	-9.80580318E+0	7.16123000E+6
245	02/09/2022	14:49:08.905	6.18232607E+0	-6.31000000E+2	2.00000000E+0	-9.80580318E+0	7.16123000E+6
246	02/09/2022	14:49:10.394	5.54073861E+0	-6.30000000E+2	2.00000000E+0	-9.80580318E+0	7.16123000E+6
247	02/09/2022	14:49:11.775	1.80971383E+0	-6.30000000E+2	2.00000000E+0	-9.80580318E+0	7.16123000E+6
248	02/09/2022	14:49:13.188	2.45743722E+0	-6.30000000E+2	2.00000000E+0	-9.80580318E+0	7.16123000E+6
249	02/09/2022	14:49:14.710	4.60999576E+0	-6.31000000E+2	2.00000000E+0	-9.80580318E+0	7.16123000E+6
250	02/09/2022	14:49:16.112	1.18269919E+0	-6.30000000E+2	2.00000000E+0	-9.80580318E+0	7.16123000E+6
251	02/09/2022	14:49:17.650	2.04019445E-1	-6.29000000E+2	2.00000000E+0	-9.80580318E+0	7.16123000E+6
252	02/09/2022	14:49:19.028	2.78340814E+0	-6.30000000E+2	2.00000000E+0	-9.80580318E+0	7.16123000E+6
253	02/09/2022	14:49:20.409	3.97531121E+0	-6.31000000E+2	2.00000000E+0	-9.80580318E+0	7.16123000E+6
254	02/09/2022	14:49:21.920	3.55500048E+0	-6.31000000E+2	2.00000000E+0	-9.80580318E+0	7.16123000E+6
255	02/09/2022	14:49:23.287	2.43902945E-1	-6.30000000E+2	2.00000000E+0	-9.80580318E+0	7.16123000E+6
256	02/09/2022	14:49:24.738	4.54595206E+0	-6.31000000E+2	2.00000000E+0	-9.80580318E+0	7.16123000E+6
257	02/09/2022	14:49:26.122	1.45651476E+0	-6.30000000E+2	2.00000000E+0	-9.80580318E+0	7.16123000E+6
258	02/09/2022	14:49:27.492	2.06282066E+0	-6.30000000E+2	2.00000000E+0	-9.80580318E+0	7.16123000E+6
259	02/09/2022	14:49:29.048	4.50606856E+0	-6.30000000E+2	2.00000000E+0	-9.80580318E+0	7.16123000E+6
260	02/09/2022	14:49:30.433	3.60293738E+0	-6.30000000E+2	2.00000000E+0	-9.80580318E+0	7.16123000E+6
261	02/09/2022	14:49:31.881	2.10155368E-1	-6.29000000E+2	2.00000000E+0	-9.80580318E+0	7.16123000E+6
262	02/09/2022	14:49:33.219	2.70364114E-1	-6.30000000E+2	2.00000000E+0	-9.80580318E+0	7.16123000E+6
263	02/09/2022	14:49:34.618	2.30097118E-3	-6.29000000E+2	2.00000000E+0	-9.80580318E+0	7.16123000E+6
264	02/09/2022	14:49:36.082	5.35282596E+0	-6.30000000E+2	2.00000000E+0	-9.80580318E+0	7.16123000E+6
265	02/09/2022	14:49:37.591	4.27021902E+0	-6.30000000E+2	2.00000000E+0	-9.80580318E+0	7.16123000E+6
266	02/09/2022	14:49:39.040	5.86479205E+0	-6.30000000E+2	2.00000000E+0	-9.80580318E+0	7.16123000E+6
267	02/09/2022	14:49:40.567	1.38595164E+0	-6.30000000E+2	2.00000000E+0	-9.80580318E+0	7.16123000E+6
268	02/09/2022	14:49:41.939	3.90359761E+0	-6.31000000E+2	2.00000000E+0	-9.80580318E+0	7.16123000E+6
269	02/09/2022	14:49:43.438	1.55814099E+0	-6.30000000E+2	2.00000000E+0	-9.80580318E+0	7.16123000E+6
270	02/09/2022	14:49:44.835	4.21537921E+0	-6.30000000E+2	2.00000000E+0	-9.80580318E+0	7.16123000E+6
271	02/09/2022	14:49:46.210	5.21783565E+0	-6.30000000E+2	2.00000000E+0	-9.80580318E+0	7.16123000E+6
272	02/09/2022	14:49:47.746	6.81854460E-1	-6.30000000E+2	2.00000000E+0	-9.80580318E+0	7.16123000E+6
273	02/09/2022	14:49:49.145	4.09189375E-1	-6.30000000E+2	2.00000000E+0	-9.80580318E+0	7.16123000E+6
274	02/09/2022	14:49:50.528	6.02509304E+0	-6.31000000E+2	2.00000000E+0	-9.80580318E+0	7.16123000E+6
275	02/09/2022	14:49:52.002	5.13921913E+0	-6.30000000E+2	2.00000000E+0	-9.80580318E+0	7.16123000E+6
276	02/09/2022	14:49:53.396	4.08077239E+0	-6.31000000E+2	2.00000000E+0	-9.80580318E+0	7.16123000E+6
277	02/09/2022	14:49:54.868	2.56174792E+0	-6.30000000E+2	2.00000000E+0	-9.80580318E+0	7.16123000E+6
278	02/09/2022	14:49:56.269	3.27083053E+0	-6.31000000E+2	2.00000000E+0	-9.80580318E+0	7.16123000E+6
279	02/09/2022	14:49:57.633	4.51565594E+0	-6.31000000E+2	2.00000000E+0	-9.80580318E+0	7.16123000E+6
280	02/09/2022	14:49:59.156	2.24459739E+0	-6.30000000E+2	2.00000000E+0	-9.80580318E+0	7.16123000E+6
281	02/09/2022	14:50:00.545	1.48067496E+0	-6.30000000E+2	2.00000000E+0	-9.80580318E+0	7.16123000E+6
282	02/09/2022	14:50:02.132	5.71868038E+0	-6.30000000E+2	2.00000000E+0	-9.80580318E+0	7.16123000E+6
283	02/09/2022	14:50:03.500	4.82782103E+0	-6.30000000E+2	2.00000000E+0	-9.80580318E+0	7.16123000E+6
284	02/09/2022	14:50:04.896	6.24061734E+0	-6.31000000E+2	2.00000000E+0	-9.80580318E+0	7.16123000E+6
285	02/09/2022	14:50:06.367	4.20080639E+0	-6.30000000E+2	2.00000000E+0	-9.80580318E+0	7.16123000E+6
286	02/09/2022	14:50:07.745	4.89263172E+0	-6.30000000E+2	2.00000000E+0	-9.80580318E+0	7.16123000E+6
287	02/09/2022	14:50:09.160	4.52869478E+0	-6.30000000E+2	2.00000000E+0	-9.80580318E+0	7.16123000E+6
288	02/09/2022	14:50:10.645	4.69244723E+0	-6.31000000E+2	2.00000000E+0	-9.80580318E+0	7.16123000E+6
289	02/09/2022	14:50:12.035	2.99126254E-1	-6.29000000E+2	2.00000000E+0	-9.80580318E+0	7.16123000E+6
290	02/09/2022	14:50:13.494	5.91196196E+0	-6.30000000E+2	2.00000000E+0	-9.80580318E+0	7.16123000E+6
291	02/09/2022	14:50:14.895	1.60262643E+0	-6.30000000E+2	2.00000000E+0	-9.80580318E+0	7.16123000E+6
292	02/09/2022	14:50:16.259	5.61168522E+0	-6.31000000E+2	2.00000000E+0	-9.80580318E+0	7.16123000E+6
293	02/09/2022	14:50:17.787	4.54633556E+0	-6.30000000E+2	2.00000000E+0	-9.80580318E+0	7.16123000E+6
294	02/09/2022	14:50:19.181	1.78095169E+0	-6.30000000E+2	2.00000000E+0	-9.80580318E+0	7.16123000E+6
295	02/09/2022	14:50:20.560	3.46296163E-1	-6.29000000E+2	2.00000000E+0	-9.80580318E+0	7.16123000E+6
296	02/09/2022	14:50:22.053	1.61834973E-1	-6.30000000E+2	2.00000000E+0	-9.80580318E+0	7.16123000E+6
297	02/09/2022	14:50:23.444	2.82981106E+0	-6.30000000E+2	2.00000000E+0	-9.80580318E+0	7.16123000E+6
298	02/09/2022	14:50:24.950	4.20118988E+0	-6.30000000E+2	2.00000000E+0	-9.80580318E+0	7.16123000E+6
299	02/09/2022	14:50:26.335	3.71491797E+0	-6.31000000E+2	2.00000000E+0	-9.80580318E+0	7.16123000E+6
300	02/09/2022	14:50:27.720	3.51588397E+0	-6.30000000E+2	2.00000000E+0	-9.80580318E+0	7.16123000E+6
301	02/09/2022	14:50:29.279	4.98121911E+0	-6.30000000E+2	2.00000000E+0	-9.80580318E+0	7.16123000E+6
