#Iteration	Date	Time	STSX	STSY	RotationRateX	RotationRateY	FrCntX	FrCntY	TiptiltCmd1	TiptiltCmd2	TiptiltMonitor1	TiptiltMonitor2
1	02/09/2022	14:43:19.035	0.00000E+0	0.00000E+0	0.00000E+0	0.00000E+0	0.00000E+0	0.00000E+0	2.00000E+1	1.40000E+1	1.99968E+1	1.40004E+1
2	02/09/2022	14:43:20.519	0.00000E+0	0.00000E+0	0.00000E+0	0.00000E+0	0.00000E+0	0.00000E+0	2.00000E+1	1.40000E+1	2.00014E+1	1.40028E+1
3	02/09/2022	14:43:21.908	0.00000E+0	0.00000E+0	0.00000E+0	0.00000E+0	0.00000E+0	0.00000E+0	2.00000E+1	1.40000E+1	1.99980E+1	1.40000E+1
4	02/09/2022	14:43:23.311	0.00000E+0	0.00000E+0	0.00000E+0	0.00000E+0	0.00000E+0	0.00000E+0	2.00000E+1	1.40000E+1	2.00012E+1	1.40029E+1
5	02/09/2022	14:43:24.907	0.00000E+0	0.00000E+0	0.00000E+0	0.00000E+0	0.00000E+0	0.00000E+0	2.00000E+1	1.40000E+1	2.00006E+1	1.40003E+1
6	02/09/2022	14:43:26.301	0.00000E+0	0.00000E+0	0.00000E+0	0.00000E+0	0.00000E+0	0.00000E+0	2.00000E+1	1.40000E+1	1.99985E+1	1.40005E+1
7	02/09/2022	14:43:27.753	0.00000E+0	0.00000E+0	0.00000E+0	0.00000E+0	0.00000E+0	0.00000E+0	2.00000E+1	1.40000E+1	1.99998E+1	1.40018E+1
8	02/09/2022	14:43:29.133	0.00000E+0	0.00000E+0	0.00000E+0	0.00000E+0	0.00000E+0	0.00000E+0	2.00000E+1	1.40000E+1	2.00003E+1	1.40001E+1
9	02/09/2022	14:43:30.515	0.00000E+0	0.00000E+0	0.00000E+0	0.00000E+0	0.00000E+0	0.00000E+0	2.00000E+1	1.40000E+1	1.99986E+1	1.40018E+1
10	02/09/2022	14:43:31.990	0.00000E+0	0.00000E+0	0.00000E+0	0.00000E+0	0.00000E+0	0.00000E+0	2.00000E+1	1.40000E+1	2.00010E+1	1.40007E+1
11	02/09/2022	14:43:33.384	0.00000E+0	0.00000E+0	0.00000E+0	0.00000E+0	0.00000E+0	0.00000E+0	2.00000E+1	1.40000E+1	1.99990E+1	1.39999E+1
12	02/09/2022	14:43:34.849	0.00000E+0	0.00000E+0	0.00000E+0	0.00000E+0	0.00000E+0	0.00000E+0	2.00000E+1	1.40000E+1	1.99976E+1	1.40015E+1
13	02/09/2022	14:43:36.371	0.00000E+0	0.00000E+0	0.00000E+0	0.00000E+0	0.00000E+0	0.00000E+0	2.00000E+1	1.40000E+1	2.00019E+1	1.39978E+1
14	02/09/2022	14:43:37.737	0.00000E+0	0.00000E+0	0.00000E+0	0.00000E+0	0.00000E+0	0.00000E+0	2.00000E+1	1.40000E+1	2.00006E+1	1.40006E+1
15	02/09/2022	14:43:39.231	0.00000E+0	0.00000E+0	0.00000E+0	0.00000E+0	0.00000E+0	0.00000E+0	2.00000E+1	1.40000E+1	2.00016E+1	1.40017E+1
16	02/09/2022	14:43:40.628	0.00000E+0	0.00000E+0	0.00000E+0	0.00000E+0	0.00000E+0	0.00000E+0	2.00000E+1	1.40000E+1	1.99993E+1	1.39998E+1
17	02/09/2022	14:43:42.020	0.00000E+0	0.00000E+0	0.00000E+0	0.00000E+0	0.00000E+0	0.00000E+0	2.00000E+1	1.40000E+1	1.99980E+1	1.40007E+1
18	02/09/2022	14:43:43.485	0.00000E+0	0.00000E+0	0.00000E+0	0.00000E+0	0.00000E+0	0.00000E+0	2.00000E+1	1.40000E+1	1.99992E+1	1.39994E+1
19	02/09/2022	14:43:44.882	0.00000E+0	0.00000E+0	0.00000E+0	0.00000E+0	0.00000E+0	0.00000E+0	2.00000E+1	1.40000E+1	2.00013E+1	1.40004E+1
20	02/09/2022	14:43:46.309	0.00000E+0	0.00000E+0	0.00000E+0	0.00000E+0	0.00000E+0	0.00000E+0	2.00000E+1	1.40000E+1	1.99994E+1	1.40000E+1
21	02/09/2022	14:43:47.827	0.00000E+0	0.00000E+0	0.00000E+0	0.00000E+0	0.00000E+0	0.00000E+0	2.00000E+1	1.40000E+1	2.00014E+1	1.40014E+1
22	02/09/2022	14:43:49.224	0.00000E+0	0.00000E+0	0.00000E+0	0.00000E+0	0.00000E+0	0.00000E+0	2.00000E+1	1.40000E+1	2.00021E+1	1.39999E+1
23	02/09/2022	14:43:50.708	0.00000E+0	0.00000E+0	0.00000E+0	0.00000E+0	0.00000E+0	0.00000E+0	2.00000E+1	1.40000E+1	2.00002E+1	1.39999E+1
24	02/09/2022	14:43:52.100	0.00000E+0	0.00000E+0	0.00000E+0	0.00000E+0	0.00000E+0	0.00000E+0	2.00000E+1	1.40000E+1	2.00028E+1	1.40011E+1
25	02/09/2022	14:43:53.481	0.00000E+0	0.00000E+0	0.00000E+0	0.00000E+0	0.00000E+0	0.00000E+0	2.00000E+1	1.40000E+1	2.00015E+1	1.40005E+1
26	02/09/2022	14:43:55.079	0.00000E+0	0.00000E+0	0.00000E+0	0.00000E+0	0.00000E+0	0.00000E+0	2.00000E+1	1.40000E+1	1.99998E+1	1.39977E+1
27	02/09/2022	14:43:56.463	0.00000E+0	0.00000E+0	0.00000E+0	0.00000E+0	0.00000E+0	0.00000E+0	2.00000E+1	1.40000E+1	1.99987E+1	1.40021E+1
28	02/09/2022	14:43:57.998	0.00000E+0	0.00000E+0	0.00000E+0	0.00000E+0	0.00000E+0	0.00000E+0	2.00000E+1	1.40000E+1	2.00008E+1	1.39999E+1
29	02/09/2022	14:43:59.392	0.00000E+0	0.00000E+0	0.00000E+0	0.00000E+0	0.00000E+0	0.00000E+0	2.00000E+1	1.40000E+1	1.99991E+1	1.39987E+1
30	02/09/2022	14:44:00.793	0.00000E+0	0.00000E+0	0.00000E+0	0.00000E+0	0.00000E+0	0.00000E+0	2.00000E+1	1.40000E+1	2.00015E+1	1.39988E+1
31	02/09/2022	14:44:02.345	0.00000E+0	0.00000E+0	0.00000E+0	0.00000E+0	0.00000E+0	0.00000E+0	2.00000E+1	1.40000E+1	2.00015E+1	1.39990E+1
32	02/09/2022	14:44:03.741	0.00000E+0	0.00000E+0	0.00000E+0	0.00000E+0	0.00000E+0	0.00000E+0	2.00000E+1	1.40000E+1	1.99993E+1	1.39986E+1
33	02/09/2022	14:44:05.217	0.00000E+0	0.00000E+0	0.00000E+0	0.00000E+0	0.00000E+0	0.00000E+0	2.00000E+1	1.40000E+1	1.99990E+1	1.40000E+1
34	02/09/2022	14:44:06.759	0.00000E+0	0.00000E+0	0.00000E+0	0.00000E+0	0.00000E+0	0.00000E+0	2.00000E+1	1.40000E+1	2.00001E+1	1.40005E+1
35	02/09/2022	14:44:08.134	0.00000E+0	0.00000E+0	0.00000E+0	0.00000E+0	0.00000E+0	0.00000E+0	2.00000E+1	1.40000E+1	1.99979E+1	1.40013E+1
36	02/09/2022	14:44:09.591	0.00000E+0	0.00000E+0	0.00000E+0	0.00000E+0	0.00000E+0	0.00000E+0	2.00000E+1	1.40000E+1	1.99962E+1	1.40024E+1
37	02/09/2022	14:44:10.972	0.00000E+0	0.00000E+0	0.00000E+0	0.00000E+0	0.00000E+0	0.00000E+0	2.00000E+1	1.40000E+1	2.00007E+1	1.40008E+1
38	02/09/2022	14:44:12.331	0.00000E+0	0.00000E+0	0.00000E+0	0.00000E+0	0.00000E+0	0.00000E+0	2.00000E+1	1.40000E+1	1.99999E+1	1.39992E+1
39	02/09/2022	14:44:13.859	0.00000E+0	0.00000E+0	0.00000E+0	0.00000E+0	0.00000E+0	0.00000E+0	2.00000E+1	1.40000E+1	1.99995E+1	1.40016E+1
40	02/09/2022	14:44:15.302	0.00000E+0	0.00000E+0	0.00000E+0	0.00000E+0	0.00000E+0	0.00000E+0	2.00000E+1	1.40000E+1	2.00018E+1	1.40002E+1
41	02/09/2022	14:44:16.695	0.00000E+0	0.00000E+0	0.00000E+0	0.00000E+0	0.00000E+0	0.00000E+0	2.00000E+1	1.40000E+1	2.00002E+1	1.40006E+1
42	02/09/2022	14:44:18.067	0.00000E+0	0.00000E+0	0.00000E+0	0.00000E+0	0.00000E+0	0.00000E+0	2.00000E+1	1.40000E+1	2.00006E+1	1.40013E+1
43	02/09/2022	14:44:19.458	0.00000E+0	0.00000E+0	0.00000E+0	0.00000E+0	0.00000E+0	0.00000E+0	2.00000E+1	1.40000E+1	2.00006E+1	1.39999E+1
44	02/09/2022	14:44:20.934	0.00000E+0	0.00000E+0	0.00000E+0	0.00000E+0	0.00000E+0	0.00000E+0	2.00000E+1	1.40000E+1	1.99971E+1	1.39988E+1
45	02/09/2022	14:44:22.329	0.00000E+0	0.00000E+0	0.00000E+0	0.00000E+0	0.00000E+0	0.00000E+0	2.00000E+1	1.40000E+1	1.99981E+1	1.39994E+1
46	02/09/2022	14:44:23.715	0.00000E+0	0.00000E+0	0.00000E+0	0.00000E+0	0.00000E+0	0.00000E+0	2.00000E+1	1.40000E+1	2.00019E+1	1.39994E+1
47	02/09/2022	14:44:25.276	0.00000E+0	0.00000E+0	0.00000E+0	0.00000E+0	0.00000E+0	0.00000E+0	2.00000E+1	1.40000E+1	1.99995E+1	1.40010E+1
48	02/09/2022	14:44:26.678	0.00000E+0	0.00000E+0	0.00000E+0	0.00000E+0	0.00000E+0	0.00000E+0	2.00000E+1	1.40000E+1	1.99991E+1	1.39997E+1
49	02/09/2022	14:44:28.135	0.00000E+0	0.00000E+0	0.00000E+0	0.00000E+0	0.00000E+0	0.00000E+0	2.00000E+1	1.40000E+1	2.00003E+1	1.40006E+1
50	02/09/2022	14:44:29.528	0.00000E+0	0.00000E+0	0.00000E+0	0.00000E+0	0.00000E+0	0.00000E+0	2.00000E+1	1.40000E+1	2.00008E+1	1.39997E+1
51	02/09/2022	14:44:30.918	0.00000E+0	0.00000E+0	0.00000E+0	0.00000E+0	0.00000E+0	0.00000E+0	2.00000E+1	1.40000E+1	1.99994E+1	1.39987E+1
52	02/09/2022	14:44:32.494	0.00000E+0	0.00000E+0	0.00000E+0	0.00000E+0	0.00000E+0	0.00000E+0	2.00000E+1	1.40000E+1	1.99987E+1	1.39998E+1
53	02/09/2022	14:44:33.874	0.00000E+0	0.00000E+0	0.00000E+0	0.00000E+0	0.00000E+0	0.00000E+0	2.00000E+1	1.40000E+1	2.00007E+1	1.40011E+1
54	02/09/2022	14:44:35.355	0.00000E+0	0.00000E+0	0.00000E+0	0.00000E+0	0.00000E+0	0.00000E+0	2.00000E+1	1.40000E+1	1.99992E+1	1.39987E+1
55	02/09/2022	14:44:36.870	0.00000E+0	0.00000E+0	0.00000E+0	0.00000E+0	0.00000E+0	0.00000E+0	2.00000E+1	1.40000E+1	1.99990E+1	1.39980E+1
56	02/09/2022	14:44:38.260	0.00000E+0	0.00000E+0	0.00000E+0	0.00000E+0	0.00000E+0	0.00000E+0	2.00000E+1	1.40000E+1	2.00025E+1	1.39994E+1
57	02/09/2022	14:44:39.823	0.00000E+0	0.00000E+0	0.00000E+0	0.00000E+0	0.00000E+0	0.00000E+0	2.00000E+1	1.40000E+1	2.00012E+1	1.40018E+1
58	02/09/2022	14:44:41.193	0.00000E+0	0.00000E+0	0.00000E+0	0.00000E+0	0.00000E+0	0.00000E+0	2.00000E+1	1.40000E+1	1.99990E+1	1.39990E+1
59	02/09/2022	14:44:42.626	0.00000E+0	0.00000E+0	0.00000E+0	0.00000E+0	0.00000E+0	0.00000E+0	2.00000E+1	1.40000E+1	2.00005E+1	1.39992E+1
60	02/09/2022	14:44:44.106	0.00000E+0	0.00000E+0	0.00000E+0	0.00000E+0	0.00000E+0	0.00000E+0	2.00000E+1	1.40000E+1	1.99995E+1	1.39974E+1
61	02/09/2022	14:44:45.511	0.00000E+0	0.00000E+0	0.00000E+0	0.00000E+0	0.00000E+0	0.00000E+0	2.00000E+1	1.40000E+1	1.99976E+1	1.39994E+1
62	02/09/2022	14:44:46.959	0.00000E+0	0.00000E+0	0.00000E+0	0.00000E+0	0.00000E+0	0.00000E+0	2.00000E+1	1.40000E+1	2.00021E+1	1.40002E+1
63	02/09/2022	14:44:48.359	0.00000E+0	0.00000E+0	0.00000E+0	0.00000E+0	0.00000E+0	0.00000E+0	2.00000E+1	1.40000E+1	2.00005E+1	1.39983E+1
64	02/09/2022	14:44:49.752	0.00000E+0	0.00000E+0	0.00000E+0	0.00000E+0	0.00000E+0	0.00000E+0	2.00000E+1	1.40000E+1	1.99971E+1	1.39982E+1
65	02/09/2022	14:44:51.285	0.00000E+0	0.00000E+0	0.00000E+0	0.00000E+0	0.00000E+0	0.00000E+0	2.00000E+1	1.40000E+1	2.00011E+1	1.40011E+1
66	02/09/2022	14:44:52.683	0.00000E+0	0.00000E+0	0.00000E+0	0.00000E+0	0.00000E+0	0.00000E+0	2.00000E+1	1.40000E+1	1.99998E+1	1.39997E+1
67	02/09/2022	14:44:54.071	0.00000E+0	0.00000E+0	0.00000E+0	0.00000E+0	0.00000E+0	0.00000E+0	2.00000E+1	1.40000E+1	1.99993E+1	1.39991E+1
68	02/09/2022	14:44:55.550	0.00000E+0	0.00000E+0	0.00000E+0	0.00000E+0	0.00000E+0	0.00000E+0	2.00000E+1	1.40000E+1	1.99992E+1	1.40012E+1
69	02/09/2022	14:44:56.938	0.00000E+0	0.00000E+0	0.00000E+0	0.00000E+0	0.00000E+0	0.00000E+0	2.00000E+1	1.40000E+1	2.00030E+1	1.39986E+1
70	02/09/2022	14:44:58.522	0.00000E+0	0.00000E+0	0.00000E+0	0.00000E+0	0.00000E+0	0.00000E+0	2.00000E+1	1.40000E+1	1.99956E+1	1.40016E+1
71	02/09/2022	14:44:59.889	0.00000E+0	0.00000E+0	0.00000E+0	0.00000E+0	0.00000E+0	0.00000E+0	2.00000E+1	1.40000E+1	1.99998E+1	1.40022E+1
72	02/09/2022	14:45:01.297	0.00000E+0	0.00000E+0	0.00000E+0	0.00000E+0	0.00000E+0	0.00000E+0	2.00000E+1	1.40000E+1	2.00022E+1	1.39997E+1
73	02/09/2022	14:45:02.834	0.00000E+0	0.00000E+0	0.00000E+0	0.00000E+0	0.00000E+0	0.00000E+0	2.00000E+1	1.40000E+1	1.99996E+1	1.39982E+1
74	02/09/2022	14:45:04.214	0.00000E+0	0.00000E+0	0.00000E+0	0.00000E+0	0.00000E+0	0.00000E+0	2.00000E+1	1.40000E+1	2.00001E+1	1.40002E+1
75	02/09/2022	14:45:05.687	0.00000E+0	0.00000E+0	0.00000E+0	0.00000E+0	0.00000E+0	0.00000E+0	2.00000E+1	1.40000E+1	1.99998E+1	1.39985E+1
76	02/09/2022	14:45:07.187	0.00000E+0	0.00000E+0	0.00000E+0	0.00000E+0	0.00000E+0	0.00000E+0	2.00000E+1	1.40000E+1	1.99986E+1	1.39999E+1
77	02/09/2022	14:45:08.563	0.00000E+0	0.00000E+0	0.00000E+0	0.00000E+0	0.00000E+0	0.00000E+0	2.00000E+1	1.40000E+1	2.00002E+1	1.39988E+1
78	02/09/2022	14:45:10.103	0.00000E+0	0.00000E+0	0.00000E+0	0.00000E+0	0.00000E+0	0.00000E+0	2.00000E+1	1.40000E+1	2.00000E+1	1.40013E+1
79	02/09/2022	14:45:11.507	0.00000E+0	0.00000E+0	0.00000E+0	0.00000E+0	0.00000E+0	0.00000E+0	2.00000E+1	1.40000E+1	2.00003E+1	1.39977E+1
80	02/09/2022	14:45:12.897	0.00000E+0	0.00000E+0	0.00000E+0	0.00000E+0	0.00000E+0	0.00000E+0	2.00000E+1	1.40000E+1	1.99981E+1	1.40014E+1
81	02/09/2022	14:45:14.450	0.00000E+0	0.00000E+0	0.00000E+0	0.00000E+0	0.00000E+0	0.00000E+0	2.00000E+1	1.40000E+1	2.00012E+1	1.40011E+1
82	02/09/2022	14:45:15.841	0.00000E+0	0.00000E+0	0.00000E+0	0.00000E+0	0.00000E+0	0.00000E+0	2.00000E+1	1.40000E+1	2.00009E+1	1.39977E+1
83	02/09/2022	14:45:17.357	0.00000E+0	0.00000E+0	0.00000E+0	0.00000E+0	0.00000E+0	0.00000E+0	2.00000E+1	1.40000E+1	1.99984E+1	1.39992E+1
84	02/09/2022	14:45:18.780	0.00000E+0	0.00000E+0	0.00000E+0	0.00000E+0	0.00000E+0	0.00000E+0	2.00000E+1	1.40000E+1	2.00001E+1	1.40003E+1
85	02/09/2022	14:45:20.167	0.00000E+0	0.00000E+0	0.00000E+0	0.00000E+0	0.00000E+0	0.00000E+0	2.00000E+1	1.40000E+1	2.00008E+1	1.39990E+1
86	02/09/2022	14:45:21.660	0.00000E+0	0.00000E+0	0.00000E+0	0.00000E+0	0.00000E+0	0.00000E+0	2.00000E+1	1.40000E+1	1.99988E+1	1.40008E+1
87	02/09/2022	14:45:23.041	0.00000E+0	0.00000E+0	0.00000E+0	0.00000E+0	0.00000E+0	0.00000E+0	2.00000E+1	1.40000E+1	2.00020E+1	1.40007E+1
88	02/09/2022	14:45:24.421	0.00000E+0	0.00000E+0	0.00000E+0	0.00000E+0	0.00000E+0	0.00000E+0	2.00000E+1	1.40000E+1	1.99992E+1	1.39987E+1
89	02/09/2022	14:45:25.918	0.00000E+0	0.00000E+0	0.00000E+0	0.00000E+0	0.00000E+0	0.00000E+0	2.00000E+1	1.40000E+1	1.99996E+1	1.40001E+1
90	02/09/2022	14:45:27.286	0.00000E+0	0.00000E+0	0.00000E+0	0.00000E+0	0.00000E+0	0.00000E+0	2.00000E+1	1.40000E+1	2.00010E+1	1.39975E+1
91	02/09/2022	14:45:28.774	0.00000E+0	0.00000E+0	0.00000E+0	0.00000E+0	0.00000E+0	0.00000E+0	2.00000E+1	1.40000E+1	1.99989E+1	1.40000E+1
92	02/09/2022	14:45:30.136	0.00000E+0	0.00000E+0	0.00000E+0	0.00000E+0	0.00000E+0	0.00000E+0	2.00000E+1	1.40000E+1	2.00009E+1	1.39993E+1
93	02/09/2022	14:45:31.530	0.00000E+0	0.00000E+0	0.00000E+0	0.00000E+0	0.00000E+0	0.00000E+0	2.00000E+1	1.40000E+1	2.00007E+1	1.40024E+1
94	02/09/2022	14:45:33.033	0.00000E+0	0.00000E+0	0.00000E+0	0.00000E+0	0.00000E+0	0.00000E+0	2.00000E+1	1.40000E+1	2.00012E+1	1.39989E+1
95	02/09/2022	14:45:34.410	0.00000E+0	0.00000E+0	0.00000E+0	0.00000E+0	0.00000E+0	0.00000E+0	2.00000E+1	1.40000E+1	1.99991E+1	1.40001E+1
96	02/09/2022	14:45:35.853	0.00000E+0	0.00000E+0	0.00000E+0	0.00000E+0	0.00000E+0	0.00000E+0	2.00000E+1	1.40000E+1	2.00017E+1	1.40019E+1
97	02/09/2022	14:45:37.249	0.00000E+0	0.00000E+0	0.00000E+0	0.00000E+0	0.00000E+0	0.00000E+0	2.00000E+1	1.40000E+1	1.99985E+1	1.40005E+1
98	02/09/2022	14:45:38.668	0.00000E+0	0.00000E+0	0.00000E+0	0.00000E+0	0.00000E+0	0.00000E+0	2.00000E+1	1.40000E+1	1.99996E+1	1.40000E+1
99	02/09/2022	14:45:40.169	0.00000E+0	0.00000E+0	0.00000E+0	0.00000E+0	0.00000E+0	0.00000E+0	2.00000E+1	1.40000E+1	2.00003E+1	1.40010E+1
100	02/09/2022	14:45:41.552	0.00000E+0	0.00000E+0	0.00000E+0	0.00000E+0	0.00000E+0	0.00000E+0	2.00000E+1	1.40000E+1	2.00009E+1	1.39989E+1
101	02/09/2022	14:45:42.977	0.00000E+0	0.00000E+0	0.00000E+0	0.00000E+0	0.00000E+0	0.00000E+0	2.00000E+1	1.40000E+1	2.00006E+1	1.40012E+1
102	02/09/2022	14:45:44.473	0.00000E+0	0.00000E+0	0.00000E+0	0.00000E+0	0.00000E+0	0.00000E+0	2.00000E+1	1.40000E+1	2.00004E+1	1.39980E+1
103	02/09/2022	14:45:45.870	0.00000E+0	0.00000E+0	0.00000E+0	0.00000E+0	0.00000E+0	0.00000E+0	2.00000E+1	1.40000E+1	2.00000E+1	1.39997E+1
104	02/09/2022	14:45:47.338	0.00000E+0	0.00000E+0	0.00000E+0	0.00000E+0	0.00000E+0	0.00000E+0	2.00000E+1	1.40000E+1	1.99962E+1	1.39979E+1
105	02/09/2022	14:45:48.721	0.00000E+0	0.00000E+0	0.00000E+0	0.00000E+0	0.00000E+0	0.00000E+0	2.00000E+1	1.40000E+1	2.00000E+1	1.40004E+1
106	02/09/2022	14:45:50.117	0.00000E+0	0.00000E+0	0.00000E+0	0.00000E+0	0.00000E+0	0.00000E+0	2.00000E+1	1.40000E+1	2.00011E+1	1.40000E+1
107	02/09/2022	14:45:51.644	0.00000E+0	0.00000E+0	0.00000E+0	0.00000E+0	0.00000E+0	0.00000E+0	2.00000E+1	1.40000E+1	2.00016E+1	1.39992E+1
108	02/09/2022	14:45:53.025	0.00000E+0	0.00000E+0	0.00000E+0	0.00000E+0	0.00000E+0	0.00000E+0	2.00000E+1	1.40000E+1	1.99997E+1	1.39994E+1
109	02/09/2022	14:45:54.486	0.00000E+0	0.00000E+0	0.00000E+0	0.00000E+0	0.00000E+0	0.00000E+0	2.00000E+1	1.40000E+1	1.99986E+1	1.39992E+1
110	02/09/2022	14:45:55.968	0.00000E+0	0.00000E+0	0.00000E+0	0.00000E+0	0.00000E+0	0.00000E+0	2.00000E+1	1.40000E+1	2.00017E+1	1.39991E+1
111	02/09/2022	14:45:57.398	0.00000E+0	0.00000E+0	0.00000E+0	0.00000E+0	0.00000E+0	0.00000E+0	2.00000E+1	1.40000E+1	1.99986E+1	1.40005E+1
112	02/09/2022	14:45:58.889	0.00000E+0	0.00000E+0	0.00000E+0	0.00000E+0	0.00000E+0	0.00000E+0	2.00000E+1	1.40000E+1	1.99997E+1	1.40019E+1
113	02/09/2022	14:46:00.261	0.00000E+0	0.00000E+0	0.00000E+0	0.00000E+0	0.00000E+0	0.00000E+0	2.00000E+1	1.40000E+1	2.00014E+1	1.39995E+1
114	02/09/2022	14:46:01.646	0.00000E+0	0.00000E+0	0.00000E+0	0.00000E+0	0.00000E+0	0.00000E+0	2.00000E+1	1.40000E+1	1.99997E+1	1.39989E+1
115	02/09/2022	14:46:03.101	0.00000E+0	0.00000E+0	0.00000E+0	0.00000E+0	0.00000E+0	0.00000E+0	2.00000E+1	1.40000E+1	2.00014E+1	1.40003E+1
116	02/09/2022	14:46:04.502	0.00000E+0	0.00000E+0	0.00000E+0	0.00000E+0	0.00000E+0	0.00000E+0	2.00000E+1	1.40000E+1	1.99998E+1	1.39991E+1
117	02/09/2022	14:46:05.922	0.00000E+0	0.00000E+0	0.00000E+0	0.00000E+0	0.00000E+0	0.00000E+0	2.00000E+1	1.40000E+1	2.00020E+1	1.39981E+1
118	02/09/2022	14:46:07.331	0.00000E+0	0.00000E+0	0.00000E+0	0.00000E+0	0.00000E+0	0.00000E+0	2.00000E+1	1.40000E+1	1.99993E+1	1.40020E+1
119	02/09/2022	14:46:08.704	0.00000E+0	0.00000E+0	0.00000E+0	0.00000E+0	0.00000E+0	0.00000E+0	2.00000E+1	1.40000E+1	1.99973E+1	1.40024E+1
120	02/09/2022	14:46:10.239	0.00000E+0	0.00000E+0	0.00000E+0	0.00000E+0	0.00000E+0	0.00000E+0	2.00000E+1	1.40000E+1	1.99994E+1	1.39990E+1
121	02/09/2022	14:46:11.625	0.00000E+0	0.00000E+0	0.00000E+0	0.00000E+0	0.00000E+0	0.00000E+0	2.00000E+1	1.40000E+1	2.00003E+1	1.40007E+1
122	02/09/2022	14:46:13.024	0.00000E+0	0.00000E+0	0.00000E+0	0.00000E+0	0.00000E+0	0.00000E+0	2.00000E+1	1.40000E+1	1.99981E+1	1.39995E+1
123	02/09/2022	14:46:14.515	0.00000E+0	0.00000E+0	0.00000E+0	0.00000E+0	0.00000E+0	0.00000E+0	2.00000E+1	1.40000E+1	2.00027E+1	1.39985E+1
124	02/09/2022	14:46:15.892	0.00000E+0	0.00000E+0	0.00000E+0	0.00000E+0	0.00000E+0	0.00000E+0	2.00000E+1	1.40000E+1	1.99994E+1	1.39984E+1
125	02/09/2022	14:46:17.428	0.00000E+0	0.00000E+0	0.00000E+0	0.00000E+0	0.00000E+0	0.00000E+0	2.00000E+1	1.40000E+1	1.99983E+1	1.40004E+1
126	02/09/2022	14:46:18.807	0.00000E+0	0.00000E+0	0.00000E+0	0.00000E+0	0.00000E+0	0.00000E+0	2.00000E+1	1.40000E+1	1.99992E+1	1.40001E+1
127	02/09/2022	14:46:20.184	0.00000E+0	0.00000E+0	0.00000E+0	0.00000E+0	0.00000E+0	0.00000E+0	2.00000E+1	1.40000E+1	1.99992E+1	1.40004E+1
128	02/09/2022	14:46:21.694	0.00000E+0	0.00000E+0	0.00000E+0	0.00000E+0	0.00000E+0	0.00000E+0	2.00000E+1	1.40000E+1	2.00001E+1	1.40011E+1
129	02/09/2022	14:46:23.076	0.00000E+0	0.00000E+0	0.00000E+0	0.00000E+0	0.00000E+0	0.00000E+0	2.00000E+1	1.40000E+1	2.00007E+1	1.39981E+1
130	02/09/2022	14:46:24.461	0.00000E+0	0.00000E+0	0.00000E+0	0.00000E+0	0.00000E+0	0.00000E+0	2.00000E+1	1.40000E+1	2.00011E+1	1.40030E+1
131	02/09/2022	14:46:25.972	0.00000E+0	0.00000E+0	0.00000E+0	0.00000E+0	0.00000E+0	0.00000E+0	2.00000E+1	1.40000E+1	2.00000E+1	1.39990E+1
132	02/09/2022	14:46:27.367	0.00000E+0	0.00000E+0	0.00000E+0	0.00000E+0	0.00000E+0	0.00000E+0	2.00000E+1	1.40000E+1	2.00030E+1	1.40002E+1
133	02/09/2022	14:46:28.837	0.00000E+0	0.00000E+0	0.00000E+0	0.00000E+0	0.00000E+0	0.00000E+0	2.00000E+1	1.40000E+1	2.00008E+1	1.40021E+1
134	02/09/2022	14:46:30.225	0.00000E+0	0.00000E+0	0.00000E+0	0.00000E+0	0.00000E+0	0.00000E+0	2.00000E+1	1.40000E+1	1.99997E+1	1.40014E+1
135	02/09/2022	14:46:31.627	0.00000E+0	0.00000E+0	0.00000E+0	0.00000E+0	0.00000E+0	0.00000E+0	2.00000E+1	1.40000E+1	1.99986E+1	1.39979E+1
136	02/09/2022	14:46:33.123	0.00000E+0	0.00000E+0	0.00000E+0	0.00000E+0	0.00000E+0	0.00000E+0	2.00000E+1	1.40000E+1	2.00012E+1	1.40007E+1
137	02/09/2022	14:46:34.512	0.00000E+0	0.00000E+0	0.00000E+0	0.00000E+0	0.00000E+0	0.00000E+0	2.00000E+1	1.40000E+1	2.00021E+1	1.40016E+1
138	02/09/2022	14:46:36.040	0.00000E+0	0.00000E+0	0.00000E+0	0.00000E+0	0.00000E+0	0.00000E+0	2.00000E+1	1.40000E+1	1.99996E+1	1.40000E+1
139	02/09/2022	14:46:37.429	0.00000E+0	0.00000E+0	0.00000E+0	0.00000E+0	0.00000E+0	0.00000E+0	2.00000E+1	1.40000E+1	2.00018E+1	1.39977E+1
140	02/09/2022	14:46:38.806	0.00000E+0	0.00000E+0	0.00000E+0	0.00000E+0	0.00000E+0	0.00000E+0	2.00000E+1	1.40000E+1	2.00010E+1	1.39984E+1
141	02/09/2022	14:46:40.280	0.00000E+0	0.00000E+0	0.00000E+0	0.00000E+0	0.00000E+0	0.00000E+0	2.00000E+1	1.40000E+1	2.00007E+1	1.40002E+1
142	02/09/2022	14:46:41.662	0.00000E+0	0.00000E+0	0.00000E+0	0.00000E+0	0.00000E+0	0.00000E+0	2.00000E+1	1.40000E+1	2.00001E+1	1.40008E+1
143	02/09/2022	14:46:43.095	0.00000E+0	0.00000E+0	0.00000E+0	0.00000E+0	0.00000E+0	0.00000E+0	2.00000E+1	1.40000E+1	2.00002E+1	1.40002E+1
144	02/09/2022	14:46:44.571	0.00000E+0	0.00000E+0	0.00000E+0	0.00000E+0	0.00000E+0	0.00000E+0	2.00000E+1	1.40000E+1	1.99984E+1	1.40019E+1
145	02/09/2022	14:46:45.966	0.00000E+0	0.00000E+0	0.00000E+0	0.00000E+0	0.00000E+0	0.00000E+0	2.00000E+1	1.40000E+1	1.99994E+1	1.39999E+1
146	02/09/2022	14:46:47.391	0.00000E+0	0.00000E+0	0.00000E+0	0.00000E+0	0.00000E+0	0.00000E+0	2.00000E+1	1.40000E+1	1.99987E+1	1.39979E+1
147	02/09/2022	14:46:48.770	0.00000E+0	0.00000E+0	0.00000E+0	0.00000E+0	0.00000E+0	0.00000E+0	2.00000E+1	1.40000E+1	2.00012E+1	1.40007E+1
148	02/09/2022	14:46:50.146	0.00000E+0	0.00000E+0	0.00000E+0	0.00000E+0	0.00000E+0	0.00000E+0	2.00000E+1	1.40000E+1	1.99994E+1	1.40010E+1
149	02/09/2022	14:46:51.735	0.00000E+0	0.00000E+0	0.00000E+0	0.00000E+0	0.00000E+0	0.00000E+0	2.00000E+1	1.40000E+1	2.00007E+1	1.40011E+1
150	02/09/2022	14:46:53.124	0.00000E+0	0.00000E+0	0.00000E+0	0.00000E+0	0.00000E+0	0.00000E+0	2.00000E+1	1.40000E+1	2.00005E+1	1.40013E+1
151	02/09/2022	14:46:54.576	0.00000E+0	0.00000E+0	0.00000E+0	0.00000E+0	0.00000E+0	0.00000E+0	2.00000E+1	1.40000E+1	2.00018E+1	1.40025E+1
152	02/09/2022	14:46:55.974	0.00000E+0	0.00000E+0	0.00000E+0	0.00000E+0	0.00000E+0	0.00000E+0	2.00000E+1	1.40000E+1	1.99995E+1	1.39993E+1
153	02/09/2022	14:46:57.359	0.00000E+0	0.00000E+0	0.00000E+0	0.00000E+0	0.00000E+0	0.00000E+0	2.00000E+1	1.40000E+1	1.99997E+1	1.39989E+1
154	02/09/2022	14:46:58.815	0.00000E+0	0.00000E+0	0.00000E+0	0.00000E+0	0.00000E+0	0.00000E+0	2.00000E+1	1.40000E+1	2.00013E+1	1.39984E+1
155	02/09/2022	14:47:00.208	0.00000E+0	0.00000E+0	0.00000E+0	0.00000E+0	0.00000E+0	0.00000E+0	2.00000E+1	1.40000E+1	1.99974E+1	1.40013E+1
156	02/09/2022	14:47:01.663	0.00000E+0	0.00000E+0	0.00000E+0	0.00000E+0	0.00000E+0	0.00000E+0	2.00000E+1	1.40000E+1	2.00005E+1	1.40002E+1
157	02/09/2022	14:47:03.164	0.00000E+0	0.00000E+0	0.00000E+0	0.00000E+0	0.00000E+0	0.00000E+0	2.00000E+1	1.40000E+1	2.00017E+1	1.39999E+1
158	02/09/2022	14:47:04.531	0.00000E+0	0.00000E+0	0.00000E+0	0.00000E+0	0.00000E+0	0.00000E+0	2.00000E+1	1.40000E+1	1.99998E+1	1.39998E+1
159	02/09/2022	14:47:06.029	0.00000E+0	0.00000E+0	0.00000E+0	0.00000E+0	0.00000E+0	0.00000E+0	2.00000E+1	1.40000E+1	2.00011E+1	1.40005E+1
160	02/09/2022	14:47:07.413	0.00000E+0	0.00000E+0	0.00000E+0	0.00000E+0	0.00000E+0	0.00000E+0	2.00000E+1	1.40000E+1	1.99972E+1	1.40001E+1
161	02/09/2022	14:47:08.803	0.00000E+0	0.00000E+0	0.00000E+0	0.00000E+0	0.00000E+0	0.00000E+0	2.00000E+1	1.40000E+1	1.99988E+1	1.40014E+1
162	02/09/2022	14:47:10.333	0.00000E+0	0.00000E+0	0.00000E+0	0.00000E+0	0.00000E+0	0.00000E+0	2.00000E+1	1.40000E+1	2.00001E+1	1.39995E+1
163	02/09/2022	14:47:11.743	0.00000E+0	0.00000E+0	0.00000E+0	0.00000E+0	0.00000E+0	0.00000E+0	2.00000E+1	1.40000E+1	2.00009E+1	1.40009E+1
164	02/09/2022	14:47:13.196	0.00000E+0	0.00000E+0	0.00000E+0	0.00000E+0	0.00000E+0	0.00000E+0	2.00000E+1	1.40000E+1	2.00008E+1	1.40006E+1
165	02/09/2022	14:47:14.688	0.00000E+0	0.00000E+0	0.00000E+0	0.00000E+0	0.00000E+0	0.00000E+0	2.00000E+1	1.40000E+1	2.00016E+1	1.39975E+1
166	02/09/2022	14:47:16.077	0.00000E+0	0.00000E+0	0.00000E+0	0.00000E+0	0.00000E+0	0.00000E+0	2.00000E+1	1.40000E+1	2.00008E+1	1.40019E+1
167	02/09/2022	14:47:17.519	0.00000E+0	0.00000E+0	0.00000E+0	0.00000E+0	0.00000E+0	0.00000E+0	2.00000E+1	1.40000E+1	2.00023E+1	1.40006E+1
168	02/09/2022	14:47:18.896	0.00000E+0	0.00000E+0	0.00000E+0	0.00000E+0	0.00000E+0	0.00000E+0	2.00000E+1	1.40000E+1	1.99979E+1	1.40013E+1
169	02/09/2022	14:47:20.283	0.00000E+0	0.00000E+0	0.00000E+0	0.00000E+0	0.00000E+0	0.00000E+0	2.00000E+1	1.40000E+1	2.00000E+1	1.39994E+1
170	02/09/2022	14:47:21.777	0.00000E+0	0.00000E+0	0.00000E+0	0.00000E+0	0.00000E+0	0.00000E+0	2.00000E+1	1.40000E+1	1.99982E+1	1.39995E+1
171	02/09/2022	14:47:23.185	0.00000E+0	0.00000E+0	0.00000E+0	0.00000E+0	0.00000E+0	0.00000E+0	2.00000E+1	1.40000E+1	1.99987E+1	1.39974E+1
172	02/09/2022	14:47:24.629	0.00000E+0	0.00000E+0	0.00000E+0	0.00000E+0	0.00000E+0	0.00000E+0	2.00000E+1	1.40000E+1	1.99986E+1	1.40021E+1
173	02/09/2022	14:47:25.951	0.00000E+0	0.00000E+0	0.00000E+0	0.00000E+0	0.00000E+0	0.00000E+0	2.00000E+1	1.40000E+1	2.00006E+1	1.40003E+1
174	02/09/2022	14:47:27.337	0.00000E+0	0.00000E+0	0.00000E+0	0.00000E+0	0.00000E+0	0.00000E+0	2.00000E+1	1.40000E+1	1.99976E+1	1.40001E+1
175	02/09/2022	14:47:28.791	0.00000E+0	0.00000E+0	0.00000E+0	0.00000E+0	0.00000E+0	0.00000E+0	2.00000E+1	1.40000E+1	1.99998E+1	1.40022E+1
176	02/09/2022	14:47:30.197	0.00000E+0	0.00000E+0	0.00000E+0	0.00000E+0	0.00000E+0	0.00000E+0	2.00000E+1	1.40000E+1	1.99974E+1	1.40004E+1
177	02/09/2022	14:47:31.584	0.00000E+0	0.00000E+0	0.00000E+0	0.00000E+0	0.00000E+0	0.00000E+0	2.00000E+1	1.40000E+1	1.99981E+1	1.40002E+1
178	02/09/2022	14:47:33.082	0.00000E+0	0.00000E+0	0.00000E+0	0.00000E+0	0.00000E+0	0.00000E+0	2.00000E+1	1.40000E+1	2.00002E+1	1.40016E+1
179	02/09/2022	14:47:34.449	0.00000E+0	0.00000E+0	0.00000E+0	0.00000E+0	0.00000E+0	0.00000E+0	2.00000E+1	1.40000E+1	2.00003E+1	1.40009E+1
180	02/09/2022	14:47:35.993	0.00000E+0	0.00000E+0	0.00000E+0	0.00000E+0	0.00000E+0	0.00000E+0	2.00000E+1	1.40000E+1	1.99984E+1	1.39986E+1
181	02/09/2022	14:47:37.360	0.00000E+0	0.00000E+0	0.00000E+0	0.00000E+0	0.00000E+0	0.00000E+0	2.00000E+1	1.40000E+1	1.99978E+1	1.40026E+1
182	02/09/2022	14:47:38.735	0.00000E+0	0.00000E+0	0.00000E+0	0.00000E+0	0.00000E+0	0.00000E+0	2.00000E+1	1.40000E+1	1.99971E+1	1.40031E+1
183	02/09/2022	14:47:40.214	0.00000E+0	0.00000E+0	0.00000E+0	0.00000E+0	0.00000E+0	0.00000E+0	2.00000E+1	1.40000E+1	2.00004E+1	1.39990E+1
184	02/09/2022	14:47:41.606	0.00000E+0	0.00000E+0	0.00000E+0	0.00000E+0	0.00000E+0	0.00000E+0	2.00000E+1	1.40000E+1	2.00010E+1	1.39998E+1
185	02/09/2022	14:47:43.042	0.00000E+0	0.00000E+0	0.00000E+0	0.00000E+0	0.00000E+0	0.00000E+0	2.00000E+1	1.40000E+1	1.99994E+1	1.39997E+1
186	02/09/2022	14:47:44.555	0.00000E+0	0.00000E+0	0.00000E+0	0.00000E+0	0.00000E+0	0.00000E+0	2.00000E+1	1.40000E+1	1.99981E+1	1.40005E+1
187	02/09/2022	14:47:45.944	0.00000E+0	0.00000E+0	0.00000E+0	0.00000E+0	0.00000E+0	0.00000E+0	2.00000E+1	1.40000E+1	2.00021E+1	1.40005E+1
188	02/09/2022	14:47:47.425	0.00000E+0	0.00000E+0	0.00000E+0	0.00000E+0	0.00000E+0	0.00000E+0	2.00000E+1	1.40000E+1	2.00013E+1	1.40004E+1
189	02/09/2022	14:47:48.810	0.00000E+0	0.00000E+0	0.00000E+0	0.00000E+0	0.00000E+0	0.00000E+0	2.00000E+1	1.40000E+1	2.00020E+1	1.40003E+1
190	02/09/2022	14:47:50.193	0.00000E+0	0.00000E+0	0.00000E+0	0.00000E+0	0.00000E+0	0.00000E+0	2.00000E+1	1.40000E+1	2.00017E+1	1.39996E+1
191	02/09/2022	14:47:51.678	0.00000E+0	0.00000E+0	0.00000E+0	0.00000E+0	0.00000E+0	0.00000E+0	2.00000E+1	1.40000E+1	1.99994E+1	1.40017E+1
192	02/09/2022	14:47:53.070	0.00000E+0	0.00000E+0	0.00000E+0	0.00000E+0	0.00000E+0	0.00000E+0	2.00000E+1	1.40000E+1	1.99985E+1	1.40006E+1
193	02/09/2022	14:47:54.515	0.00000E+0	0.00000E+0	0.00000E+0	0.00000E+0	0.00000E+0	0.00000E+0	2.00000E+1	1.40000E+1	2.00017E+1	1.39983E+1
194	02/09/2022	14:47:55.949	0.00000E+0	0.00000E+0	0.00000E+0	0.00000E+0	0.00000E+0	0.00000E+0	2.00000E+1	1.40000E+1	1.99980E+1	1.40004E+1
195	02/09/2022	14:47:57.338	0.00000E+0	0.00000E+0	0.00000E+0	0.00000E+0	0.00000E+0	0.00000E+0	2.00000E+1	1.40000E+1	2.00005E+1	1.40021E+1
196	02/09/2022	14:47:58.882	0.00000E+0	0.00000E+0	0.00000E+0	0.00000E+0	0.00000E+0	0.00000E+0	2.00000E+1	1.40000E+1	1.99995E+1	1.40025E+1
197	02/09/2022	14:48:00.276	0.00000E+0	0.00000E+0	0.00000E+0	0.00000E+0	0.00000E+0	0.00000E+0	2.00000E+1	1.40000E+1	1.99994E+1	1.40009E+1
198	02/09/2022	14:48:01.725	0.00000E+0	0.00000E+0	0.00000E+0	0.00000E+0	0.00000E+0	0.00000E+0	2.00000E+1	1.40000E+1	1.99999E+1	1.39991E+1
199	02/09/2022	14:48:03.209	0.00000E+0	0.00000E+0	0.00000E+0	0.00000E+0	0.00000E+0	0.00000E+0	2.00000E+1	1.40000E+1	1.99970E+1	1.40002E+1
200	02/09/2022	14:48:04.577	0.00000E+0	0.00000E+0	0.00000E+0	0.00000E+0	0.00000E+0	0.00000E+0	2.00000E+1	1.40000E+1	2.00005E+1	1.39996E+1
201	02/09/2022	14:48:06.012	0.00000E+0	0.00000E+0	0.00000E+0	0.00000E+0	0.00000E+0	0.00000E+0	2.00000E+1	1.40000E+1	2.00009E+1	1.39999E+1
202	02/09/2022	14:48:07.402	0.00000E+0	0.00000E+0	0.00000E+0	0.00000E+0	0.00000E+0	0.00000E+0	2.00000E+1	1.40000E+1	1.99993E+1	1.39995E+1
203	02/09/2022	14:48:08.766	0.00000E+0	0.00000E+0	0.00000E+0	0.00000E+0	0.00000E+0	0.00000E+0	2.00000E+1	1.40000E+1	2.00009E+1	1.40000E+1
204	02/09/2022	14:48:10.331	0.00000E+0	0.00000E+0	0.00000E+0	0.00000E+0	0.00000E+0	0.00000E+0	2.00000E+1	1.40000E+1	2.00004E+1	1.40013E+1
205	02/09/2022	14:48:11.694	0.00000E+0	0.00000E+0	0.00000E+0	0.00000E+0	0.00000E+0	0.00000E+0	2.00000E+1	1.40000E+1	2.00003E+1	1.39987E+1
206	02/09/2022	14:48:13.121	0.00000E+0	0.00000E+0	0.00000E+0	0.00000E+0	0.00000E+0	0.00000E+0	2.00000E+1	1.40000E+1	1.99998E+1	1.40005E+1
207	02/09/2022	14:48:14.531	0.00000E+0	0.00000E+0	0.00000E+0	0.00000E+0	0.00000E+0	0.00000E+0	2.00000E+1	1.40000E+1	1.99984E+1	1.39984E+1
208	02/09/2022	14:48:15.902	0.00000E+0	0.00000E+0	0.00000E+0	0.00000E+0	0.00000E+0	0.00000E+0	2.00000E+1	1.40000E+1	1.99988E+1	1.40014E+1
209	02/09/2022	14:48:17.381	0.00000E+0	0.00000E+0	0.00000E+0	0.00000E+0	0.00000E+0	0.00000E+0	2.00000E+1	1.40000E+1	2.00003E+1	1.40023E+1
210	02/09/2022	14:48:18.822	0.00000E+0	0.00000E+0	0.00000E+0	0.00000E+0	0.00000E+0	0.00000E+0	2.00000E+1	1.40000E+1	1.99996E+1	1.40018E+1
211	02/09/2022	14:48:20.264	0.00000E+0	0.00000E+0	0.00000E+0	0.00000E+0	0.00000E+0	0.00000E+0	2.00000E+1	1.40000E+1	1.99990E+1	1.40040E+1
212	02/09/2022	14:48:21.755	0.00000E+0	0.00000E+0	0.00000E+0	0.00000E+0	0.00000E+0	0.00000E+0	2.00000E+1	1.40000E+1	1.99989E+1	1.40031E+1
213	02/09/2022	14:48:23.146	0.00000E+0	0.00000E+0	0.00000E+0	0.00000E+0	0.00000E+0	0.00000E+0	2.00000E+1	1.40000E+1	2.00009E+1	1.40016E+1
214	02/09/2022	14:48:24.574	0.00000E+0	0.00000E+0	0.00000E+0	0.00000E+0	0.00000E+0	0.00000E+0	2.00000E+1	1.40000E+1	2.00000E+1	1.40011E+1
215	02/09/2022	14:48:26.038	0.00000E+0	0.00000E+0	0.00000E+0	0.00000E+0	0.00000E+0	0.00000E+0	2.00000E+1	1.40000E+1	2.00029E+1	1.40010E+1
216	02/09/2022	14:48:27.419	0.00000E+0	0.00000E+0	0.00000E+0	0.00000E+0	0.00000E+0	0.00000E+0	2.00000E+1	1.40000E+1	2.00002E+1	1.39997E+1
217	02/09/2022	14:48:28.909	0.00000E+0	0.00000E+0	0.00000E+0	0.00000E+0	0.00000E+0	0.00000E+0	2.00000E+1	1.40000E+1	2.00000E+1	1.39994E+1
218	02/09/2022	14:48:30.303	0.00000E+0	0.00000E+0	0.00000E+0	0.00000E+0	0.00000E+0	0.00000E+0	2.00000E+1	1.40000E+1	1.99977E+1	1.40015E+1
219	02/09/2022	14:48:31.737	0.00000E+0	0.00000E+0	0.00000E+0	0.00000E+0	0.00000E+0	0.00000E+0	2.00000E+1	1.40000E+1	1.99992E+1	1.40014E+1
220	02/09/2022	14:48:33.214	0.00000E+0	0.00000E+0	0.00000E+0	0.00000E+0	0.00000E+0	0.00000E+0	2.00000E+1	1.40000E+1	2.00003E+1	1.39984E+1
221	02/09/2022	14:48:34.581	0.00000E+0	0.00000E+0	0.00000E+0	0.00000E+0	0.00000E+0	0.00000E+0	2.00000E+1	1.40000E+1	1.99981E+1	1.39977E+1
222	02/09/2022	14:48:36.094	0.00000E+0	0.00000E+0	0.00000E+0	0.00000E+0	0.00000E+0	0.00000E+0	2.00000E+1	1.40000E+1	2.00016E+1	1.39985E+1
223	02/09/2022	14:48:37.479	0.00000E+0	0.00000E+0	0.00000E+0	0.00000E+0	0.00000E+0	0.00000E+0	2.00000E+1	1.40000E+1	1.99983E+1	1.40018E+1
224	02/09/2022	14:48:38.867	0.00000E+0	0.00000E+0	0.00000E+0	0.00000E+0	0.00000E+0	0.00000E+0	2.00000E+1	1.40000E+1	2.00017E+1	1.40002E+1
225	02/09/2022	14:48:40.326	0.00000E+0	0.00000E+0	0.00000E+0	0.00000E+0	0.00000E+0	0.00000E+0	2.00000E+1	1.40000E+1	2.00006E+1	1.40006E+1
226	02/09/2022	14:48:41.729	0.00000E+0	0.00000E+0	0.00000E+0	0.00000E+0	0.00000E+0	0.00000E+0	2.00000E+1	1.40000E+1	2.00009E+1	1.40031E+1
227	02/09/2022	14:48:43.112	0.00000E+0	0.00000E+0	0.00000E+0	0.00000E+0	0.00000E+0	0.00000E+0	2.00000E+1	1.40000E+1	1.99996E+1	1.39999E+1
228	02/09/2022	14:48:44.512	0.00000E+0	0.00000E+0	0.00000E+0	0.00000E+0	0.00000E+0	0.00000E+0	2.00000E+1	1.40000E+1	1.99997E+1	1.39999E+1
229	02/09/2022	14:48:45.890	0.00000E+0	0.00000E+0	0.00000E+0	0.00000E+0	0.00000E+0	0.00000E+0	2.00000E+1	1.40000E+1	2.00013E+1	1.39968E+1
230	02/09/2022	14:48:47.427	0.00000E+0	0.00000E+0	0.00000E+0	0.00000E+0	0.00000E+0	0.00000E+0	2.00000E+1	1.40000E+1	2.00011E+1	1.39989E+1
231	02/09/2022	14:48:48.792	0.00000E+0	0.00000E+0	0.00000E+0	0.00000E+0	0.00000E+0	0.00000E+0	2.00000E+1	1.40000E+1	1.99987E+1	1.40000E+1
232	02/09/2022	14:48:50.179	0.00000E+0	0.00000E+0	0.00000E+0	0.00000E+0	0.00000E+0	0.00000E+0	2.00000E+1	1.40000E+1	1.99996E+1	1.40006E+1
233	02/09/2022	14:48:51.705	0.00000E+0	0.00000E+0	0.00000E+0	0.00000E+0	0.00000E+0	0.00000E+0	2.00000E+1	1.40000E+1	1.99986E+1	1.40011E+1
234	02/09/2022	14:48:53.110	0.00000E+0	0.00000E+0	0.00000E+0	0.00000E+0	0.00000E+0	0.00000E+0	2.00000E+1	1.40000E+1	1.99993E+1	1.39987E+1
235	02/09/2022	14:48:54.608	0.00000E+0	0.00000E+0	0.00000E+0	0.00000E+0	0.00000E+0	0.00000E+0	2.00000E+1	1.40000E+1	1.99998E+1	1.40006E+1
236	02/09/2022	14:48:55.994	0.00000E+0	0.00000E+0	0.00000E+0	0.00000E+0	0.00000E+0	0.00000E+0	2.00000E+1	1.40000E+1	1.99999E+1	1.39994E+1
237	02/09/2022	14:48:57.393	0.00000E+0	0.00000E+0	0.00000E+0	0.00000E+0	0.00000E+0	0.00000E+0	2.00000E+1	1.40000E+1	1.99995E+1	1.39982E+1
238	02/09/2022	14:48:58.851	0.00000E+0	0.00000E+0	0.00000E+0	0.00000E+0	0.00000E+0	0.00000E+0	2.00000E+1	1.40000E+1	2.00024E+1	1.39996E+1
239	02/09/2022	14:49:00.233	0.00000E+0	0.00000E+0	0.00000E+0	0.00000E+0	0.00000E+0	0.00000E+0	2.00000E+1	1.40000E+1	1.99991E+1	1.40002E+1
240	02/09/2022	14:49:01.687	0.00000E+0	0.00000E+0	0.00000E+0	0.00000E+0	0.00000E+0	0.00000E+0	2.00000E+1	1.40000E+1	2.00000E+1	1.39975E+1
241	02/09/2022	14:49:03.169	0.00000E+0	0.00000E+0	0.00000E+0	0.00000E+0	0.00000E+0	0.00000E+0	2.00000E+1	1.40000E+1	2.00032E+1	1.39992E+1
242	02/09/2022	14:49:04.559	0.00000E+0	0.00000E+0	0.00000E+0	0.00000E+0	0.00000E+0	0.00000E+0	2.00000E+1	1.40000E+1	1.99996E+1	1.40009E+1
243	02/09/2022	14:49:06.096	0.00000E+0	0.00000E+0	0.00000E+0	0.00000E+0	0.00000E+0	0.00000E+0	2.00000E+1	1.40000E+1	1.99997E+1	1.40015E+1
244	02/09/2022	14:49:07.493	0.00000E+0	0.00000E+0	0.00000E+0	0.00000E+0	0.00000E+0	0.00000E+0	2.00000E+1	1.40000E+1	2.00002E+1	1.39965E+1
245	02/09/2022	14:49:08.905	0.00000E+0	0.00000E+0	0.00000E+0	0.00000E+0	0.00000E+0	0.00000E+0	2.00000E+1	1.40000E+1	1.99989E+1	1.40004E+1
246	02/09/2022	14:49:10.394	0.00000E+0	0.00000E+0	0.00000E+0	0.00000E+0	0.00000E+0	0.00000E+0	2.00000E+1	1.40000E+1	2.00008E+1	1.40022E+1
247	02/09/2022	14:49:11.775	0.00000E+0	0.00000E+0	0.00000E+0	0.00000E+0	0.00000E+0	0.00000E+0	2.00000E+1	1.40000E+1	1.99994E+1	1.40012E+1
248	02/09/2022	14:49:13.188	0.00000E+0	0.00000E+0	0.00000E+0	0.00000E+0	0.00000E+0	0.00000E+0	2.00000E+1	1.40000E+1	1.99984E+1	1.39993E+1
249	02/09/2022	14:49:14.710	0.00000E+0	0.00000E+0	0.00000E+0	0.00000E+0	0.00000E+0	0.00000E+0	2.00000E+1	1.40000E+1	2.00002E+1	1.40005E+1
250	02/09/2022	14:49:16.112	0.00000E+0	0.00000E+0	0.00000E+0	0.00000E+0	0.00000E+0	0.00000E+0	2.00000E+1	1.40000E+1	2.00019E+1	1.40002E+1
251	02/09/2022	14:49:17.650	0.00000E+0	0.00000E+0	0.00000E+0	0.00000E+0	0.00000E+0	0.00000E+0	2.00000E+1	1.40000E+1	2.00003E+1	1.39999E+1
252	02/09/2022	14:49:19.028	0.00000E+0	0.00000E+0	0.00000E+0	0.00000E+0	0.00000E+0	0.00000E+0	2.00000E+1	1.40000E+1	1.99995E+1	1.40000E+1
253	02/09/2022	14:49:20.409	0.00000E+0	0.00000E+0	0.00000E+0	0.00000E+0	0.00000E+0	0.00000E+0	2.00000E+1	1.40000E+1	2.00013E+1	1.40011E+1
254	02/09/2022	14:49:21.920	0.00000E+0	0.00000E+0	0.00000E+0	0.00000E+0	0.00000E+0	0.00000E+0	2.00000E+1	1.40000E+1	2.00007E+1	1.39990E+1
255	02/09/2022	14:49:23.287	0.00000E+0	0.00000E+0	0.00000E+0	0.00000E+0	0.00000E+0	0.00000E+0	2.00000E+1	1.40000E+1	1.99996E+1	1.40004E+1
256	02/09/2022	14:49:24.738	0.00000E+0	0.00000E+0	0.00000E+0	0.00000E+0	0.00000E+0	0.00000E+0	2.00000E+1	1.40000E+1	2.00017E+1	1.39983E+1
257	02/09/2022	14:49:26.122	0.00000E+0	0.00000E+0	0.00000E+0	0.00000E+0	0.00000E+0	0.00000E+0	2.00000E+1	1.40000E+1	2.00007E+1	1.39999E+1
258	02/09/2022	14:49:27.492	0.00000E+0	0.00000E+0	0.00000E+0	0.00000E+0	0.00000E+0	0.00000E+0	2.00000E+1	1.40000E+1	2.00027E+1	1.40004E+1
259	02/09/2022	14:49:29.048	0.00000E+0	0.00000E+0	0.00000E+0	0.00000E+0	0.00000E+0	0.00000E+0	2.00000E+1	1.40000E+1	2.00000E+1	1.39992E+1
260	02/09/2022	14:49:30.433	0.00000E+0	0.00000E+0	0.00000E+0	0.00000E+0	0.00000E+0	0.00000E+0	2.00000E+1	1.40000E+1	1.99999E+1	1.39992E+1
261	02/09/2022	14:49:31.881	0.00000E+0	0.00000E+0	0.00000E+0	0.00000E+0	0.00000E+0	0.00000E+0	2.00000E+1	1.40000E+1	2.00019E+1	1.40010E+1
262	02/09/2022	14:49:33.219	0.00000E+0	0.00000E+0	0.00000E+0	0.00000E+0	0.00000E+0	0.00000E+0	2.00000E+1	1.40000E+1	1.99982E+1	1.39987E+1
263	02/09/2022	14:49:34.618	0.00000E+0	0.00000E+0	0.00000E+0	0.00000E+0	0.00000E+0	0.00000E+0	2.00000E+1	1.40000E+1	1.99985E+1	1.40015E+1
264	02/09/2022	14:49:36.082	0.00000E+0	0.00000E+0	0.00000E+0	0.00000E+0	0.00000E+0	0.00000E+0	2.00000E+1	1.40000E+1	2.00020E+1	1.39998E+1
265	02/09/2022	14:49:37.591	0.00000E+0	0.00000E+0	0.00000E+0	0.00000E+0	0.00000E+0	0.00000E+0	2.00000E+1	1.40000E+1	2.00002E+1	1.40005E+1
266	02/09/2022	14:49:39.040	0.00000E+0	0.00000E+0	0.00000E+0	0.00000E+0	0.00000E+0	0.00000E+0	2.00000E+1	1.40000E+1	2.00017E+1	1.40001E+1
267	02/09/2022	14:49:40.567	0.00000E+0	0.00000E+0	0.00000E+0	0.00000E+0	0.00000E+0	0.00000E+0	2.00000E+1	1.40000E+1	1.99986E+1	1.40003E+1
268	02/09/2022	14:49:41.939	0.00000E+0	0.00000E+0	0.00000E+0	0.00000E+0	0.00000E+0	0.00000E+0	2.00000E+1	1.40000E+1	1.99987E+1	1.39992E+1
269	02/09/2022	14:49:43.438	0.00000E+0	0.00000E+0	0.00000E+0	0.00000E+0	0.00000E+0	0.00000E+0	2.00000E+1	1.40000E+1	1.99990E+1	1.39987E+1
270	02/09/2022	14:49:44.835	0.00000E+0	0.00000E+0	0.00000E+0	0.00000E+0	0.00000E+0	0.00000E+0	2.00000E+1	1.40000E+1	1.99994E+1	1.40002E+1
271	02/09/2022	14:49:46.210	0.00000E+0	0.00000E+0	0.00000E+0	0.00000E+0	0.00000E+0	0.00000E+0	2.00000E+1	1.40000E+1	2.00027E+1	1.39995E+1
272	02/09/2022	14:49:47.746	0.00000E+0	0.00000E+0	0.00000E+0	0.00000E+0	0.00000E+0	0.00000E+0	2.00000E+1	1.40000E+1	1.99997E+1	1.40004E+1
273	02/09/2022	14:49:49.145	0.00000E+0	0.00000E+0	0.00000E+0	0.00000E+0	0.00000E+0	0.00000E+0	2.00000E+1	1.40000E+1	1.99990E+1	1.40001E+1
274	02/09/2022	14:49:50.528	0.00000E+0	0.00000E+0	0.00000E+0	0.00000E+0	0.00000E+0	0.00000E+0	2.00000E+1	1.40000E+1	2.00005E+1	1.40009E+1
275	02/09/2022	14:49:52.002	0.00000E+0	0.00000E+0	0.00000E+0	0.00000E+0	0.00000E+0	0.00000E+0	2.00000E+1	1.40000E+1	1.99986E+1	1.39982E+1
276	02/09/2022	14:49:53.396	0.00000E+0	0.00000E+0	0.00000E+0	0.00000E+0	0.00000E+0	0.00000E+0	2.00000E+1	1.40000E+1	1.99999E+1	1.40014E+1
277	02/09/2022	14:49:54.868	0.00000E+0	0.00000E+0	0.00000E+0	0.00000E+0	0.00000E+0	0.00000E+0	2.00000E+1	1.40000E+1	1.99999E+1	1.40023E+1
278	02/09/2022	14:49:56.269	0.00000E+0	0.00000E+0	0.00000E+0	0.00000E+0	0.00000E+0	0.00000E+0	2.00000E+1	1.40000E+1	2.00029E+1	1.40012E+1
279	02/09/2022	14:49:57.633	0.00000E+0	0.00000E+0	0.00000E+0	0.00000E+0	0.00000E+0	0.00000E+0	2.00000E+1	1.40000E+1	2.00008E+1	1.39979E+1
280	02/09/2022	14:49:59.156	0.00000E+0	0.00000E+0	0.00000E+0	0.00000E+0	0.00000E+0	0.00000E+0	2.00000E+1	1.40000E+1	1.99978E+1	1.39986E+1
281	02/09/2022	14:50:00.545	0.00000E+0	0.00000E+0	0.00000E+0	0.00000E+0	0.00000E+0	0.00000E+0	2.00000E+1	1.40000E+1	2.00007E+1	1.39991E+1
282	02/09/2022	14:50:02.132	0.00000E+0	0.00000E+0	0.00000E+0	0.00000E+0	0.00000E+0	0.00000E+0	2.00000E+1	1.40000E+1	1.99991E+1	1.40004E+1
283	02/09/2022	14:50:03.500	0.00000E+0	0.00000E+0	0.00000E+0	0.00000E+0	0.00000E+0	0.00000E+0	2.00000E+1	1.40000E+1	2.00012E+1	1.40006E+1
284	02/09/2022	14:50:04.896	0.00000E+0	0.00000E+0	0.00000E+0	0.00000E+0	0.00000E+0	0.00000E+0	2.00000E+1	1.40000E+1	1.99992E+1	1.39980E+1
285	02/09/2022	14:50:06.367	0.00000E+0	0.00000E+0	0.00000E+0	0.00000E+0	0.00000E+0	0.00000E+0	2.00000E+1	1.40000E+1	2.00008E+1	1.40015E+1
286	02/09/2022	14:50:07.745	0.00000E+0	0.00000E+0	0.00000E+0	0.00000E+0	0.00000E+0	0.00000E+0	2.00000E+1	1.40000E+1	1.99990E+1	1.40004E+1
287	02/09/2022	14:50:09.160	0.00000E+0	0.00000E+0	0.00000E+0	0.00000E+0	0.00000E+0	0.00000E+0	2.00000E+1	1.40000E+1	1.99976E+1	1.39993E+1
288	02/09/2022	14:50:10.645	0.00000E+0	0.00000E+0	0.00000E+0	0.00000E+0	0.00000E+0	0.00000E+0	2.00000E+1	1.40000E+1	1.99974E+1	1.39989E+1
289	02/09/2022	14:50:12.035	0.00000E+0	0.00000E+0	0.00000E+0	0.00000E+0	0.00000E+0	0.00000E+0	2.00000E+1	1.40000E+1	1.99994E+1	1.40005E+1
290	02/09/2022	14:50:13.494	0.00000E+0	0.00000E+0	0.00000E+0	0.00000E+0	0.00000E+0	0.00000E+0	2.00000E+1	1.40000E+1	2.00026E+1	1.40010E+1
291	02/09/2022	14:50:14.895	0.00000E+0	0.00000E+0	0.00000E+0	0.00000E+0	0.00000E+0	0.00000E+0	2.00000E+1	1.40000E+1	2.00009E+1	1.39985E+1
292	02/09/2022	14:50:16.259	0.00000E+0	0.00000E+0	0.00000E+0	0.00000E+0	0.00000E+0	0.00000E+0	2.00000E+1	1.40000E+1	1.99988E+1	1.39973E+1
293	02/09/2022	14:50:17.787	0.00000E+0	0.00000E+0	0.00000E+0	0.00000E+0	0.00000E+0	0.00000E+0	2.00000E+1	1.40000E+1	2.00008E+1	1.40004E+1
294	02/09/2022	14:50:19.181	0.00000E+0	0.00000E+0	0.00000E+0	0.00000E+0	0.00000E+0	0.00000E+0	2.00000E+1	1.40000E+1	2.00012E+1	1.39978E+1
295	02/09/2022	14:50:20.560	0.00000E+0	0.00000E+0	0.00000E+0	0.00000E+0	0.00000E+0	0.00000E+0	2.00000E+1	1.40000E+1	2.00016E+1	1.40001E+1
296	02/09/2022	14:50:22.053	0.00000E+0	0.00000E+0	0.00000E+0	0.00000E+0	0.00000E+0	0.00000E+0	2.00000E+1	1.40000E+1	2.00012E+1	1.40004E+1
297	02/09/2022	14:50:23.444	0.00000E+0	0.00000E+0	0.00000E+0	0.00000E+0	0.00000E+0	0.00000E+0	2.00000E+1	1.40000E+1	2.00007E+1	1.40009E+1
298	02/09/2022	14:50:24.950	0.00000E+0	0.00000E+0	0.00000E+0	0.00000E+0	0.00000E+0	0.00000E+0	2.00000E+1	1.40000E+1	2.00008E+1	1.39994E+1
299	02/09/2022	14:50:26.335	0.00000E+0	0.00000E+0	0.00000E+0	0.00000E+0	0.00000E+0	0.00000E+0	2.00000E+1	1.40000E+1	1.99991E+1	1.39998E+1
300	02/09/2022	14:50:27.720	0.00000E+0	0.00000E+0	0.00000E+0	0.00000E+0	0.00000E+0	0.00000E+0	2.00000E+1	1.40000E+1	1.99996E+1	1.39998E+1
301	02/09/2022	14:50:29.279	0.00000E+0	0.00000E+0	0.00000E+0	0.00000E+0	0.00000E+0	0.00000E+0	2.00000E+1	1.40000E+1	1.99998E+1	1.39995E+1
