#Iteration	Date	Time	STSX	STSY	RotationRateX	RotationRateY	FrCntX	FrCntY	TiptiltCmd1	TiptiltCmd2	TiptiltMonitor1	TiptiltMonitor2
1	20/03/2023	18:58:36.749	0.00000E+0	0.00000E+0	-7.13117E+1	-8.10736E-1	0.00000E+0	0.00000E+0	2.01700E+1	1.47415E+1	2.01693E+1	1.47411E+1
2	20/03/2023	18:58:38.217	0.00000E+0	0.00000E+0	-1.04196E+2	-1.49959E-1	0.00000E+0	0.00000E+0	1.98074E+1	1.51336E+1	1.98073E+1	1.51326E+1
3	20/03/2023	18:58:39.693	0.00000E+0	0.00000E+0	6.36744E+1	8.52916E-1	0.00000E+0	0.00000E+0	2.20933E+1	1.28260E+1	2.20938E+1	1.28241E+1
4	20/03/2023	18:58:41.167	0.00000E+0	0.00000E+0	9.82784E+1	3.43271E-1	0.00000E+0	0.00000E+0	2.26636E+1	1.23526E+1	2.26636E+1	1.23515E+1
5	20/03/2023	18:58:42.661	0.00000E+0	0.00000E+0	8.84535E+1	4.85194E-1	0.00000E+0	0.00000E+0	2.25165E+1	1.24434E+1	2.25164E+1	1.24432E+1
6	20/03/2023	18:58:44.126	0.00000E+0	0.00000E+0	-4.66284E+1	1.18455E+0	0.00000E+0	0.00000E+0	2.07360E+1	1.42138E+1	2.07377E+1	1.42131E+1
7	20/03/2023	18:58:45.659	0.00000E+0	0.00000E+0	-1.30498E+2	1.13775E+0	0.00000E+0	0.00000E+0	1.93897E+1	1.55470E+1	1.93904E+1	1.55470E+1
8	20/03/2023	18:58:47.193	0.00000E+0	0.00000E+0	-3.48251E+1	7.70224E-1	0.00000E+0	0.00000E+0	2.07094E+1	1.42065E+1	2.07110E+1	1.42080E+1
9	20/03/2023	18:58:48.782	0.00000E+0	0.00000E+0	6.06370E+1	-8.10996E-1	0.00000E+0	0.00000E+0	2.20895E+1	1.28713E+1	2.20876E+1	1.28717E+1
10	20/03/2023	18:58:50.389	0.00000E+0	0.00000E+0	5.96117E+1	2.00331E+0	0.00000E+0	0.00000E+0	2.21426E+1	1.28112E+1	2.21414E+1	1.28103E+1
11	20/03/2023	18:58:51.979	0.00000E+0	0.00000E+0	7.67580E+1	1.10044E+0	0.00000E+0	0.00000E+0	2.23797E+1	1.26244E+1	2.23803E+1	1.26240E+1
12	20/03/2023	18:58:53.460	0.00000E+0	0.00000E+0	-8.31360E+1	-1.83274E+0	0.00000E+0	0.00000E+0	2.00856E+1	1.48560E+1	2.00861E+1	1.48556E+1
13	20/03/2023	18:58:54.982	0.00000E+0	0.00000E+0	-7.33364E+1	-5.51651E-1	0.00000E+0	0.00000E+0	2.01771E+1	1.47235E+1	2.01759E+1	1.47235E+1
14	20/03/2023	18:58:56.525	0.00000E+0	0.00000E+0	-7.22991E+1	-1.31470E+0	0.00000E+0	0.00000E+0	2.03527E+1	1.45887E+1	2.03511E+1	1.45901E+1
15	20/03/2023	18:58:58.075	0.00000E+0	0.00000E+0	1.12047E+2	1.60055E+0	0.00000E+0	0.00000E+0	2.28256E+1	1.21812E+1	2.28252E+1	1.21798E+1
16	20/03/2023	18:58:59.608	0.00000E+0	0.00000E+0	1.45015E+2	8.94368E-1	0.00000E+0	0.00000E+0	2.33553E+1	1.16532E+1	2.33566E+1	1.16562E+1
17	20/03/2023	18:59:01.143	0.00000E+0	0.00000E+0	-6.89003E+1	-1.79016E+0	0.00000E+0	0.00000E+0	2.05025E+1	1.44247E+1	2.05014E+1	1.44234E+1
18	20/03/2023	18:59:02.671	0.00000E+0	0.00000E+0	-1.26706E+2	-1.20184E+0	0.00000E+0	0.00000E+0	1.94252E+1	1.55049E+1	1.94238E+1	1.55044E+1
19	20/03/2023	18:59:04.204	0.00000E+0	0.00000E+0	-9.75101E+1	-6.53708E-1	0.00000E+0	0.00000E+0	1.98671E+1	1.50698E+1	1.98670E+1	1.50694E+1
20	20/03/2023	18:59:05.788	0.00000E+0	0.00000E+0	8.87567E+1	1.12332E+0	0.00000E+0	0.00000E+0	2.24880E+1	1.24894E+1	2.24864E+1	1.24880E+1
21	20/03/2023	18:59:07.351	0.00000E+0	0.00000E+0	1.16928E+2	9.69905E-1	0.00000E+0	0.00000E+0	2.28967E+1	1.21043E+1	2.28958E+1	1.21035E+1
22	20/03/2023	18:59:08.877	0.00000E+0	0.00000E+0	-1.00740E+2	-1.04543E+0	0.00000E+0	0.00000E+0	1.98013E+1	1.50958E+1	1.98029E+1	1.50966E+1
23	20/03/2023	18:59:10.426	0.00000E+0	0.00000E+0	-9.26384E+1	-1.06626E+0	0.00000E+0	0.00000E+0	1.99578E+1	1.49634E+1	1.99583E+1	1.49651E+1
24	20/03/2023	18:59:12.025	0.00000E+0	0.00000E+0	-1.24845E+2	2.04402E-2	0.00000E+0	0.00000E+0	1.94403E+1	1.54571E+1	1.94397E+1	1.54572E+1
25	20/03/2023	18:59:13.527	0.00000E+0	0.00000E+0	1.36488E+2	1.67889E+0	0.00000E+0	0.00000E+0	2.31483E+1	1.18149E+1	2.31454E+1	1.18155E+1
26	20/03/2023	18:59:15.273	0.00000E+0	0.00000E+0	8.57538E+1	1.81282E+0	0.00000E+0	0.00000E+0	2.26511E+1	1.23000E+1	2.26508E+1	1.22995E+1
27	20/03/2023	18:59:17.239	0.00000E+0	0.00000E+0	4.73645E+1	-3.44662E-1	0.00000E+0	0.00000E+0	2.21571E+1	1.28073E+1	2.21581E+1	1.28065E+1
28	20/03/2023	18:59:18.756	0.00000E+0	0.00000E+0	-8.41099E+1	-1.14824E+0	0.00000E+0	0.00000E+0	2.00364E+1	1.48864E+1	2.00399E+1	1.48881E+1
29	20/03/2023	18:59:20.278	0.00000E+0	0.00000E+0	-9.61435E+1	-2.03612E+0	0.00000E+0	0.00000E+0	1.98592E+1	1.51119E+1	1.98609E+1	1.51113E+1
30	20/03/2023	18:59:21.811	0.00000E+0	0.00000E+0	-7.84257E+1	-9.20523E-2	0.00000E+0	0.00000E+0	2.00623E+1	1.48765E+1	2.00655E+1	1.48758E+1
31	20/03/2023	18:59:23.357	0.00000E+0	0.00000E+0	1.25507E+2	-4.97850E-1	0.00000E+0	0.00000E+0	2.30035E+1	1.19728E+1	2.30023E+1	1.19743E+1
32	20/03/2023	18:59:24.930	0.00000E+0	0.00000E+0	9.67623E+1	7.47517E-1	0.00000E+0	0.00000E+0	2.26722E+1	1.23252E+1	2.26738E+1	1.23268E+1
33	20/03/2023	18:59:26.439	0.00000E+0	0.00000E+0	-7.70921E+1	-6.83046E-1	0.00000E+0	0.00000E+0	2.01491E+1	1.48131E+1	2.01491E+1	1.48115E+1
34	20/03/2023	18:59:27.945	0.00000E+0	0.00000E+0	-1.06689E+2	-2.95046E-1	0.00000E+0	0.00000E+0	1.97206E+1	1.52383E+1	1.97201E+1	1.52365E+1
35	20/03/2023	18:59:29.541	0.00000E+0	0.00000E+0	6.13330E+1	1.16397E+0	0.00000E+0	0.00000E+0	2.19882E+1	1.29878E+1	2.19897E+1	1.29849E+1
36	20/03/2023	18:59:31.041	0.00000E+0	0.00000E+0	1.17986E+2	-5.70452E-1	0.00000E+0	0.00000E+0	2.29223E+1	1.20389E+1	2.29257E+1	1.20406E+1
37	20/03/2023	18:59:32.623	0.00000E+0	0.00000E+0	-6.90352E+1	-1.31441E+0	0.00000E+0	0.00000E+0	2.03669E+1	1.45495E+1	2.03660E+1	1.45522E+1
38	20/03/2023	18:59:34.213	0.00000E+0	0.00000E+0	-1.06064E+2	-6.44015E-1	0.00000E+0	0.00000E+0	1.97407E+1	1.51570E+1	1.97410E+1	1.51554E+1
39	20/03/2023	18:59:35.715	0.00000E+0	0.00000E+0	-7.64066E+1	5.85003E-1	0.00000E+0	0.00000E+0	2.01466E+1	1.47666E+1	2.01459E+1	1.47676E+1
40	20/03/2023	18:59:37.272	0.00000E+0	0.00000E+0	8.90863E+1	2.36118E+0	0.00000E+0	0.00000E+0	2.24734E+1	1.24798E+1	2.24728E+1	1.24792E+1
41	20/03/2023	18:59:38.804	0.00000E+0	0.00000E+0	9.58803E+1	2.74157E-1	0.00000E+0	0.00000E+0	2.25915E+1	1.23693E+1	2.25906E+1	1.23661E+1
42	20/03/2023	18:59:40.312	0.00000E+0	0.00000E+0	9.23080E+1	1.78334E+0	0.00000E+0	0.00000E+0	2.25549E+1	1.23636E+1	2.25554E+1	1.23664E+1
43	20/03/2023	18:59:41.894	0.00000E+0	0.00000E+0	-8.42118E+1	1.94967E+0	0.00000E+0	0.00000E+0	2.00088E+1	1.49038E+1	2.00099E+1	1.49031E+1
44	20/03/2023	18:59:43.383	0.00000E+0	0.00000E+0	-1.12125E+2	4.55396E-1	0.00000E+0	0.00000E+0	1.96609E+1	1.52914E+1	1.96606E+1	1.52906E+1
45	20/03/2023	18:59:44.936	0.00000E+0	0.00000E+0	-8.74394E+1	-1.63464E+0	0.00000E+0	0.00000E+0	1.99149E+1	1.50169E+1	1.99152E+1	1.50169E+1
46	20/03/2023	18:59:46.460	0.00000E+0	0.00000E+0	1.24337E+2	-5.14259E-1	0.00000E+0	0.00000E+0	2.30240E+1	1.19917E+1	2.30215E+1	1.19916E+1
47	20/03/2023	18:59:47.989	0.00000E+0	0.00000E+0	1.19119E+2	-5.40837E-1	0.00000E+0	0.00000E+0	2.29507E+1	1.20467E+1	2.29498E+1	1.20475E+1
48	20/03/2023	18:59:49.535	0.00000E+0	0.00000E+0	-1.09455E+2	-2.13870E+0	0.00000E+0	0.00000E+0	1.96866E+1	1.52454E+1	1.96866E+1	1.52474E+1
49	20/03/2023	18:59:51.084	0.00000E+0	0.00000E+0	-9.96617E+1	-5.64311E-1	0.00000E+0	0.00000E+0	1.98033E+1	1.51256E+1	1.98036E+1	1.51255E+1
50	20/03/2023	18:59:52.587	0.00000E+0	0.00000E+0	4.93338E+1	-3.14735E-1	0.00000E+0	0.00000E+0	2.18489E+1	1.31182E+1	2.18491E+1	1.31214E+1
51	20/03/2023	18:59:54.074	0.00000E+0	0.00000E+0	1.36314E+2	1.72003E+0	0.00000E+0	0.00000E+0	2.31795E+1	1.17704E+1	2.31799E+1	1.17680E+1
52	20/03/2023	18:59:55.602	0.00000E+0	0.00000E+0	1.14201E+2	1.07839E+0	0.00000E+0	0.00000E+0	2.28812E+1	1.20946E+1	2.28820E+1	1.20939E+1
53	20/03/2023	18:59:57.101	0.00000E+0	0.00000E+0	-1.10195E+2	-1.29851E+0	0.00000E+0	0.00000E+0	1.96969E+1	1.52300E+1	1.96955E+1	1.52297E+1
54	20/03/2023	18:59:58.601	0.00000E+0	0.00000E+0	-1.08234E+2	-5.70769E-1	0.00000E+0	0.00000E+0	1.97183E+1	1.52095E+1	1.97172E+1	1.52110E+1
55	20/03/2023	19:00:00.188	0.00000E+0	0.00000E+0	7.33595E+1	4.29975E-1	0.00000E+0	0.00000E+0	2.22780E+1	1.26849E+1	2.22792E+1	1.26828E+1
56	20/03/2023	19:00:01.727	0.00000E+0	0.00000E+0	1.26709E+2	-1.30371E+0	0.00000E+0	0.00000E+0	2.29508E+1	1.19975E+1	2.29488E+1	1.19997E+1
57	20/03/2023	19:00:03.278	0.00000E+0	0.00000E+0	-7.81027E+1	-1.71690E+0	0.00000E+0	0.00000E+0	2.02283E+1	1.46912E+1	2.02261E+1	1.46929E+1
58	20/03/2023	19:00:04.832	0.00000E+0	0.00000E+0	-1.32453E+2	1.06841E-2	0.00000E+0	0.00000E+0	1.94250E+1	1.55379E+1	1.94237E+1	1.55384E+1
59	20/03/2023	19:00:06.383	0.00000E+0	0.00000E+0	-8.24049E+1	2.68458E-1	0.00000E+0	0.00000E+0	2.00641E+1	1.48632E+1	2.00644E+1	1.48624E+1
60	20/03/2023	19:00:07.865	0.00000E+0	0.00000E+0	1.05327E+2	4.07602E-2	0.00000E+0	0.00000E+0	2.27357E+1	1.22158E+1	2.27365E+1	1.22186E+1
61	20/03/2023	19:00:09.465	0.00000E+0	0.00000E+0	9.11004E+1	1.55886E-1	0.00000E+0	0.00000E+0	2.25768E+1	1.23927E+1	2.25781E+1	1.23923E+1
62	20/03/2023	19:00:11.030	0.00000E+0	0.00000E+0	-5.82232E+1	1.06115E+0	0.00000E+0	0.00000E+0	2.04199E+1	1.44903E+1	2.04213E+1	1.44908E+1
63	20/03/2023	19:00:12.557	0.00000E+0	0.00000E+0	-8.30530E+1	-2.63117E+0	0.00000E+0	0.00000E+0	2.00813E+1	1.48547E+1	2.00820E+1	1.48562E+1
64	20/03/2023	19:00:14.058	0.00000E+0	0.00000E+0	-7.11344E+1	1.51627E+0	0.00000E+0	0.00000E+0	2.02360E+1	1.46803E+1	2.02356E+1	1.46770E+1
65	20/03/2023	19:00:15.646	0.00000E+0	0.00000E+0	1.17691E+2	-9.31219E-2	0.00000E+0	0.00000E+0	2.29917E+1	1.20215E+1	2.29894E+1	1.20206E+1
66	20/03/2023	19:00:17.146	0.00000E+0	0.00000E+0	1.25544E+2	2.86238E-1	0.00000E+0	0.00000E+0	2.29805E+1	1.19682E+1	2.29800E+1	1.19689E+1
67	20/03/2023	19:00:18.734	0.00000E+0	0.00000E+0	-8.77932E+1	-7.77368E-1	0.00000E+0	0.00000E+0	2.00950E+1	1.48827E+1	2.00965E+1	1.48818E+1
68	20/03/2023	19:00:20.238	0.00000E+0	0.00000E+0	-1.21471E+2	-3.43698E-1	0.00000E+0	0.00000E+0	1.95073E+1	1.54614E+1	1.95065E+1	1.54623E+1
69	20/03/2023	19:00:21.826	0.00000E+0	0.00000E+0	-4.75535E+1	-6.90730E-1	0.00000E+0	0.00000E+0	2.04946E+1	1.44529E+1	2.04931E+1	1.44524E+1
70	20/03/2023	19:00:23.331	0.00000E+0	0.00000E+0	9.87210E+1	4.94856E-1	0.00000E+0	0.00000E+0	2.26184E+1	1.23763E+1	2.26196E+1	1.23778E+1
71	20/03/2023	19:00:24.859	0.00000E+0	0.00000E+0	1.09040E+2	7.60704E-1	0.00000E+0	0.00000E+0	2.28538E+1	1.21278E+1	2.28533E+1	1.21277E+1
72	20/03/2023	19:00:26.415	0.00000E+0	0.00000E+0	-9.95217E+1	-6.33265E-2	0.00000E+0	0.00000E+0	1.98653E+1	1.51032E+1	1.98657E+1	1.51040E+1
73	20/03/2023	19:00:27.970	0.00000E+0	0.00000E+0	-8.55129E+1	-9.91878E-1	0.00000E+0	0.00000E+0	2.00636E+1	1.48770E+1	2.00642E+1	1.48744E+1
74	20/03/2023	19:00:29.507	0.00000E+0	0.00000E+0	-4.56050E+1	-1.64234E-1	0.00000E+0	0.00000E+0	2.04253E+1	1.45231E+1	2.04262E+1	1.45238E+1
75	20/03/2023	19:00:31.020	0.00000E+0	0.00000E+0	8.39107E+1	9.46749E-1	0.00000E+0	0.00000E+0	2.24011E+1	1.25846E+1	2.24040E+1	1.25871E+1
76	20/03/2023	19:00:32.599	0.00000E+0	0.00000E+0	9.29407E+1	1.15274E+0	0.00000E+0	0.00000E+0	2.26070E+1	1.23590E+1	2.26065E+1	1.23619E+1
77	20/03/2023	19:00:34.140	0.00000E+0	0.00000E+0	-9.66588E+1	-4.48923E-1	0.00000E+0	0.00000E+0	1.98871E+1	1.50800E+1	1.98854E+1	1.50791E+1
78	20/03/2023	19:00:35.639	0.00000E+0	0.00000E+0	-1.05805E+2	-5.87422E-1	0.00000E+0	0.00000E+0	1.97609E+1	1.51907E+1	1.97620E+1	1.51926E+1
79	20/03/2023	19:00:37.198	0.00000E+0	0.00000E+0	-2.18382E+1	-1.11482E+0	0.00000E+0	0.00000E+0	2.07616E+1	1.41668E+1	2.07613E+1	1.41657E+1
80	20/03/2023	19:00:38.694	0.00000E+0	0.00000E+0	9.67689E+1	-2.14307E-2	0.00000E+0	0.00000E+0	2.25848E+1	1.23571E+1	2.25842E+1	1.23548E+1
81	20/03/2023	19:00:40.262	0.00000E+0	0.00000E+0	1.00876E+2	7.95229E-1	0.00000E+0	0.00000E+0	2.26988E+1	1.22571E+1	2.26993E+1	1.22547E+1
82	20/03/2023	19:00:41.875	0.00000E+0	0.00000E+0	-1.06501E+2	-8.47042E-1	0.00000E+0	0.00000E+0	1.97675E+1	1.51463E+1	1.97679E+1	1.51464E+1
83	20/03/2023	19:00:43.381	0.00000E+0	0.00000E+0	-1.03274E+2	-8.80101E-1	0.00000E+0	0.00000E+0	1.98061E+1	1.50954E+1	1.98085E+1	1.50942E+1
84	20/03/2023	19:00:44.887	0.00000E+0	0.00000E+0	3.70312E+1	1.90556E+0	0.00000E+0	0.00000E+0	2.15103E+1	1.34441E+1	2.15100E+1	1.34434E+1
85	20/03/2023	19:00:46.392	0.00000E+0	0.00000E+0	1.34641E+2	3.43561E-1	0.00000E+0	0.00000E+0	2.31336E+1	1.18425E+1	2.31336E+1	1.18425E+1
86	20/03/2023	19:00:47.974	0.00000E+0	0.00000E+0	1.03308E+2	-5.54207E-1	0.00000E+0	0.00000E+0	2.27829E+1	1.21584E+1	2.27821E+1	1.21598E+1
87	20/03/2023	19:00:49.479	0.00000E+0	0.00000E+0	-1.02161E+2	-4.98494E-1	0.00000E+0	0.00000E+0	1.97886E+1	1.51441E+1	1.97874E+1	1.51419E+1
88	20/03/2023	19:00:51.034	0.00000E+0	0.00000E+0	-9.11111E+1	-1.81679E+0	0.00000E+0	0.00000E+0	1.99841E+1	1.49976E+1	1.99844E+1	1.50006E+1
89	20/03/2023	19:00:52.676	0.00000E+0	0.00000E+0	7.64679E+1	1.19514E+0	0.00000E+0	0.00000E+0	2.22673E+1	1.26714E+1	2.22692E+1	1.26727E+1
90	20/03/2023	19:00:54.241	0.00000E+0	0.00000E+0	8.79675E+1	-6.90269E-1	0.00000E+0	0.00000E+0	2.24968E+1	1.24564E+1	2.24940E+1	1.24577E+1
91	20/03/2023	19:00:55.743	0.00000E+0	0.00000E+0	-7.28793E+1	2.89058E+0	0.00000E+0	0.00000E+0	2.03467E+1	1.45748E+1	2.03487E+1	1.45746E+1
92	20/03/2023	19:00:57.329	0.00000E+0	0.00000E+0	-1.20134E+2	-7.26799E-1	0.00000E+0	0.00000E+0	1.95646E+1	1.54024E+1	1.95619E+1	1.54033E+1
93	20/03/2023	19:00:58.939	0.00000E+0	0.00000E+0	9.82809E+1	-8.16077E-2	0.00000E+0	0.00000E+0	2.26169E+1	1.23661E+1	2.26172E+1	1.23644E+1
94	20/03/2023	19:01:00.489	0.00000E+0	0.00000E+0	1.37286E+2	-3.79222E-1	0.00000E+0	0.00000E+0	2.31715E+1	1.17802E+1	2.31737E+1	1.17815E+1
95	20/03/2023	19:01:02.092	0.00000E+0	0.00000E+0	-8.91006E+1	-7.09954E-1	0.00000E+0	0.00000E+0	2.00379E+1	1.49336E+1	2.00363E+1	1.49342E+1
96	20/03/2023	19:01:03.640	0.00000E+0	0.00000E+0	-1.20537E+2	-7.89990E-1	0.00000E+0	0.00000E+0	1.95371E+1	1.54071E+1	1.95365E+1	1.54074E+1
97	20/03/2023	19:01:05.175	0.00000E+0	0.00000E+0	-5.26297E+1	-2.40942E+0	0.00000E+0	0.00000E+0	2.02860E+1	1.46132E+1	2.02849E+1	1.46134E+1
98	20/03/2023	19:01:06.705	0.00000E+0	0.00000E+0	1.17624E+2	7.76603E-1	0.00000E+0	0.00000E+0	2.29321E+1	1.20272E+1	2.29298E+1	1.20268E+1
99	20/03/2023	19:01:08.249	0.00000E+0	0.00000E+0	9.53722E+1	1.46669E+0	0.00000E+0	0.00000E+0	2.26513E+1	1.23122E+1	2.26507E+1	1.23110E+1
100	20/03/2023	19:01:09.859	0.00000E+0	0.00000E+0	-1.02618E+2	-2.56321E+0	0.00000E+0	0.00000E+0	1.97969E+1	1.51490E+1	1.97970E+1	1.51483E+1
101	20/03/2023	19:01:11.359	0.00000E+0	0.00000E+0	-1.07462E+2	-4.37714E-1	0.00000E+0	0.00000E+0	1.96419E+1	1.52366E+1	1.96433E+1	1.52367E+1
102	20/03/2023	19:01:12.893	0.00000E+0	0.00000E+0	2.05864E+1	5.82750E-1	0.00000E+0	0.00000E+0	2.14047E+1	1.35297E+1	2.14033E+1	1.35285E+1
103	20/03/2023	19:01:14.453	0.00000E+0	0.00000E+0	1.32234E+2	1.01941E+0	0.00000E+0	0.00000E+0	2.31243E+1	1.18464E+1	2.31246E+1	1.18460E+1
104	20/03/2023	19:01:15.945	0.00000E+0	0.00000E+0	1.17501E+2	5.68590E-1	0.00000E+0	0.00000E+0	2.29381E+1	1.20136E+1	2.29353E+1	1.20143E+1
105	20/03/2023	19:01:17.463	0.00000E+0	0.00000E+0	-1.01564E+2	8.71177E-1	0.00000E+0	0.00000E+0	1.97794E+1	1.51112E+1	1.97822E+1	1.51140E+1
106	20/03/2023	19:01:19.027	0.00000E+0	0.00000E+0	-1.30306E+2	-1.94134E-1	0.00000E+0	0.00000E+0	1.93494E+1	1.55685E+1	1.93479E+1	1.55669E+1
107	20/03/2023	19:01:20.529	0.00000E+0	0.00000E+0	1.24632E+2	2.72420E+0	0.00000E+0	0.00000E+0	2.29867E+1	1.19738E+1	2.29870E+1	1.19736E+1
108	20/03/2023	19:01:22.057	0.00000E+0	0.00000E+0	1.38168E+2	3.29259E+0	0.00000E+0	0.00000E+0	2.32423E+1	1.17455E+1	2.32430E+1	1.17456E+1
109	20/03/2023	19:01:23.624	0.00000E+0	0.00000E+0	-1.08896E+2	-1.60136E-1	0.00000E+0	0.00000E+0	1.96354E+1	1.52025E+1	1.96364E+1	1.52029E+1
110	20/03/2023	19:01:25.235	0.00000E+0	0.00000E+0	-1.15326E+2	-1.00525E+0	0.00000E+0	0.00000E+0	1.95990E+1	1.53302E+1	1.95967E+1	1.53298E+1
111	20/03/2023	19:01:26.746	0.00000E+0	0.00000E+0	-1.40121E+1	4.21746E-1	0.00000E+0	0.00000E+0	2.07528E+1	1.42150E+1	2.07518E+1	1.42148E+1
112	20/03/2023	19:01:28.314	0.00000E+0	0.00000E+0	1.26561E+2	2.83476E+0	0.00000E+0	0.00000E+0	2.30629E+1	1.18661E+1	2.30651E+1	1.18655E+1
113	20/03/2023	19:01:29.908	0.00000E+0	0.00000E+0	3.69906E+1	2.08975E-2	0.00000E+0	0.00000E+0	2.21309E+1	1.27579E+1	2.21306E+1	1.27559E+1
114	20/03/2023	19:01:31.498	0.00000E+0	0.00000E+0	-1.01796E+2	-1.00587E+0	0.00000E+0	0.00000E+0	1.98267E+1	1.51202E+1	1.98259E+1	1.51186E+1
115	20/03/2023	19:01:32.990	0.00000E+0	0.00000E+0	-7.52222E+1	1.65263E+0	0.00000E+0	0.00000E+0	2.01546E+1	1.47826E+1	2.01562E+1	1.47839E+1
116	20/03/2023	19:01:34.508	0.00000E+0	0.00000E+0	1.27455E+2	4.62294E-1	0.00000E+0	0.00000E+0	2.30723E+1	1.18765E+1	2.30727E+1	1.18763E+1
117	20/03/2023	19:01:36.082	0.00000E+0	0.00000E+0	1.55455E+2	1.52847E+0	0.00000E+0	0.00000E+0	2.34691E+1	1.14971E+1	2.34716E+1	1.14978E+1
118	20/03/2023	19:01:37.596	0.00000E+0	0.00000E+0	-1.26802E+2	1.32221E-1	0.00000E+0	0.00000E+0	1.93978E+1	1.55279E+1	1.93989E+1	1.55297E+1
119	20/03/2023	19:01:39.149	0.00000E+0	0.00000E+0	-1.15480E+2	-4.11759E-1	0.00000E+0	0.00000E+0	1.95238E+1	1.53725E+1	1.95254E+1	1.53744E+1
120	20/03/2023	19:01:40.727	0.00000E+0	0.00000E+0	1.28560E+2	3.16871E+0	0.00000E+0	0.00000E+0	2.31509E+1	1.18505E+1	2.31527E+1	1.18512E+1
121	20/03/2023	19:01:42.341	0.00000E+0	0.00000E+0	1.21249E+2	1.55821E-1	0.00000E+0	0.00000E+0	2.30045E+1	1.19480E+1	2.30043E+1	1.19476E+1
122	20/03/2023	19:01:43.862	0.00000E+0	0.00000E+0	-1.10540E+2	8.13383E-1	0.00000E+0	0.00000E+0	1.97186E+1	1.52599E+1	1.97181E+1	1.52613E+1
123	20/03/2023	19:01:45.363	0.00000E+0	0.00000E+0	-1.16848E+2	-1.45316E+0	0.00000E+0	0.00000E+0	1.95846E+1	1.53590E+1	1.95829E+1	1.53624E+1
124	20/03/2023	19:01:46.933	0.00000E+0	0.00000E+0	-6.72741E+1	1.52046E+0	0.00000E+0	0.00000E+0	2.01923E+1	1.47674E+1	2.01938E+1	1.47660E+1
125	20/03/2023	19:01:48.458	0.00000E+0	0.00000E+0	1.01058E+2	-4.93220E-1	0.00000E+0	0.00000E+0	2.26707E+1	1.22981E+1	2.26699E+1	1.22952E+1
126	20/03/2023	19:01:50.124	0.00000E+0	0.00000E+0	1.02673E+2	1.68797E+0	0.00000E+0	0.00000E+0	2.27595E+1	1.22254E+1	2.27572E+1	1.22242E+1
127	20/03/2023	19:01:51.630	0.00000E+0	0.00000E+0	-9.73745E+1	-6.90573E-1	0.00000E+0	0.00000E+0	1.98383E+1	1.50495E+1	1.98400E+1	1.50484E+1
128	20/03/2023	19:01:53.154	0.00000E+0	0.00000E+0	-1.15498E+2	-2.77363E-1	0.00000E+0	0.00000E+0	1.95875E+1	1.53793E+1	1.95856E+1	1.53821E+1
129	20/03/2023	19:01:54.722	0.00000E+0	0.00000E+0	6.84202E+1	2.74356E+0	0.00000E+0	0.00000E+0	2.20616E+1	1.28865E+1	2.20615E+1	1.28858E+1
130	20/03/2023	19:01:56.276	0.00000E+0	0.00000E+0	1.32152E+2	-4.98599E-1	0.00000E+0	0.00000E+0	2.30611E+1	1.18867E+1	2.30610E+1	1.18859E+1
131	20/03/2023	19:01:57.786	0.00000E+0	0.00000E+0	1.22024E+2	7.85513E-1	0.00000E+0	0.00000E+0	2.30095E+1	1.19581E+1	2.30119E+1	1.19588E+1
132	20/03/2023	19:01:59.310	0.00000E+0	0.00000E+0	-1.16401E+2	-5.52043E-1	0.00000E+0	0.00000E+0	1.96189E+1	1.53335E+1	1.96186E+1	1.53361E+1
133	20/03/2023	19:02:00.840	0.00000E+0	0.00000E+0	-1.05102E+2	-1.01315E+0	0.00000E+0	0.00000E+0	1.97556E+1	1.51933E+1	1.97549E+1	1.51922E+1
134	20/03/2023	19:02:02.350	0.00000E+0	0.00000E+0	1.07587E+2	1.87480E-1	0.00000E+0	0.00000E+0	2.27902E+1	1.21709E+1	2.27902E+1	1.21704E+1
135	20/03/2023	19:02:03.906	0.00000E+0	0.00000E+0	1.30412E+2	9.31024E-1	0.00000E+0	0.00000E+0	2.30780E+1	1.18895E+1	2.30760E+1	1.18910E+1
136	20/03/2023	19:02:05.396	0.00000E+0	0.00000E+0	-8.68327E+1	7.35839E-1	0.00000E+0	0.00000E+0	2.01803E+1	1.47642E+1	2.01791E+1	1.47631E+1
137	20/03/2023	19:02:06.950	0.00000E+0	0.00000E+0	-1.04234E+2	-1.05203E+0	0.00000E+0	0.00000E+0	1.97332E+1	1.51775E+1	1.97315E+1	1.51768E+1
138	20/03/2023	19:02:08.420	0.00000E+0	0.00000E+0	-4.24312E+1	-5.05091E-1	0.00000E+0	0.00000E+0	2.04993E+1	1.43826E+1	2.04981E+1	1.43836E+1
139	20/03/2023	19:02:09.979	0.00000E+0	0.00000E+0	1.02513E+2	-2.54139E-1	0.00000E+0	0.00000E+0	2.27080E+1	1.22304E+1	2.27084E+1	1.22307E+1
140	20/03/2023	19:02:11.528	0.00000E+0	0.00000E+0	-7.83514E+1	4.32337E-3	0.00000E+0	0.00000E+0	2.02167E+1	1.47680E+1	2.02139E+1	1.47685E+1
141	20/03/2023	19:02:13.092	0.00000E+0	0.00000E+0	-9.46552E+1	-1.22693E+0	0.00000E+0	0.00000E+0	1.98950E+1	1.50482E+1	1.98943E+1	1.50465E+1
142	20/03/2023	19:02:14.619	0.00000E+0	0.00000E+0	3.46170E+1	2.85192E-1	0.00000E+0	0.00000E+0	2.16142E+1	1.33131E+1	2.16141E+1	1.33113E+1
143	20/03/2023	19:02:16.173	0.00000E+0	0.00000E+0	1.25998E+2	1.60372E+0	0.00000E+0	0.00000E+0	2.30968E+1	1.19072E+1	2.30978E+1	1.19074E+1
144	20/03/2023	19:02:17.707	0.00000E+0	0.00000E+0	9.28327E+1	8.74979E-1	0.00000E+0	0.00000E+0	2.26474E+1	1.23718E+1	2.26465E+1	1.23713E+1
145	20/03/2023	19:02:19.287	0.00000E+0	0.00000E+0	-7.89448E+1	4.89902E-1	0.00000E+0	0.00000E+0	2.01107E+1	1.48137E+1	2.01114E+1	1.48139E+1
146	20/03/2023	19:02:20.866	0.00000E+0	0.00000E+0	-6.83725E+1	-1.44368E+0	0.00000E+0	0.00000E+0	2.02184E+1	1.46834E+1	2.02191E+1	1.46846E+1
147	20/03/2023	19:02:22.466	0.00000E+0	0.00000E+0	-6.71688E+1	-2.98753E-1	0.00000E+0	0.00000E+0	2.01747E+1	1.47708E+1	2.01744E+1	1.47672E+1
148	20/03/2023	19:02:23.953	0.00000E+0	0.00000E+0	1.04634E+2	1.63920E+0	0.00000E+0	0.00000E+0	2.26963E+1	1.22479E+1	2.26978E+1	1.22485E+1
149	20/03/2023	19:02:25.488	0.00000E+0	0.00000E+0	1.00427E+2	1.19190E-1	0.00000E+0	0.00000E+0	2.27023E+1	1.22867E+1	2.27029E+1	1.22871E+1
150	20/03/2023	19:02:27.132	0.00000E+0	0.00000E+0	-9.50852E+1	-1.30694E+0	0.00000E+0	0.00000E+0	1.98744E+1	1.50531E+1	1.98744E+1	1.50536E+1
151	20/03/2023	19:02:28.675	0.00000E+0	0.00000E+0	-1.13835E+2	-5.82596E-1	0.00000E+0	0.00000E+0	1.96159E+1	1.53075E+1	1.96166E+1	1.53066E+1
152	20/03/2023	19:02:30.220	0.00000E+0	0.00000E+0	-7.10726E+1	-2.48905E+0	0.00000E+0	0.00000E+0	2.02250E+1	1.47280E+1	2.02229E+1	1.47280E+1
153	20/03/2023	19:02:31.810	0.00000E+0	0.00000E+0	8.20826E+1	8.04179E-1	0.00000E+0	0.00000E+0	2.24402E+1	1.25239E+1	2.24394E+1	1.25238E+1
154	20/03/2023	19:02:33.333	0.00000E+0	0.00000E+0	1.11189E+2	1.25728E+0	0.00000E+0	0.00000E+0	2.28229E+1	1.21618E+1	2.28231E+1	1.21612E+1
155	20/03/2023	19:02:34.825	0.00000E+0	0.00000E+0	-9.85135E+0	-6.19955E-1	0.00000E+0	0.00000E+0	2.13511E+1	1.35844E+1	2.13505E+1	1.35844E+1
156	20/03/2023	19:02:36.355	0.00000E+0	0.00000E+0	-7.56064E+1	-1.88897E+0	0.00000E+0	0.00000E+0	2.01856E+1	1.47731E+1	2.01880E+1	1.47726E+1
157	20/03/2023	19:02:37.896	0.00000E+0	0.00000E+0	-8.06524E+1	-3.14408E-2	0.00000E+0	0.00000E+0	2.00883E+1	1.48523E+1	2.00902E+1	1.48525E+1
158	20/03/2023	19:02:39.486	0.00000E+0	0.00000E+0	1.71437E+0	7.42455E-1	0.00000E+0	0.00000E+0	2.10583E+1	1.38558E+1	2.10601E+1	1.38568E+1
159	20/03/2023	19:02:40.998	0.00000E+0	0.00000E+0	7.13087E+1	1.00988E+0	0.00000E+0	0.00000E+0	2.22627E+1	1.27073E+1	2.22622E+1	1.27075E+1
160	20/03/2023	19:02:42.585	0.00000E+0	0.00000E+0	1.12919E+2	8.06125E-1	0.00000E+0	0.00000E+0	2.28731E+1	1.20874E+1	2.28742E+1	1.20891E+1
161	20/03/2023	19:02:44.172	0.00000E+0	0.00000E+0	-7.80561E+1	2.82208E-1	0.00000E+0	0.00000E+0	2.01788E+1	1.47770E+1	2.01780E+1	1.47739E+1
162	20/03/2023	19:02:45.676	0.00000E+0	0.00000E+0	-8.32260E+1	-4.39554E-1	0.00000E+0	0.00000E+0	2.00825E+1	1.48396E+1	2.00812E+1	1.48405E+1
163	20/03/2023	19:02:47.264	0.00000E+0	0.00000E+0	-7.63608E+1	-2.27832E-2	0.00000E+0	0.00000E+0	2.01397E+1	1.47853E+1	2.01388E+1	1.47847E+1
164	20/03/2023	19:02:48.759	0.00000E+0	0.00000E+0	8.44482E+1	2.38275E-1	0.00000E+0	0.00000E+0	2.24156E+1	1.25615E+1	2.24162E+1	1.25596E+1
165	20/03/2023	19:02:50.326	0.00000E+0	0.00000E+0	1.05100E+2	-5.35651E-1	0.00000E+0	0.00000E+0	2.27270E+1	1.22362E+1	2.27266E+1	1.22375E+1
166	20/03/2023	19:02:51.852	0.00000E+0	0.00000E+0	9.81207E+1	9.50447E-1	0.00000E+0	0.00000E+0	2.26186E+1	1.23213E+1	2.26159E+1	1.23233E+1
167	20/03/2023	19:02:53.385	0.00000E+0	0.00000E+0	-1.02616E+2	-1.20794E+0	0.00000E+0	0.00000E+0	1.97734E+1	1.51148E+1	1.97725E+1	1.51156E+1
168	20/03/2023	19:02:54.930	0.00000E+0	0.00000E+0	-1.15151E+2	3.62612E-1	0.00000E+0	0.00000E+0	1.95727E+1	1.53611E+1	1.95721E+1	1.53602E+1
169	20/03/2023	19:02:56.460	0.00000E+0	0.00000E+0	6.07291E+0	1.64351E+0	0.00000E+0	0.00000E+0	2.11114E+1	1.38176E+1	2.11131E+1	1.38173E+1
170	20/03/2023	19:02:58.033	0.00000E+0	0.00000E+0	9.52451E+1	1.49551E-1	0.00000E+0	0.00000E+0	2.25415E+1	1.23962E+1	2.25421E+1	1.23934E+1
171	20/03/2023	19:02:59.625	0.00000E+0	0.00000E+0	8.16821E+1	5.10229E-1	0.00000E+0	0.00000E+0	2.24379E+1	1.25636E+1	2.24377E+1	1.25644E+1
172	20/03/2023	19:03:01.213	0.00000E+0	0.00000E+0	-7.91881E+1	7.67349E-2	0.00000E+0	0.00000E+0	2.01170E+1	1.48576E+1	2.01180E+1	1.48588E+1
173	20/03/2023	19:03:02.743	0.00000E+0	0.00000E+0	-1.11820E+2	-2.48632E-2	0.00000E+0	0.00000E+0	1.96550E+1	1.52668E+1	1.96551E+1	1.52665E+1
174	20/03/2023	19:03:04.308	0.00000E+0	0.00000E+0	1.22036E+2	6.16986E-1	0.00000E+0	0.00000E+0	2.28983E+1	1.20958E+1	2.28972E+1	1.20943E+1
175	20/03/2023	19:03:05.814	0.00000E+0	0.00000E+0	1.27050E+2	1.71631E+0	0.00000E+0	0.00000E+0	2.30659E+1	1.19238E+1	2.30652E+1	1.19252E+1
176	20/03/2023	19:03:07.403	0.00000E+0	0.00000E+0	-9.84810E+1	-2.17510E+0	0.00000E+0	0.00000E+0	1.99309E+1	1.49477E+1	1.99324E+1	1.49478E+1
177	20/03/2023	19:03:08.901	0.00000E+0	0.00000E+0	-1.19001E+2	-5.49607E-1	0.00000E+0	0.00000E+0	1.95690E+1	1.53302E+1	1.95675E+1	1.53285E+1
178	20/03/2023	19:03:10.450	0.00000E+0	0.00000E+0	-9.88812E+1	-9.82357E-1	0.00000E+0	0.00000E+0	1.98495E+1	1.51192E+1	1.98492E+1	1.51196E+1
179	20/03/2023	19:03:12.061	0.00000E+0	0.00000E+0	1.18820E+2	1.46250E+0	0.00000E+0	0.00000E+0	2.29893E+1	1.20181E+1	2.29885E+1	1.20212E+1
180	20/03/2023	19:03:13.568	0.00000E+0	0.00000E+0	8.52752E+1	1.24342E+0	0.00000E+0	0.00000E+0	2.24637E+1	1.25167E+1	2.24622E+1	1.25173E+1
181	20/03/2023	19:03:15.140	0.00000E+0	0.00000E+0	-7.40206E+1	-1.18661E+0	0.00000E+0	0.00000E+0	2.02015E+1	1.47118E+1	2.02021E+1	1.47114E+1
182	20/03/2023	19:03:16.671	0.00000E+0	0.00000E+0	-9.04604E+1	-1.55641E+0	0.00000E+0	0.00000E+0	1.99831E+1	1.49621E+1	1.99831E+1	1.49618E+1
183	20/03/2023	19:03:18.231	0.00000E+0	0.00000E+0	7.15597E+1	1.35215E+0	0.00000E+0	0.00000E+0	2.21344E+1	1.28391E+1	2.21369E+1	1.28396E+1
184	20/03/2023	19:03:19.777	0.00000E+0	0.00000E+0	8.87048E+1	1.85923E+0	0.00000E+0	0.00000E+0	2.24962E+1	1.24404E+1	2.24960E+1	1.24395E+1
185	20/03/2023	19:03:21.257	0.00000E+0	0.00000E+0	1.02327E+2	1.74602E+0	0.00000E+0	0.00000E+0	2.27363E+1	1.22382E+1	2.27366E+1	1.22379E+1
186	20/03/2023	19:03:22.719	0.00000E+0	0.00000E+0	-9.38191E+1	-7.73117E-2	0.00000E+0	0.00000E+0	1.98841E+1	1.50261E+1	1.98834E+1	1.50266E+1
187	20/03/2023	19:03:24.270	0.00000E+0	0.00000E+0	-1.10380E+2	-4.17935E-1	0.00000E+0	0.00000E+0	1.96541E+1	1.52680E+1	1.96585E+1	1.52666E+1
188	20/03/2023	19:03:25.753	0.00000E+0	0.00000E+0	5.15169E+1	4.31923E-1	0.00000E+0	0.00000E+0	2.19161E+1	1.30506E+1	2.19159E+1	1.30511E+1
189	20/03/2023	19:03:27.364	0.00000E+0	0.00000E+0	9.20638E+1	6.88866E-1	0.00000E+0	0.00000E+0	2.25864E+1	1.23958E+1	2.25847E+1	1.23946E+1
190	20/03/2023	19:03:28.849	0.00000E+0	0.00000E+0	8.22535E+1	6.02064E-1	0.00000E+0	0.00000E+0	2.24032E+1	1.25031E+1	2.24050E+1	1.25029E+1
191	20/03/2023	19:03:30.364	0.00000E+0	0.00000E+0	-6.42071E+1	-2.98133E+0	0.00000E+0	0.00000E+0	2.04724E+1	1.44981E+1	2.04734E+1	1.44985E+1
192	20/03/2023	19:03:31.935	0.00000E+0	0.00000E+0	-1.19165E+2	9.24485E-1	0.00000E+0	0.00000E+0	1.95985E+1	1.53098E+1	1.95976E+1	1.53076E+1
193	20/03/2023	19:03:33.450	0.00000E+0	0.00000E+0	-9.66199E+1	-1.62394E+0	0.00000E+0	0.00000E+0	1.98556E+1	1.50838E+1	1.98557E+1	1.50836E+1
194	20/03/2023	19:03:34.978	0.00000E+0	0.00000E+0	1.04524E+2	-4.89287E-1	0.00000E+0	0.00000E+0	2.28208E+1	1.22178E+1	2.28215E+1	1.22159E+1
195	20/03/2023	19:03:36.470	0.00000E+0	0.00000E+0	1.02191E+2	9.51846E-1	0.00000E+0	0.00000E+0	2.26862E+1	1.23052E+1	2.26851E+1	1.23075E+1
196	20/03/2023	19:03:37.971	0.00000E+0	0.00000E+0	-4.99251E+1	-4.79338E-1	0.00000E+0	0.00000E+0	2.06717E+1	1.42392E+1	2.06741E+1	1.42391E+1
197	20/03/2023	19:03:39.544	0.00000E+0	0.00000E+0	-1.13271E+2	-1.13186E-1	0.00000E+0	0.00000E+0	1.96844E+1	1.52691E+1	1.96835E+1	1.52693E+1
198	20/03/2023	19:03:41.129	0.00000E+0	0.00000E+0	-7.71017E+1	-9.60512E-1	0.00000E+0	0.00000E+0	2.01367E+1	1.47988E+1	2.01349E+1	1.47984E+1
199	20/03/2023	19:03:42.653	0.00000E+0	0.00000E+0	1.11515E+2	9.37687E-1	0.00000E+0	0.00000E+0	2.28449E+1	1.21265E+1	2.28445E+1	1.21252E+1
200	20/03/2023	19:03:44.197	0.00000E+0	0.00000E+0	1.07091E+2	5.99941E-1	0.00000E+0	0.00000E+0	2.27617E+1	1.21952E+1	2.27623E+1	1.21947E+1
201	20/03/2023	19:03:45.749	0.00000E+0	0.00000E+0	-1.01440E+2	6.34059E-1	0.00000E+0	0.00000E+0	1.97936E+1	1.51319E+1	1.97934E+1	1.51340E+1
202	20/03/2023	19:03:47.332	0.00000E+0	0.00000E+0	-1.38172E+2	-2.56961E-1	0.00000E+0	0.00000E+0	1.93142E+1	1.56150E+1	1.93121E+1	1.56156E+1
203	20/03/2023	19:03:48.817	0.00000E+0	0.00000E+0	-7.28592E+1	-1.67502E+0	0.00000E+0	0.00000E+0	2.02308E+1	1.47388E+1	2.02313E+1	1.47376E+1
204	20/03/2023	19:03:50.407	0.00000E+0	0.00000E+0	7.22619E+1	-6.54103E-1	0.00000E+0	0.00000E+0	2.23344E+1	1.26796E+1	2.23374E+1	1.26812E+1
205	20/03/2023	19:03:52.015	0.00000E+0	0.00000E+0	9.27622E+1	-7.71696E-1	0.00000E+0	0.00000E+0	2.25947E+1	1.23644E+1	2.25950E+1	1.23637E+1
206	20/03/2023	19:03:53.585	0.00000E+0	0.00000E+0	7.96859E+1	-1.07666E+0	0.00000E+0	0.00000E+0	2.23894E+1	1.25454E+1	2.23889E+1	1.25437E+1
207	20/03/2023	19:03:55.100	0.00000E+0	0.00000E+0	-1.03310E+2	-2.35366E+0	0.00000E+0	0.00000E+0	1.98003E+1	1.51748E+1	1.98004E+1	1.51745E+1
208	20/03/2023	19:03:56.671	0.00000E+0	0.00000E+0	-7.30541E+1	-1.20663E+0	0.00000E+0	0.00000E+0	2.02039E+1	1.47278E+1	2.02023E+1	1.47268E+1
209	20/03/2023	19:03:58.137	0.00000E+0	0.00000E+0	-8.93481E+1	-4.69168E-1	0.00000E+0	0.00000E+0	1.99314E+1	1.50083E+1	1.99292E+1	1.50099E+1
210	20/03/2023	19:03:59.682	0.00000E+0	0.00000E+0	1.26443E+2	6.97225E-1	0.00000E+0	0.00000E+0	2.29952E+1	1.19055E+1	2.29953E+1	1.19059E+1
211	20/03/2023	19:04:01.187	0.00000E+0	0.00000E+0	9.06017E+1	2.03237E+0	0.00000E+0	0.00000E+0	2.25050E+1	1.24395E+1	2.25040E+1	1.24404E+1
212	20/03/2023	19:04:02.701	0.00000E+0	0.00000E+0	8.21592E+1	1.77108E+0	0.00000E+0	0.00000E+0	2.23897E+1	1.25765E+1	2.23878E+1	1.25777E+1
213	20/03/2023	19:04:04.283	0.00000E+0	0.00000E+0	-4.71255E+1	4.71708E-1	0.00000E+0	0.00000E+0	2.08319E+1	1.41317E+1	2.08330E+1	1.41305E+1
214	20/03/2023	19:04:05.777	0.00000E+0	0.00000E+0	-1.17746E+2	-1.29409E+0	0.00000E+0	0.00000E+0	1.95839E+1	1.53085E+1	1.95837E+1	1.53073E+1
215	20/03/2023	19:04:07.336	0.00000E+0	0.00000E+0	-9.66355E+1	-1.56839E+0	0.00000E+0	0.00000E+0	1.98643E+1	1.50741E+1	1.98648E+1	1.50716E+1
216	20/03/2023	19:04:08.878	0.00000E+0	0.00000E+0	9.04456E+1	1.07532E+0	0.00000E+0	0.00000E+0	2.24948E+1	1.24240E+1	2.24970E+1	1.24250E+1
217	20/03/2023	19:04:10.360	0.00000E+0	0.00000E+0	1.00139E+2	1.17958E+0	0.00000E+0	0.00000E+0	2.26859E+1	1.22811E+1	2.26872E+1	1.22809E+1
218	20/03/2023	19:04:11.912	0.00000E+0	0.00000E+0	5.46918E+1	3.00606E-2	0.00000E+0	0.00000E+0	2.20794E+1	1.28856E+1	2.20797E+1	1.28837E+1
219	20/03/2023	19:04:13.462	0.00000E+0	0.00000E+0	-8.89588E+1	-5.47540E-1	0.00000E+0	0.00000E+0	1.99874E+1	1.49641E+1	1.99865E+1	1.49631E+1
220	20/03/2023	19:04:14.983	0.00000E+0	0.00000E+0	-9.33937E+1	-8.27080E-1	0.00000E+0	0.00000E+0	1.99278E+1	1.49908E+1	1.99264E+1	1.49912E+1
221	20/03/2023	19:04:16.519	0.00000E+0	0.00000E+0	-5.25296E+1	-9.76842E-1	0.00000E+0	0.00000E+0	2.04134E+1	1.45474E+1	2.04125E+1	1.45477E+1
222	20/03/2023	19:04:18.151	0.00000E+0	0.00000E+0	1.02362E+2	-8.24086E-1	0.00000E+0	0.00000E+0	2.26843E+1	1.22745E+1	2.26848E+1	1.22734E+1
223	20/03/2023	19:04:19.660	0.00000E+0	0.00000E+0	1.02135E+2	-6.01845E-1	0.00000E+0	0.00000E+0	2.27115E+1	1.22146E+1	2.27118E+1	1.22151E+1
224	20/03/2023	19:04:21.231	0.00000E+0	0.00000E+0	-5.07759E+1	1.44398E-1	0.00000E+0	0.00000E+0	2.05954E+1	1.43645E+1	2.05958E+1	1.43637E+1
225	20/03/2023	19:04:22.748	0.00000E+0	0.00000E+0	-9.22600E+1	-6.90356E-1	0.00000E+0	0.00000E+0	1.99440E+1	1.50014E+1	1.99443E+1	1.50009E+1
226	20/03/2023	19:04:24.250	0.00000E+0	0.00000E+0	-9.29835E+1	-1.05072E+0	0.00000E+0	0.00000E+0	1.99410E+1	1.49612E+1	1.99405E+1	1.49602E+1
227	20/03/2023	19:04:25.808	0.00000E+0	0.00000E+0	1.58250E+1	-1.11144E+0	0.00000E+0	0.00000E+0	2.12771E+1	1.37002E+1	2.12773E+1	1.37028E+1
228	20/03/2023	19:04:27.347	0.00000E+0	0.00000E+0	9.42039E+1	4.55484E-1	0.00000E+0	0.00000E+0	2.26216E+1	1.23892E+1	2.26199E+1	1.23869E+1
229	20/03/2023	19:04:28.876	0.00000E+0	0.00000E+0	9.73171E+1	5.82363E-1	0.00000E+0	0.00000E+0	2.26387E+1	1.22911E+1	2.26372E+1	1.22907E+1
230	20/03/2023	19:04:30.353	0.00000E+0	0.00000E+0	-7.17568E+1	9.23300E-1	0.00000E+0	0.00000E+0	2.03599E+1	1.45683E+1	2.03587E+1	1.45669E+1
231	20/03/2023	19:04:31.844	0.00000E+0	0.00000E+0	-1.03950E+2	-7.48468E-1	0.00000E+0	0.00000E+0	1.97914E+1	1.51694E+1	1.97876E+1	1.51705E+1
232	20/03/2023	19:04:33.358	0.00000E+0	0.00000E+0	-6.23548E+1	-8.66324E-1	0.00000E+0	0.00000E+0	2.03711E+1	1.45716E+1	2.03696E+1	1.45715E+1
233	20/03/2023	19:04:34.848	0.00000E+0	0.00000E+0	6.07662E+1	2.39644E+0	0.00000E+0	0.00000E+0	2.20676E+1	1.29048E+1	2.20675E+1	1.29030E+1
234	20/03/2023	19:04:36.367	0.00000E+0	0.00000E+0	9.75013E+1	6.68551E-1	0.00000E+0	0.00000E+0	2.26026E+1	1.23882E+1	2.26012E+1	1.23874E+1
235	20/03/2023	19:04:37.845	0.00000E+0	0.00000E+0	9.10177E+1	-3.66858E-1	0.00000E+0	0.00000E+0	2.25320E+1	1.24197E+1	2.25330E+1	1.24186E+1
236	20/03/2023	19:04:39.419	0.00000E+0	0.00000E+0	-9.56838E+1	-8.52490E-1	0.00000E+0	0.00000E+0	1.99218E+1	1.50183E+1	1.99212E+1	1.50190E+1
237	20/03/2023	19:04:40.938	0.00000E+0	0.00000E+0	-6.73647E+1	-1.64291E-1	0.00000E+0	0.00000E+0	2.02530E+1	1.46939E+1	2.02527E+1	1.46943E+1
238	20/03/2023	19:04:42.449	0.00000E+0	0.00000E+0	-1.03305E+2	-1.61230E+0	0.00000E+0	0.00000E+0	1.97864E+1	1.51427E+1	1.97864E+1	1.51424E+1
239	20/03/2023	19:04:43.957	0.00000E+0	0.00000E+0	9.14165E+1	2.30625E+0	0.00000E+0	0.00000E+0	2.25174E+1	1.24140E+1	2.25182E+1	1.24129E+1
240	20/03/2023	19:04:45.472	0.00000E+0	0.00000E+0	9.00343E+1	1.89606E+0	0.00000E+0	0.00000E+0	2.24787E+1	1.24411E+1	2.24794E+1	1.24449E+1
241	20/03/2023	19:04:46.968	0.00000E+0	0.00000E+0	-7.57685E+1	2.80406E+0	0.00000E+0	0.00000E+0	2.03042E+1	1.46518E+1	2.03041E+1	1.46500E+1
242	20/03/2023	19:04:48.548	0.00000E+0	0.00000E+0	-6.00580E+1	1.13629E+0	0.00000E+0	0.00000E+0	2.03644E+1	1.46217E+1	2.03645E+1	1.46225E+1
