#Iteration	Date	Time	Chirp	Phase	RamanAxis	RatioMean	RatioStdDev
1	10/05/2023	13:19:17.432	0.00000000E+0	-1.56922630E+3	5.00000000E+0	4.87905296E-1	0.00000000E+0
2	10/05/2023	13:19:19.006	0.00000000E+0	-1.56294311E+3	5.00000000E+0	3.26518499E-1	0.00000000E+0
3	10/05/2023	13:19:20.460	0.00000000E+0	-1.55665993E+3	5.00000000E+0	3.61594663E-1	0.00000000E+0
4	10/05/2023	13:19:21.919	0.00000000E+0	-1.55037674E+3	5.00000000E+0	5.84690462E-1	0.00000000E+0
5	10/05/2023	13:19:23.482	0.00000000E+0	-1.54409356E+3	5.00000000E+0	5.05970097E-1	0.00000000E+0
6	10/05/2023	13:19:24.959	0.00000000E+0	-1.53781037E+3	5.00000000E+0	4.37563643E-1	0.00000000E+0
7	10/05/2023	13:19:26.495	0.00000000E+0	-1.53152719E+3	5.00000000E+0	6.24348908E-1	0.00000000E+0
8	10/05/2023	13:19:28.030	0.00000000E+0	-1.52524400E+3	5.00000000E+0	5.79048445E-1	0.00000000E+0
9	10/05/2023	13:19:29.546	0.00000000E+0	-1.51896082E+3	5.00000000E+0	4.92792510E-1	0.00000000E+0
10	10/05/2023	13:19:31.223	0.00000000E+0	-1.51267763E+3	5.00000000E+0	4.10424851E-1	0.00000000E+0
11	10/05/2023	13:19:32.687	0.00000000E+0	-1.50639444E+3	5.00000000E+0	5.23331509E-1	0.00000000E+0
12	10/05/2023	13:19:34.117	0.00000000E+0	-1.50011126E+3	5.00000000E+0	4.83590736E-1	0.00000000E+0
13	10/05/2023	13:19:35.622	0.00000000E+0	-1.49382807E+3	5.00000000E+0	4.46819348E-1	0.00000000E+0
14	10/05/2023	13:19:37.105	0.00000000E+0	-1.48754489E+3	5.00000000E+0	3.13963628E-1	0.00000000E+0
15	10/05/2023	13:19:38.703	0.00000000E+0	-1.48126170E+3	5.00000000E+0	4.71302150E-1	0.00000000E+0
16	10/05/2023	13:19:40.173	0.00000000E+0	-1.47497852E+3	5.00000000E+0	5.64374556E-1	0.00000000E+0
17	10/05/2023	13:19:41.651	0.00000000E+0	-1.46869533E+3	5.00000000E+0	5.84684199E-1	0.00000000E+0
18	10/05/2023	13:19:43.240	0.00000000E+0	-1.46241215E+3	5.00000000E+0	4.50836698E-1	0.00000000E+0
19	10/05/2023	13:19:44.738	0.00000000E+0	-1.45612896E+3	5.00000000E+0	6.06110439E-1	0.00000000E+0
20	10/05/2023	13:19:46.268	0.00000000E+0	-1.44984578E+3	5.00000000E+0	5.70411567E-1	0.00000000E+0
21	10/05/2023	13:19:47.785	0.00000000E+0	-1.44356259E+3	5.00000000E+0	4.42725649E-1	0.00000000E+0
22	10/05/2023	13:19:49.270	0.00000000E+0	-1.43727941E+3	5.00000000E+0	4.73915937E-1	0.00000000E+0
23	10/05/2023	13:19:50.837	0.00000000E+0	-1.43099622E+3	5.00000000E+0	4.49013971E-1	0.00000000E+0
24	10/05/2023	13:19:52.298	0.00000000E+0	-1.42471304E+3	5.00000000E+0	5.41405032E-1	0.00000000E+0
25	10/05/2023	13:19:53.800	0.00000000E+0	-1.41842985E+3	5.00000000E+0	4.99895546E-1	0.00000000E+0
26	10/05/2023	13:19:55.384	0.00000000E+0	-1.41214666E+3	5.00000000E+0	4.70023276E-1	0.00000000E+0
27	10/05/2023	13:19:56.874	0.00000000E+0	-1.40586348E+3	5.00000000E+0	5.07144510E-1	0.00000000E+0
28	10/05/2023	13:19:58.412	0.00000000E+0	-1.39958029E+3	5.00000000E+0	5.04068761E-1	0.00000000E+0
29	10/05/2023	13:19:59.888	0.00000000E+0	-1.39329711E+3	5.00000000E+0	4.70543259E-1	0.00000000E+0
30	10/05/2023	13:20:01.369	0.00000000E+0	-1.38701392E+3	5.00000000E+0	5.93133914E-1	0.00000000E+0
31	10/05/2023	13:20:03.013	0.00000000E+0	-1.38073074E+3	5.00000000E+0	4.55071574E-1	0.00000000E+0
32	10/05/2023	13:20:04.560	0.00000000E+0	-1.37444755E+3	5.00000000E+0	5.78526335E-1	0.00000000E+0
33	10/05/2023	13:20:06.075	0.00000000E+0	-1.36816437E+3	5.00000000E+0	2.99376513E-1	0.00000000E+0
34	10/05/2023	13:20:07.635	0.00000000E+0	-1.36188118E+3	5.00000000E+0	5.80142084E-1	0.00000000E+0
35	10/05/2023	13:20:09.139	0.00000000E+0	-1.35559800E+3	5.00000000E+0	6.05759200E-1	0.00000000E+0
36	10/05/2023	13:20:10.655	0.00000000E+0	-1.34931481E+3	5.00000000E+0	4.40738351E-1	0.00000000E+0
37	10/05/2023	13:20:12.139	0.00000000E+0	-1.34303163E+3	5.00000000E+0	6.48601738E-1	0.00000000E+0
38	10/05/2023	13:20:13.612	0.00000000E+0	-1.33674844E+3	5.00000000E+0	3.69631685E-1	0.00000000E+0
39	10/05/2023	13:20:15.174	0.00000000E+0	-1.33046526E+3	5.00000000E+0	6.67989426E-1	0.00000000E+0
40	10/05/2023	13:20:16.627	0.00000000E+0	-1.32418207E+3	5.00000000E+0	5.96921194E-1	0.00000000E+0
41	10/05/2023	13:20:18.161	0.00000000E+0	-1.31789889E+3	5.00000000E+0	6.41622293E-1	0.00000000E+0
42	10/05/2023	13:20:19.649	0.00000000E+0	-1.31161570E+3	5.00000000E+0	5.63897388E-1	0.00000000E+0
43	10/05/2023	13:20:21.207	0.00000000E+0	-1.30533251E+3	5.00000000E+0	6.26690618E-1	0.00000000E+0
44	10/05/2023	13:20:22.820	0.00000000E+0	-1.29904933E+3	5.00000000E+0	6.21345400E-1	0.00000000E+0
45	10/05/2023	13:20:24.474	0.00000000E+0	-1.29276614E+3	5.00000000E+0	5.93647574E-1	0.00000000E+0
46	10/05/2023	13:20:26.382	0.00000000E+0	-1.28648296E+3	5.00000000E+0	5.39465594E-1	0.00000000E+0
47	10/05/2023	13:20:27.847	0.00000000E+0	-1.28019977E+3	5.00000000E+0	5.44308436E-1	0.00000000E+0
48	10/05/2023	13:20:29.350	0.00000000E+0	-1.27391659E+3	5.00000000E+0	5.53667826E-1	0.00000000E+0
49	10/05/2023	13:20:30.848	0.00000000E+0	-1.26763340E+3	5.00000000E+0	4.78368540E-1	0.00000000E+0
50	10/05/2023	13:20:32.322	0.00000000E+0	-1.26135022E+3	5.00000000E+0	3.88534291E-1	0.00000000E+0
51	10/05/2023	13:20:33.826	0.00000000E+0	-1.25506703E+3	5.00000000E+0	4.20352899E-1	0.00000000E+0
52	10/05/2023	13:20:35.419	0.00000000E+0	-1.24878385E+3	5.00000000E+0	3.91588281E-1	0.00000000E+0
53	10/05/2023	13:20:36.910	0.00000000E+0	-1.24250066E+3	5.00000000E+0	3.61633271E-1	0.00000000E+0
54	10/05/2023	13:20:38.426	0.00000000E+0	-1.23621748E+3	5.00000000E+0	3.40464243E-1	0.00000000E+0
55	10/05/2023	13:20:39.998	0.00000000E+0	-1.22993429E+3	5.00000000E+0	3.60546869E-1	0.00000000E+0
56	10/05/2023	13:20:41.460	0.00000000E+0	-1.22365111E+3	5.00000000E+0	3.06314319E-1	0.00000000E+0
57	10/05/2023	13:20:43.050	0.00000000E+0	-1.21736792E+3	5.00000000E+0	5.95709263E-1	0.00000000E+0
58	10/05/2023	13:20:44.529	0.00000000E+0	-1.21108473E+3	5.00000000E+0	5.79596294E-1	0.00000000E+0
59	10/05/2023	13:20:45.997	0.00000000E+0	-1.20480155E+3	5.00000000E+0	5.99227100E-1	0.00000000E+0
60	10/05/2023	13:20:47.563	0.00000000E+0	-1.19851836E+3	5.00000000E+0	5.52184798E-1	0.00000000E+0
61	10/05/2023	13:20:49.107	0.00000000E+0	-1.19223518E+3	5.00000000E+0	6.29233591E-1	0.00000000E+0
62	10/05/2023	13:20:50.642	0.00000000E+0	-1.18595199E+3	5.00000000E+0	5.47209663E-1	0.00000000E+0
63	10/05/2023	13:20:52.102	0.00000000E+0	-1.17966881E+3	5.00000000E+0	5.27306134E-1	0.00000000E+0
64	10/05/2023	13:20:53.585	0.00000000E+0	-1.17338562E+3	5.00000000E+0	4.99322647E-1	0.00000000E+0
65	10/05/2023	13:20:55.157	0.00000000E+0	-1.16710244E+3	5.00000000E+0	4.97996481E-1	0.00000000E+0
66	10/05/2023	13:20:56.684	0.00000000E+0	-1.16081925E+3	5.00000000E+0	4.99049063E-1	0.00000000E+0
67	10/05/2023	13:20:58.125	0.00000000E+0	-1.15453607E+3	5.00000000E+0	4.95581058E-1	0.00000000E+0
68	10/05/2023	13:20:59.726	0.00000000E+0	-1.14825288E+3	5.00000000E+0	4.68831223E-1	0.00000000E+0
69	10/05/2023	13:21:01.208	0.00000000E+0	-1.14196970E+3	5.00000000E+0	4.49197935E-1	0.00000000E+0
70	10/05/2023	13:21:02.724	0.00000000E+0	-1.13568651E+3	5.00000000E+0	5.06897761E-1	0.00000000E+0
71	10/05/2023	13:21:04.195	0.00000000E+0	-1.12940333E+3	5.00000000E+0	5.90222999E-1	0.00000000E+0
72	10/05/2023	13:21:05.725	0.00000000E+0	-1.12312014E+3	5.00000000E+0	5.90671583E-1	0.00000000E+0
73	10/05/2023	13:21:07.318	0.00000000E+0	-1.11683696E+3	5.00000000E+0	4.34339869E-1	0.00000000E+0
74	10/05/2023	13:21:08.835	0.00000000E+0	-1.11055377E+3	5.00000000E+0	4.26421265E-1	0.00000000E+0
75	10/05/2023	13:21:10.330	0.00000000E+0	-1.10427058E+3	5.00000000E+0	5.30028055E-1	0.00000000E+0
76	10/05/2023	13:21:11.785	0.00000000E+0	-1.09798740E+3	5.00000000E+0	5.15755820E-1	0.00000000E+0
77	10/05/2023	13:21:13.266	0.00000000E+0	-1.09170421E+3	5.00000000E+0	4.49507494E-1	0.00000000E+0
78	10/05/2023	13:21:14.851	0.00000000E+0	-1.08542103E+3	5.00000000E+0	5.13615592E-1	0.00000000E+0
79	10/05/2023	13:21:16.321	0.00000000E+0	-1.07913784E+3	5.00000000E+0	4.82483736E-1	0.00000000E+0
80	10/05/2023	13:21:17.823	0.00000000E+0	-1.07285466E+3	5.00000000E+0	4.77959273E-1	0.00000000E+0
81	10/05/2023	13:21:19.298	0.00000000E+0	-1.06657147E+3	5.00000000E+0	4.49625266E-1	0.00000000E+0
82	10/05/2023	13:21:20.823	0.00000000E+0	-1.06028829E+3	5.00000000E+0	5.09965282E-1	0.00000000E+0
83	10/05/2023	13:21:22.341	0.00000000E+0	-1.05400510E+3	5.00000000E+0	5.03748725E-1	0.00000000E+0
84	10/05/2023	13:21:23.854	0.00000000E+0	-1.04772192E+3	5.00000000E+0	4.43030215E-1	0.00000000E+0
85	10/05/2023	13:21:25.355	0.00000000E+0	-1.04143873E+3	5.00000000E+0	4.49180290E-1	0.00000000E+0
86	10/05/2023	13:21:26.922	0.00000000E+0	-1.03515555E+3	5.00000000E+0	3.73624566E-1	0.00000000E+0
87	10/05/2023	13:21:28.393	0.00000000E+0	-1.02887236E+3	5.00000000E+0	4.68993592E-1	0.00000000E+0
88	10/05/2023	13:21:29.913	0.00000000E+0	-1.02258918E+3	5.00000000E+0	4.87915281E-1	0.00000000E+0
89	10/05/2023	13:21:31.403	0.00000000E+0	-1.01630599E+3	5.00000000E+0	5.04917098E-1	0.00000000E+0
90	10/05/2023	13:21:32.903	0.00000000E+0	-1.01002281E+3	5.00000000E+0	5.06484837E-1	0.00000000E+0
91	10/05/2023	13:21:34.480	0.00000000E+0	-1.00373962E+3	5.00000000E+0	4.93536897E-1	0.00000000E+0
92	10/05/2023	13:21:35.964	0.00000000E+0	-9.97456435E+2	5.00000000E+0	4.83849330E-1	0.00000000E+0
93	10/05/2023	13:21:37.408	0.00000000E+0	-9.91173249E+2	5.00000000E+0	3.94724763E-1	0.00000000E+0
94	10/05/2023	13:21:39.005	0.00000000E+0	-9.84890064E+2	5.00000000E+0	5.42683783E-1	0.00000000E+0
95	10/05/2023	13:21:40.507	0.00000000E+0	-9.78606879E+2	5.00000000E+0	5.54923939E-1	0.00000000E+0
96	10/05/2023	13:21:42.030	0.00000000E+0	-9.72323693E+2	5.00000000E+0	4.53086147E-1	0.00000000E+0
97	10/05/2023	13:21:43.531	0.00000000E+0	-9.66040508E+2	5.00000000E+0	5.33774969E-1	0.00000000E+0
98	10/05/2023	13:21:44.977	0.00000000E+0	-9.59757323E+2	5.00000000E+0	3.58506275E-1	0.00000000E+0
99	10/05/2023	13:21:46.569	0.00000000E+0	-9.53474137E+2	5.00000000E+0	5.42004952E-1	0.00000000E+0
100	10/05/2023	13:21:48.082	0.00000000E+0	-9.47190952E+2	5.00000000E+0	4.27572457E-1	0.00000000E+0
101	10/05/2023	13:21:49.662	0.00000000E+0	-9.40907767E+2	5.00000000E+0	4.45274981E-1	0.00000000E+0
102	10/05/2023	13:21:51.166	0.00000000E+0	-9.34624581E+2	5.00000000E+0	5.22442866E-1	0.00000000E+0
103	10/05/2023	13:21:52.627	0.00000000E+0	-9.28341396E+2	5.00000000E+0	4.73831311E-1	0.00000000E+0
104	10/05/2023	13:21:54.191	0.00000000E+0	-9.22058211E+2	5.00000000E+0	4.76854058E-1	0.00000000E+0
105	10/05/2023	13:21:55.655	0.00000000E+0	-9.15775026E+2	5.00000000E+0	4.84046747E-1	0.00000000E+0
106	10/05/2023	13:21:57.134	0.00000000E+0	-9.09491840E+2	5.00000000E+0	5.29885219E-1	0.00000000E+0
107	10/05/2023	13:21:58.739	0.00000000E+0	-9.03208655E+2	5.00000000E+0	4.59068084E-1	0.00000000E+0
108	10/05/2023	13:22:00.234	0.00000000E+0	-8.96925470E+2	5.00000000E+0	5.08581992E-1	0.00000000E+0
109	10/05/2023	13:22:01.755	0.00000000E+0	-8.90642284E+2	5.00000000E+0	5.54612202E-1	0.00000000E+0
110	10/05/2023	13:22:03.261	0.00000000E+0	-8.84359099E+2	5.00000000E+0	5.62112727E-1	0.00000000E+0
111	10/05/2023	13:22:04.760	0.00000000E+0	-8.78075914E+2	5.00000000E+0	5.25724477E-1	0.00000000E+0
112	10/05/2023	13:22:06.347	0.00000000E+0	-8.71792728E+2	5.00000000E+0	4.19897458E-1	0.00000000E+0
113	10/05/2023	13:22:07.833	0.00000000E+0	-8.65509543E+2	5.00000000E+0	4.43700570E-1	0.00000000E+0
114	10/05/2023	13:22:09.309	0.00000000E+0	-8.59226358E+2	5.00000000E+0	5.72748210E-1	0.00000000E+0
115	10/05/2023	13:22:10.792	0.00000000E+0	-8.52943172E+2	5.00000000E+0	4.59221917E-1	0.00000000E+0
116	10/05/2023	13:22:12.336	0.00000000E+0	-8.46659987E+2	5.00000000E+0	3.99465889E-1	0.00000000E+0
117	10/05/2023	13:22:13.893	0.00000000E+0	-8.40376802E+2	5.00000000E+0	5.73671863E-1	0.00000000E+0
118	10/05/2023	13:22:15.407	0.00000000E+0	-8.34093617E+2	5.00000000E+0	4.08817722E-1	0.00000000E+0
119	10/05/2023	13:22:16.872	0.00000000E+0	-8.27810431E+2	5.00000000E+0	5.99375958E-1	0.00000000E+0
120	10/05/2023	13:22:18.439	0.00000000E+0	-8.21527246E+2	5.00000000E+0	5.31193990E-1	0.00000000E+0
121	10/05/2023	13:22:19.934	0.00000000E+0	-8.15244061E+2	5.00000000E+0	3.30253679E-1	0.00000000E+0
122	10/05/2023	13:22:21.501	0.00000000E+0	-8.08960875E+2	5.00000000E+0	5.21869242E-1	0.00000000E+0
123	10/05/2023	13:22:22.961	0.00000000E+0	-8.02677690E+2	5.00000000E+0	4.39738611E-1	0.00000000E+0
124	10/05/2023	13:22:24.431	0.00000000E+0	-7.96394505E+2	5.00000000E+0	3.72324217E-1	0.00000000E+0
125	10/05/2023	13:22:25.965	0.00000000E+0	-7.90111319E+2	5.00000000E+0	6.13939588E-1	0.00000000E+0
126	10/05/2023	13:22:27.450	0.00000000E+0	-7.83828134E+2	5.00000000E+0	4.68432882E-1	0.00000000E+0
127	10/05/2023	13:22:28.910	0.00000000E+0	-7.77544949E+2	5.00000000E+0	5.45150158E-1	0.00000000E+0
128	10/05/2023	13:22:30.504	0.00000000E+0	-7.71261763E+2	5.00000000E+0	6.24656735E-1	0.00000000E+0
129	10/05/2023	13:22:31.984	0.00000000E+0	-7.64978578E+2	5.00000000E+0	4.51174047E-1	0.00000000E+0
130	10/05/2023	13:22:33.486	0.00000000E+0	-7.58695393E+2	5.00000000E+0	4.71809929E-1	0.00000000E+0
131	10/05/2023	13:22:35.017	0.00000000E+0	-7.52412208E+2	5.00000000E+0	5.15493066E-1	0.00000000E+0
132	10/05/2023	13:22:36.515	0.00000000E+0	-7.46129022E+2	5.00000000E+0	4.12594524E-1	0.00000000E+0
133	10/05/2023	13:22:38.134	0.00000000E+0	-7.39845837E+2	5.00000000E+0	4.78470916E-1	0.00000000E+0
134	10/05/2023	13:22:39.631	0.00000000E+0	-7.33562652E+2	5.00000000E+0	5.06910900E-1	0.00000000E+0
135	10/05/2023	13:22:41.269	0.00000000E+0	-7.27279466E+2	5.00000000E+0	4.52504527E-1	0.00000000E+0
136	10/05/2023	13:22:42.753	0.00000000E+0	-7.20996281E+2	5.00000000E+0	4.81545085E-1	0.00000000E+0
137	10/05/2023	13:22:44.233	0.00000000E+0	-7.14713096E+2	5.00000000E+0	4.94382066E-1	0.00000000E+0
138	10/05/2023	13:22:45.853	0.00000000E+0	-7.08429910E+2	5.00000000E+0	5.16220897E-1	0.00000000E+0
139	10/05/2023	13:22:47.350	0.00000000E+0	-7.02146725E+2	5.00000000E+0	4.79556091E-1	0.00000000E+0
140	10/05/2023	13:22:48.849	0.00000000E+0	-6.95863540E+2	5.00000000E+0	5.26132274E-1	0.00000000E+0
141	10/05/2023	13:22:50.401	0.00000000E+0	-6.89580354E+2	5.00000000E+0	4.83836130E-1	0.00000000E+0
142	10/05/2023	13:22:51.868	0.00000000E+0	-6.83297169E+2	5.00000000E+0	4.67746890E-1	0.00000000E+0
143	10/05/2023	13:22:53.502	0.00000000E+0	-6.77013984E+2	5.00000000E+0	5.19091057E-1	0.00000000E+0
144	10/05/2023	13:22:54.981	0.00000000E+0	-6.70730799E+2	5.00000000E+0	4.72698780E-1	0.00000000E+0
145	10/05/2023	13:22:56.466	0.00000000E+0	-6.64447613E+2	5.00000000E+0	5.13126281E-1	0.00000000E+0
146	10/05/2023	13:22:58.051	0.00000000E+0	-6.58164428E+2	5.00000000E+0	5.58164040E-1	0.00000000E+0
147	10/05/2023	13:22:59.530	0.00000000E+0	-6.51881243E+2	5.00000000E+0	3.84583511E-1	0.00000000E+0
148	10/05/2023	13:23:00.992	0.00000000E+0	-6.45598057E+2	5.00000000E+0	6.73633831E-1	0.00000000E+0
149	10/05/2023	13:23:02.441	0.00000000E+0	-6.39314872E+2	5.00000000E+0	6.13649500E-1	0.00000000E+0
150	10/05/2023	13:23:03.940	0.00000000E+0	-6.33031687E+2	5.00000000E+0	6.44967215E-1	0.00000000E+0
151	10/05/2023	13:23:05.590	0.00000000E+0	-6.26748501E+2	5.00000000E+0	6.46771385E-1	0.00000000E+0
152	10/05/2023	13:23:07.066	0.00000000E+0	-6.20465316E+2	5.00000000E+0	6.37748661E-1	0.00000000E+0
153	10/05/2023	13:23:08.543	0.00000000E+0	-6.14182131E+2	5.00000000E+0	6.20684409E-1	0.00000000E+0
154	10/05/2023	13:23:10.149	0.00000000E+0	-6.07898945E+2	5.00000000E+0	5.80604471E-1	0.00000000E+0
155	10/05/2023	13:23:11.630	0.00000000E+0	-6.01615760E+2	5.00000000E+0	5.48607047E-1	0.00000000E+0
156	10/05/2023	13:23:13.188	0.00000000E+0	-5.95332575E+2	5.00000000E+0	5.05567830E-1	0.00000000E+0
157	10/05/2023	13:23:14.675	0.00000000E+0	-5.89049390E+2	5.00000000E+0	4.83383375E-1	0.00000000E+0
158	10/05/2023	13:23:16.172	0.00000000E+0	-5.82766204E+2	5.00000000E+0	4.39374289E-1	0.00000000E+0
159	10/05/2023	13:23:17.717	0.00000000E+0	-5.76483019E+2	5.00000000E+0	4.09919302E-1	0.00000000E+0
160	10/05/2023	13:23:19.217	0.00000000E+0	-5.70199834E+2	5.00000000E+0	4.41838889E-1	0.00000000E+0
161	10/05/2023	13:23:20.662	0.00000000E+0	-5.63916648E+2	5.00000000E+0	4.57485745E-1	0.00000000E+0
162	10/05/2023	13:23:22.233	0.00000000E+0	-5.57633463E+2	5.00000000E+0	3.84040963E-1	0.00000000E+0
163	10/05/2023	13:23:23.731	0.00000000E+0	-5.51350278E+2	5.00000000E+0	3.59935909E-1	0.00000000E+0
164	10/05/2023	13:23:25.285	0.00000000E+0	-5.45067092E+2	5.00000000E+0	3.94039080E-1	0.00000000E+0
165	10/05/2023	13:23:26.769	0.00000000E+0	-5.38783907E+2	5.00000000E+0	3.44747381E-1	0.00000000E+0
166	10/05/2023	13:23:28.259	0.00000000E+0	-5.32500722E+2	5.00000000E+0	3.21532593E-1	0.00000000E+0
167	10/05/2023	13:23:29.867	0.00000000E+0	-5.26217536E+2	5.00000000E+0	3.88583993E-1	0.00000000E+0
168	10/05/2023	13:23:31.383	0.00000000E+0	-5.19934351E+2	5.00000000E+0	3.49600877E-1	0.00000000E+0
169	10/05/2023	13:23:33.024	0.00000000E+0	-5.13651166E+2	5.00000000E+0	3.98528699E-1	0.00000000E+0
170	10/05/2023	13:23:34.517	0.00000000E+0	-5.07367981E+2	5.00000000E+0	3.01686910E-1	0.00000000E+0
171	10/05/2023	13:23:35.991	0.00000000E+0	-5.01084795E+2	5.00000000E+0	2.96218196E-1	0.00000000E+0
172	10/05/2023	13:23:37.662	0.00000000E+0	-4.94801610E+2	5.00000000E+0	3.90280937E-1	0.00000000E+0
173	10/05/2023	13:23:39.141	0.00000000E+0	-4.88518425E+2	5.00000000E+0	5.97835615E-1	0.00000000E+0
174	10/05/2023	13:23:40.708	0.00000000E+0	-4.82235239E+2	5.00000000E+0	4.57629774E-1	0.00000000E+0
175	10/05/2023	13:23:42.292	0.00000000E+0	-4.75952054E+2	5.00000000E+0	3.20882149E-1	0.00000000E+0
176	10/05/2023	13:23:43.748	0.00000000E+0	-4.69668869E+2	5.00000000E+0	4.57451400E-1	0.00000000E+0
177	10/05/2023	13:23:45.238	0.00000000E+0	-4.63385683E+2	5.00000000E+0	3.16761276E-1	0.00000000E+0
178	10/05/2023	13:23:46.734	0.00000000E+0	-4.57102498E+2	5.00000000E+0	3.51805873E-1	0.00000000E+0
179	10/05/2023	13:23:48.209	0.00000000E+0	-4.50819313E+2	5.00000000E+0	6.49956212E-1	0.00000000E+0
180	10/05/2023	13:23:49.831	0.00000000E+0	-4.44536127E+2	5.00000000E+0	3.42262974E-1	0.00000000E+0
181	10/05/2023	13:23:51.289	0.00000000E+0	-4.38252942E+2	5.00000000E+0	4.02912039E-1	0.00000000E+0
182	10/05/2023	13:23:52.777	0.00000000E+0	-4.31969757E+2	5.00000000E+0	4.75548039E-1	0.00000000E+0
183	10/05/2023	13:23:54.256	0.00000000E+0	-4.25686572E+2	5.00000000E+0	4.71097311E-1	0.00000000E+0
184	10/05/2023	13:23:55.746	0.00000000E+0	-4.19403386E+2	5.00000000E+0	5.73465526E-1	0.00000000E+0
185	10/05/2023	13:23:57.223	0.00000000E+0	-4.13120201E+2	5.00000000E+0	5.29278370E-1	0.00000000E+0
186	10/05/2023	13:23:58.702	0.00000000E+0	-4.06837016E+2	5.00000000E+0	4.84594750E-1	0.00000000E+0
187	10/05/2023	13:24:00.467	0.00000000E+0	-4.00553830E+2	5.00000000E+0	4.52854908E-1	0.00000000E+0
188	10/05/2023	13:24:02.072	0.00000000E+0	-3.94270645E+2	5.00000000E+0	5.78077051E-1	0.00000000E+0
189	10/05/2023	13:24:03.562	0.00000000E+0	-3.87987460E+2	5.00000000E+0	5.15679708E-1	0.00000000E+0
190	10/05/2023	13:24:05.109	0.00000000E+0	-3.81704274E+2	5.00000000E+0	4.45350268E-1	0.00000000E+0
191	10/05/2023	13:24:06.574	0.00000000E+0	-3.75421089E+2	5.00000000E+0	4.38973880E-1	0.00000000E+0
192	10/05/2023	13:24:08.054	0.00000000E+0	-3.69137904E+2	5.00000000E+0	4.41263005E-1	0.00000000E+0
193	10/05/2023	13:24:09.560	0.00000000E+0	-3.62854718E+2	5.00000000E+0	4.44156080E-1	0.00000000E+0
194	10/05/2023	13:24:11.059	0.00000000E+0	-3.56571533E+2	5.00000000E+0	4.32985710E-1	0.00000000E+0
195	10/05/2023	13:24:12.551	0.00000000E+0	-3.50288348E+2	5.00000000E+0	5.25196963E-1	0.00000000E+0
196	10/05/2023	13:24:14.126	0.00000000E+0	-3.44005163E+2	5.00000000E+0	4.89292789E-1	0.00000000E+0
197	10/05/2023	13:24:15.630	0.00000000E+0	-3.37721977E+2	5.00000000E+0	4.71338813E-1	0.00000000E+0
198	10/05/2023	13:24:17.253	0.00000000E+0	-3.31438792E+2	5.00000000E+0	4.34691069E-1	0.00000000E+0
199	10/05/2023	13:24:18.736	0.00000000E+0	-3.25155607E+2	5.00000000E+0	4.73153645E-1	0.00000000E+0
200	10/05/2023	13:24:20.290	0.00000000E+0	-3.18872421E+2	5.00000000E+0	5.01252145E-1	0.00000000E+0
201	10/05/2023	13:24:21.858	0.00000000E+0	-3.12589236E+2	5.00000000E+0	4.97475780E-1	0.00000000E+0
202	10/05/2023	13:24:23.379	0.00000000E+0	-3.06306051E+2	5.00000000E+0	5.07980542E-1	0.00000000E+0
203	10/05/2023	13:24:24.917	0.00000000E+0	-3.00022865E+2	5.00000000E+0	4.68081175E-1	0.00000000E+0
204	10/05/2023	13:24:26.386	0.00000000E+0	-2.93739680E+2	5.00000000E+0	4.47199470E-1	0.00000000E+0
205	10/05/2023	13:24:27.869	0.00000000E+0	-2.87456495E+2	5.00000000E+0	6.23936599E-1	0.00000000E+0
206	10/05/2023	13:24:29.410	0.00000000E+0	-2.81173309E+2	5.00000000E+0	5.55105501E-1	0.00000000E+0
207	10/05/2023	13:24:30.888	0.00000000E+0	-2.74890124E+2	5.00000000E+0	4.57323048E-1	0.00000000E+0
208	10/05/2023	13:24:32.334	0.00000000E+0	-2.68606939E+2	5.00000000E+0	4.71087794E-1	0.00000000E+0
209	10/05/2023	13:24:33.901	0.00000000E+0	-2.62323754E+2	5.00000000E+0	4.98321841E-1	0.00000000E+0
210	10/05/2023	13:24:35.369	0.00000000E+0	-2.56040568E+2	5.00000000E+0	4.83784324E-1	0.00000000E+0
211	10/05/2023	13:24:36.923	0.00000000E+0	-2.49757383E+2	5.00000000E+0	4.73453243E-1	0.00000000E+0
212	10/05/2023	13:24:38.397	0.00000000E+0	-2.43474198E+2	5.00000000E+0	4.80757139E-1	0.00000000E+0
213	10/05/2023	13:24:39.868	0.00000000E+0	-2.37191012E+2	5.00000000E+0	5.50243494E-1	0.00000000E+0
214	10/05/2023	13:24:41.418	0.00000000E+0	-2.30907827E+2	5.00000000E+0	4.81669614E-1	0.00000000E+0
215	10/05/2023	13:24:42.912	0.00000000E+0	-2.24624642E+2	5.00000000E+0	3.98257503E-1	0.00000000E+0
216	10/05/2023	13:24:44.367	0.00000000E+0	-2.18341456E+2	5.00000000E+0	4.43053220E-1	0.00000000E+0
217	10/05/2023	13:24:45.842	0.00000000E+0	-2.12058271E+2	5.00000000E+0	4.73097369E-1	0.00000000E+0
218	10/05/2023	13:24:47.316	0.00000000E+0	-2.05775086E+2	5.00000000E+0	4.29546572E-1	0.00000000E+0
219	10/05/2023	13:24:48.870	0.00000000E+0	-1.99491900E+2	5.00000000E+0	4.54647508E-1	0.00000000E+0
220	10/05/2023	13:24:50.360	0.00000000E+0	-1.93208715E+2	5.00000000E+0	6.06805904E-1	0.00000000E+0
221	10/05/2023	13:24:51.840	0.00000000E+0	-1.86925530E+2	5.00000000E+0	5.22011496E-1	0.00000000E+0
222	10/05/2023	13:24:53.406	0.00000000E+0	-1.80642345E+2	5.00000000E+0	4.08279095E-1	0.00000000E+0
223	10/05/2023	13:24:54.855	0.00000000E+0	-1.74359159E+2	5.00000000E+0	4.03927167E-1	0.00000000E+0
224	10/05/2023	13:24:56.386	0.00000000E+0	-1.68075974E+2	5.00000000E+0	4.63849321E-1	0.00000000E+0
225	10/05/2023	13:24:57.843	0.00000000E+0	-1.61792789E+2	5.00000000E+0	5.15863192E-1	0.00000000E+0
226	10/05/2023	13:24:59.329	0.00000000E+0	-1.55509603E+2	5.00000000E+0	5.13629740E-1	0.00000000E+0
227	10/05/2023	13:25:00.915	0.00000000E+0	-1.49226418E+2	5.00000000E+0	4.70837475E-1	0.00000000E+0
228	10/05/2023	13:25:02.393	0.00000000E+0	-1.42943233E+2	5.00000000E+0	6.08084575E-1	0.00000000E+0
229	10/05/2023	13:25:03.843	0.00000000E+0	-1.36660047E+2	5.00000000E+0	5.28193386E-1	0.00000000E+0
230	10/05/2023	13:25:05.374	0.00000000E+0	-1.30376862E+2	5.00000000E+0	4.45594853E-1	0.00000000E+0
231	10/05/2023	13:25:06.841	0.00000000E+0	-1.24093677E+2	5.00000000E+0	5.01461372E-1	0.00000000E+0
232	10/05/2023	13:25:08.364	0.00000000E+0	-1.17810492E+2	5.00000000E+0	4.66847465E-1	0.00000000E+0
233	10/05/2023	13:25:09.851	0.00000000E+0	-1.11527306E+2	5.00000000E+0	4.61877382E-1	0.00000000E+0
234	10/05/2023	13:25:11.312	0.00000000E+0	-1.05244121E+2	5.00000000E+0	5.19813790E-1	0.00000000E+0
235	10/05/2023	13:25:12.872	0.00000000E+0	-9.89609356E+1	5.00000000E+0	5.31694921E-1	0.00000000E+0
236	10/05/2023	13:25:14.341	0.00000000E+0	-9.26777503E+1	5.00000000E+0	4.97991210E-1	0.00000000E+0
237	10/05/2023	13:25:15.886	0.00000000E+0	-8.63945650E+1	5.00000000E+0	4.21078787E-1	0.00000000E+0
238	10/05/2023	13:25:17.439	0.00000000E+0	-8.01113797E+1	5.00000000E+0	5.38316992E-1	0.00000000E+0
239	10/05/2023	13:25:18.905	0.00000000E+0	-7.38281943E+1	5.00000000E+0	6.04609530E-1	0.00000000E+0
240	10/05/2023	13:25:20.380	0.00000000E+0	-6.75450090E+1	5.00000000E+0	6.02327570E-1	0.00000000E+0
241	10/05/2023	13:25:21.878	0.00000000E+0	-6.12618237E+1	5.00000000E+0	4.27180401E-1	0.00000000E+0
242	10/05/2023	13:25:23.360	0.00000000E+0	-5.49786384E+1	5.00000000E+0	4.87932284E-1	0.00000000E+0
243	10/05/2023	13:25:24.967	0.00000000E+0	-4.86954531E+1	5.00000000E+0	3.83886108E-1	0.00000000E+0
244	10/05/2023	13:25:26.408	0.00000000E+0	-4.24122678E+1	5.00000000E+0	4.85815527E-1	0.00000000E+0
245	10/05/2023	13:25:27.886	0.00000000E+0	-3.61290825E+1	5.00000000E+0	5.42988254E-1	0.00000000E+0
246	10/05/2023	13:25:29.332	0.00000000E+0	-2.98458972E+1	5.00000000E+0	4.50684942E-1	0.00000000E+0
247	10/05/2023	13:25:30.776	0.00000000E+0	-2.35627119E+1	5.00000000E+0	4.71435939E-1	0.00000000E+0
248	10/05/2023	13:25:32.338	0.00000000E+0	-1.72795266E+1	5.00000000E+0	5.02937535E-1	0.00000000E+0
249	10/05/2023	13:25:33.842	0.00000000E+0	-1.09963413E+1	5.00000000E+0	4.69183366E-1	0.00000000E+0
250	10/05/2023	13:25:35.300	0.00000000E+0	-4.71315597E+0	5.00000000E+0	5.06709322E-1	0.00000000E+0
251	10/05/2023	13:25:36.747	0.00000000E+0	1.57002934E+0	5.00000000E+0	4.99057696E-1	0.00000000E+0
252	10/05/2023	13:25:38.215	0.00000000E+0	7.85321464E+0	5.00000000E+0	4.94892768E-1	0.00000000E+0
253	10/05/2023	13:25:39.684	0.00000000E+0	1.41364000E+1	5.00000000E+0	5.91455385E-1	0.00000000E+0
254	10/05/2023	13:25:41.131	0.00000000E+0	2.04195853E+1	5.00000000E+0	4.56140709E-1	0.00000000E+0
255	10/05/2023	13:25:42.616	0.00000000E+0	2.67027706E+1	5.00000000E+0	4.83701123E-1	0.00000000E+0
256	10/05/2023	13:25:44.170	0.00000000E+0	3.29859559E+1	5.00000000E+0	5.10560828E-1	0.00000000E+0
257	10/05/2023	13:25:45.635	0.00000000E+0	3.92691412E+1	5.00000000E+0	4.17616093E-1	0.00000000E+0
258	10/05/2023	13:25:47.152	0.00000000E+0	4.55523265E+1	5.00000000E+0	4.69433240E-1	0.00000000E+0
259	10/05/2023	13:25:48.635	0.00000000E+0	5.18355118E+1	5.00000000E+0	4.82994610E-1	0.00000000E+0
260	10/05/2023	13:25:50.120	0.00000000E+0	5.81186971E+1	5.00000000E+0	4.82457633E-1	0.00000000E+0
261	10/05/2023	13:25:51.661	0.00000000E+0	6.44018824E+1	5.00000000E+0	5.08756354E-1	0.00000000E+0
262	10/05/2023	13:25:53.139	0.00000000E+0	7.06850677E+1	5.00000000E+0	4.88343573E-1	0.00000000E+0
263	10/05/2023	13:25:54.608	0.00000000E+0	7.69682530E+1	5.00000000E+0	4.78815050E-1	0.00000000E+0
264	10/05/2023	13:25:56.153	0.00000000E+0	8.32514383E+1	5.00000000E+0	5.58341758E-1	0.00000000E+0
265	10/05/2023	13:25:57.629	0.00000000E+0	8.95346236E+1	5.00000000E+0	6.63724750E-1	0.00000000E+0
266	10/05/2023	13:25:59.202	0.00000000E+0	9.58178089E+1	5.00000000E+0	6.52391379E-1	0.00000000E+0
267	10/05/2023	13:26:00.667	0.00000000E+0	1.02100994E+2	5.00000000E+0	4.57393932E-1	0.00000000E+0
268	10/05/2023	13:26:02.129	0.00000000E+0	1.08384180E+2	5.00000000E+0	4.97023180E-1	0.00000000E+0
269	10/05/2023	13:26:03.686	0.00000000E+0	1.14667365E+2	5.00000000E+0	6.31600207E-1	0.00000000E+0
270	10/05/2023	13:26:05.164	0.00000000E+0	1.20950550E+2	5.00000000E+0	6.42790012E-1	0.00000000E+0
271	10/05/2023	13:26:06.663	0.00000000E+0	1.27233735E+2	5.00000000E+0	5.49026183E-1	0.00000000E+0
272	10/05/2023	13:26:08.182	0.00000000E+0	1.33516921E+2	5.00000000E+0	6.25803336E-1	0.00000000E+0
273	10/05/2023	13:26:09.658	0.00000000E+0	1.39800106E+2	5.00000000E+0	5.74450516E-1	0.00000000E+0
274	10/05/2023	13:26:11.173	0.00000000E+0	1.46083291E+2	5.00000000E+0	5.83973254E-1	0.00000000E+0
275	10/05/2023	13:26:12.643	0.00000000E+0	1.52366477E+2	5.00000000E+0	5.25330810E-1	0.00000000E+0
276	10/05/2023	13:26:14.115	0.00000000E+0	1.58649662E+2	5.00000000E+0	5.01995862E-1	0.00000000E+0
277	10/05/2023	13:26:15.683	0.00000000E+0	1.64932847E+2	5.00000000E+0	4.11434562E-1	0.00000000E+0
278	10/05/2023	13:26:17.127	0.00000000E+0	1.71216033E+2	5.00000000E+0	4.16895715E-1	0.00000000E+0
279	10/05/2023	13:26:18.622	0.00000000E+0	1.77499218E+2	5.00000000E+0	4.08256807E-1	0.00000000E+0
280	10/05/2023	13:26:20.071	0.00000000E+0	1.83782403E+2	5.00000000E+0	4.73882791E-1	0.00000000E+0
281	10/05/2023	13:26:21.551	0.00000000E+0	1.90065589E+2	5.00000000E+0	3.72081336E-1	0.00000000E+0
282	10/05/2023	13:26:23.123	0.00000000E+0	1.96348774E+2	5.00000000E+0	3.75128368E-1	0.00000000E+0
283	10/05/2023	13:26:24.610	0.00000000E+0	2.02631959E+2	5.00000000E+0	3.82472813E-1	0.00000000E+0
284	10/05/2023	13:26:26.062	0.00000000E+0	2.08915144E+2	5.00000000E+0	3.42174536E-1	0.00000000E+0
285	10/05/2023	13:26:27.538	0.00000000E+0	2.15198330E+2	5.00000000E+0	5.28347876E-1	0.00000000E+0
286	10/05/2023	13:26:29.049	0.00000000E+0	2.21481515E+2	5.00000000E+0	5.69744210E-1	0.00000000E+0
287	10/05/2023	13:26:30.577	0.00000000E+0	2.27764700E+2	5.00000000E+0	5.80255701E-1	0.00000000E+0
288	10/05/2023	13:26:32.026	0.00000000E+0	2.34047886E+2	5.00000000E+0	4.00442981E-1	0.00000000E+0
289	10/05/2023	13:26:33.509	0.00000000E+0	2.40331071E+2	5.00000000E+0	5.42993694E-1	0.00000000E+0
290	10/05/2023	13:26:35.058	0.00000000E+0	2.46614256E+2	5.00000000E+0	4.63043333E-1	0.00000000E+0
291	10/05/2023	13:26:36.534	0.00000000E+0	2.52897442E+2	5.00000000E+0	4.58339971E-1	0.00000000E+0
292	10/05/2023	13:26:38.052	0.00000000E+0	2.59180627E+2	5.00000000E+0	5.01876018E-1	0.00000000E+0
293	10/05/2023	13:26:39.525	0.00000000E+0	2.65463812E+2	5.00000000E+0	4.89793119E-1	0.00000000E+0
294	10/05/2023	13:26:41.009	0.00000000E+0	2.71746998E+2	5.00000000E+0	5.22632268E-1	0.00000000E+0
295	10/05/2023	13:26:42.551	0.00000000E+0	2.78030183E+2	5.00000000E+0	4.41823760E-1	0.00000000E+0
296	10/05/2023	13:26:44.018	0.00000000E+0	2.84313368E+2	5.00000000E+0	5.15639921E-1	0.00000000E+0
297	10/05/2023	13:26:45.489	0.00000000E+0	2.90596553E+2	5.00000000E+0	4.80012493E-1	0.00000000E+0
298	10/05/2023	13:26:47.036	0.00000000E+0	2.96879739E+2	5.00000000E+0	5.14660482E-1	0.00000000E+0
299	10/05/2023	13:26:48.496	0.00000000E+0	3.03162924E+2	5.00000000E+0	3.78384335E-1	0.00000000E+0
300	10/05/2023	13:26:50.048	0.00000000E+0	3.09446109E+2	5.00000000E+0	4.90852994E-1	0.00000000E+0
301	10/05/2023	13:26:51.524	0.00000000E+0	3.15729295E+2	5.00000000E+0	4.67785560E-1	0.00000000E+0
302	10/05/2023	13:26:53.003	0.00000000E+0	3.22012480E+2	5.00000000E+0	4.68075103E-1	0.00000000E+0
303	10/05/2023	13:26:54.535	0.00000000E+0	3.28295665E+2	5.00000000E+0	4.88747263E-1	0.00000000E+0
304	10/05/2023	13:26:56.034	0.00000000E+0	3.34578851E+2	5.00000000E+0	4.74769737E-1	0.00000000E+0
305	10/05/2023	13:26:57.553	0.00000000E+0	3.40862036E+2	5.00000000E+0	4.93623945E-1	0.00000000E+0
306	10/05/2023	13:26:59.069	0.00000000E+0	3.47145221E+2	5.00000000E+0	4.91059999E-1	0.00000000E+0
307	10/05/2023	13:27:00.537	0.00000000E+0	3.53428407E+2	5.00000000E+0	4.87880177E-1	0.00000000E+0
308	10/05/2023	13:27:02.006	0.00000000E+0	3.59711592E+2	5.00000000E+0	4.02741803E-1	0.00000000E+0
309	10/05/2023	13:27:03.527	0.00000000E+0	3.65994777E+2	5.00000000E+0	4.87514356E-1	0.00000000E+0
310	10/05/2023	13:27:04.978	0.00000000E+0	3.72277962E+2	5.00000000E+0	4.67475434E-1	0.00000000E+0
311	10/05/2023	13:27:06.538	0.00000000E+0	3.78561148E+2	5.00000000E+0	4.97789875E-1	0.00000000E+0
312	10/05/2023	13:27:08.019	0.00000000E+0	3.84844333E+2	5.00000000E+0	4.96829819E-1	0.00000000E+0
313	10/05/2023	13:27:09.533	0.00000000E+0	3.91127518E+2	5.00000000E+0	5.59053695E-1	0.00000000E+0
314	10/05/2023	13:27:11.011	0.00000000E+0	3.97410704E+2	5.00000000E+0	4.91904789E-1	0.00000000E+0
315	10/05/2023	13:27:12.488	0.00000000E+0	4.03693889E+2	5.00000000E+0	5.23051214E-1	0.00000000E+0
316	10/05/2023	13:27:14.033	0.00000000E+0	4.09977074E+2	5.00000000E+0	4.95202989E-1	0.00000000E+0
317	10/05/2023	13:27:15.542	0.00000000E+0	4.16260260E+2	5.00000000E+0	4.92893933E-1	0.00000000E+0
318	10/05/2023	13:27:17.011	0.00000000E+0	4.22543445E+2	5.00000000E+0	5.59612470E-1	0.00000000E+0
319	10/05/2023	13:27:18.459	0.00000000E+0	4.28826630E+2	5.00000000E+0	4.87457332E-1	0.00000000E+0
320	10/05/2023	13:27:19.895	0.00000000E+0	4.35109816E+2	5.00000000E+0	4.66340910E-1	0.00000000E+0
321	10/05/2023	13:27:21.467	0.00000000E+0	4.41393001E+2	5.00000000E+0	4.91605164E-1	0.00000000E+0
322	10/05/2023	13:27:22.953	0.00000000E+0	4.47676186E+2	5.00000000E+0	5.65386426E-1	0.00000000E+0
323	10/05/2023	13:27:24.431	0.00000000E+0	4.53959371E+2	5.00000000E+0	4.91925885E-1	0.00000000E+0
324	10/05/2023	13:27:25.973	0.00000000E+0	4.60242557E+2	5.00000000E+0	5.00413547E-1	0.00000000E+0
325	10/05/2023	13:27:27.467	0.00000000E+0	4.66525742E+2	5.00000000E+0	4.74811545E-1	0.00000000E+0
326	10/05/2023	13:27:28.975	0.00000000E+0	4.72808927E+2	5.00000000E+0	6.38767469E-1	0.00000000E+0
327	10/05/2023	13:27:30.491	0.00000000E+0	4.79092113E+2	5.00000000E+0	4.58757913E-1	0.00000000E+0
328	10/05/2023	13:27:31.987	0.00000000E+0	4.85375298E+2	5.00000000E+0	6.25740970E-1	0.00000000E+0
329	10/05/2023	13:27:33.510	0.00000000E+0	4.91658483E+2	5.00000000E+0	3.84714488E-1	0.00000000E+0
330	10/05/2023	13:27:34.974	0.00000000E+0	4.97941669E+2	5.00000000E+0	3.96778271E-1	0.00000000E+0
331	10/05/2023	13:27:36.466	0.00000000E+0	5.04224854E+2	5.00000000E+0	4.98810577E-1	0.00000000E+0
332	10/05/2023	13:27:38.023	0.00000000E+0	5.10508039E+2	5.00000000E+0	3.46208943E-1	0.00000000E+0
333	10/05/2023	13:27:39.494	0.00000000E+0	5.16791225E+2	5.00000000E+0	4.81780734E-1	0.00000000E+0
334	10/05/2023	13:27:40.961	0.00000000E+0	5.23074410E+2	5.00000000E+0	4.29955364E-1	0.00000000E+0
335	10/05/2023	13:27:42.404	0.00000000E+0	5.29357595E+2	5.00000000E+0	5.01313709E-1	0.00000000E+0
336	10/05/2023	13:27:43.888	0.00000000E+0	5.35640780E+2	5.00000000E+0	5.02366889E-1	0.00000000E+0
337	10/05/2023	13:27:45.449	0.00000000E+0	5.41923966E+2	5.00000000E+0	5.04481578E-1	0.00000000E+0
338	10/05/2023	13:27:46.942	0.00000000E+0	5.48207151E+2	5.00000000E+0	5.43102400E-1	0.00000000E+0
339	10/05/2023	13:27:48.492	0.00000000E+0	5.54490336E+2	5.00000000E+0	3.84538639E-1	0.00000000E+0
340	10/05/2023	13:27:49.966	0.00000000E+0	5.60773522E+2	5.00000000E+0	4.61122228E-1	0.00000000E+0
341	10/05/2023	13:27:51.517	0.00000000E+0	5.67056707E+2	5.00000000E+0	4.48277162E-1	0.00000000E+0
342	10/05/2023	13:27:53.050	0.00000000E+0	5.73339892E+2	5.00000000E+0	5.45851762E-1	0.00000000E+0
343	10/05/2023	13:27:54.508	0.00000000E+0	5.79623078E+2	5.00000000E+0	5.50780249E-1	0.00000000E+0
344	10/05/2023	13:27:55.980	0.00000000E+0	5.85906263E+2	5.00000000E+0	5.90489658E-1	0.00000000E+0
345	10/05/2023	13:27:57.551	0.00000000E+0	5.92189448E+2	5.00000000E+0	5.20489666E-1	0.00000000E+0
346	10/05/2023	13:27:59.013	0.00000000E+0	5.98472634E+2	5.00000000E+0	5.47815587E-1	0.00000000E+0
347	10/05/2023	13:28:00.585	0.00000000E+0	6.04755819E+2	5.00000000E+0	4.14106620E-1	0.00000000E+0
348	10/05/2023	13:28:02.044	0.00000000E+0	6.11039004E+2	5.00000000E+0	3.85575092E-1	0.00000000E+0
349	10/05/2023	13:28:03.500	0.00000000E+0	6.17322189E+2	5.00000000E+0	3.36594722E-1	0.00000000E+0
350	10/05/2023	13:28:05.079	0.00000000E+0	6.23605375E+2	5.00000000E+0	3.25037523E-1	0.00000000E+0
351	10/05/2023	13:28:06.564	0.00000000E+0	6.29888560E+2	5.00000000E+0	4.23059960E-1	0.00000000E+0
352	10/05/2023	13:28:08.049	0.00000000E+0	6.36171745E+2	5.00000000E+0	4.79305946E-1	0.00000000E+0
353	10/05/2023	13:28:09.509	0.00000000E+0	6.42454931E+2	5.00000000E+0	3.67254948E-1	0.00000000E+0
354	10/05/2023	13:28:10.979	0.00000000E+0	6.48738116E+2	5.00000000E+0	5.83711439E-1	0.00000000E+0
355	10/05/2023	13:28:12.568	0.00000000E+0	6.55021301E+2	5.00000000E+0	4.49229701E-1	0.00000000E+0
356	10/05/2023	13:28:14.033	0.00000000E+0	6.61304487E+2	5.00000000E+0	5.77619342E-1	0.00000000E+0
357	10/05/2023	13:28:15.511	0.00000000E+0	6.67587672E+2	5.00000000E+0	6.16681548E-1	0.00000000E+0
358	10/05/2023	13:28:17.041	0.00000000E+0	6.73870857E+2	5.00000000E+0	5.53432178E-1	0.00000000E+0
359	10/05/2023	13:28:18.585	0.00000000E+0	6.80154043E+2	5.00000000E+0	5.67649823E-1	0.00000000E+0
360	10/05/2023	13:28:20.131	0.00000000E+0	6.86437228E+2	5.00000000E+0	4.15576467E-1	0.00000000E+0
361	10/05/2023	13:28:21.585	0.00000000E+0	6.92720413E+2	5.00000000E+0	3.42706454E-1	0.00000000E+0
362	10/05/2023	13:28:23.034	0.00000000E+0	6.99003598E+2	5.00000000E+0	5.01551415E-1	0.00000000E+0
363	10/05/2023	13:28:24.594	0.00000000E+0	7.05286784E+2	5.00000000E+0	4.80962102E-1	0.00000000E+0
364	10/05/2023	13:28:26.064	0.00000000E+0	7.11569969E+2	5.00000000E+0	4.98074283E-1	0.00000000E+0
365	10/05/2023	13:28:27.536	0.00000000E+0	7.17853154E+2	5.00000000E+0	3.86837184E-1	0.00000000E+0
366	10/05/2023	13:28:29.109	0.00000000E+0	7.24136340E+2	5.00000000E+0	4.71338646E-1	0.00000000E+0
367	10/05/2023	13:28:30.589	0.00000000E+0	7.30419525E+2	5.00000000E+0	6.12212093E-1	0.00000000E+0
368	10/05/2023	13:28:32.081	0.00000000E+0	7.36702710E+2	5.00000000E+0	4.19527790E-1	0.00000000E+0
369	10/05/2023	13:28:33.620	0.00000000E+0	7.42985896E+2	5.00000000E+0	5.63319159E-1	0.00000000E+0
370	10/05/2023	13:28:35.078	0.00000000E+0	7.49269081E+2	5.00000000E+0	5.75987376E-1	0.00000000E+0
371	10/05/2023	13:28:36.645	0.00000000E+0	7.55552266E+2	5.00000000E+0	4.96221602E-1	0.00000000E+0
372	10/05/2023	13:28:38.125	0.00000000E+0	7.61835452E+2	5.00000000E+0	4.79668257E-1	0.00000000E+0
373	10/05/2023	13:28:39.686	0.00000000E+0	7.68118637E+2	5.00000000E+0	4.31122142E-1	0.00000000E+0
374	10/05/2023	13:28:41.247	0.00000000E+0	7.74401822E+2	5.00000000E+0	3.84848189E-1	0.00000000E+0
375	10/05/2023	13:28:42.714	0.00000000E+0	7.80685007E+2	5.00000000E+0	4.84155331E-1	0.00000000E+0
376	10/05/2023	13:28:44.299	0.00000000E+0	7.86968193E+2	5.00000000E+0	4.25782989E-1	0.00000000E+0
377	10/05/2023	13:28:45.743	0.00000000E+0	7.93251378E+2	5.00000000E+0	4.96501609E-1	0.00000000E+0
378	10/05/2023	13:28:47.216	0.00000000E+0	7.99534563E+2	5.00000000E+0	4.75036961E-1	0.00000000E+0
379	10/05/2023	13:28:48.790	0.00000000E+0	8.05817749E+2	5.00000000E+0	4.90414026E-1	0.00000000E+0
380	10/05/2023	13:28:50.260	0.00000000E+0	8.12100934E+2	5.00000000E+0	4.34613863E-1	0.00000000E+0
381	10/05/2023	13:28:51.839	0.00000000E+0	8.18384119E+2	5.00000000E+0	4.89997308E-1	0.00000000E+0
382	10/05/2023	13:28:53.273	0.00000000E+0	8.24667305E+2	5.00000000E+0	4.84802785E-1	0.00000000E+0
383	10/05/2023	13:28:54.761	0.00000000E+0	8.30950490E+2	5.00000000E+0	3.96057364E-1	0.00000000E+0
384	10/05/2023	13:28:56.311	0.00000000E+0	8.37233675E+2	5.00000000E+0	4.80910988E-1	0.00000000E+0
385	10/05/2023	13:28:57.907	0.00000000E+0	8.43516860E+2	5.00000000E+0	4.98004879E-1	0.00000000E+0
386	10/05/2023	13:28:59.391	0.00000000E+0	8.49800046E+2	5.00000000E+0	4.76173420E-1	0.00000000E+0
387	10/05/2023	13:29:00.933	0.00000000E+0	8.56083231E+2	5.00000000E+0	5.12510783E-1	0.00000000E+0
388	10/05/2023	13:29:02.390	0.00000000E+0	8.62366416E+2	5.00000000E+0	4.79081946E-1	0.00000000E+0
389	10/05/2023	13:29:04.054	0.00000000E+0	8.68649602E+2	5.00000000E+0	4.82760123E-1	0.00000000E+0
390	10/05/2023	13:29:05.516	0.00000000E+0	8.74932787E+2	5.00000000E+0	6.56898395E-1	0.00000000E+0
391	10/05/2023	13:29:06.989	0.00000000E+0	8.81215972E+2	5.00000000E+0	4.74288055E-1	0.00000000E+0
392	10/05/2023	13:29:08.662	0.00000000E+0	8.87499158E+2	5.00000000E+0	4.78565148E-1	0.00000000E+0
393	10/05/2023	13:29:10.290	0.00000000E+0	8.93782343E+2	5.00000000E+0	4.18570205E-1	0.00000000E+0
394	10/05/2023	13:29:11.808	0.00000000E+0	9.00065528E+2	5.00000000E+0	4.62308678E-1	0.00000000E+0
395	10/05/2023	13:29:13.286	0.00000000E+0	9.06348714E+2	5.00000000E+0	4.41111584E-1	0.00000000E+0
396	10/05/2023	13:29:14.757	0.00000000E+0	9.12631899E+2	5.00000000E+0	6.35170995E-1	0.00000000E+0
397	10/05/2023	13:29:16.310	0.00000000E+0	9.18915084E+2	5.00000000E+0	4.84240549E-1	0.00000000E+0
398	10/05/2023	13:29:17.812	0.00000000E+0	9.25198269E+2	5.00000000E+0	4.77413660E-1	0.00000000E+0
399	10/05/2023	13:29:19.308	0.00000000E+0	9.31481455E+2	5.00000000E+0	5.88497973E-1	0.00000000E+0
400	10/05/2023	13:29:20.908	0.00000000E+0	9.37764640E+2	5.00000000E+0	5.65699165E-1	0.00000000E+0
401	10/05/2023	13:29:22.400	0.00000000E+0	9.44047825E+2	5.00000000E+0	5.45685169E-1	0.00000000E+0
402	10/05/2023	13:29:24.013	0.00000000E+0	9.50331011E+2	5.00000000E+0	4.43458415E-1	0.00000000E+0
403	10/05/2023	13:29:25.514	0.00000000E+0	9.56614196E+2	5.00000000E+0	4.74727954E-1	0.00000000E+0
404	10/05/2023	13:29:26.988	0.00000000E+0	9.62897381E+2	5.00000000E+0	4.99077686E-1	0.00000000E+0
405	10/05/2023	13:29:28.534	0.00000000E+0	9.69180567E+2	5.00000000E+0	5.04038180E-1	0.00000000E+0
406	10/05/2023	13:29:30.013	0.00000000E+0	9.75463752E+2	5.00000000E+0	4.97160838E-1	0.00000000E+0
407	10/05/2023	13:29:31.524	0.00000000E+0	9.81746937E+2	5.00000000E+0	4.81751152E-1	0.00000000E+0
408	10/05/2023	13:29:32.990	0.00000000E+0	9.88030123E+2	5.00000000E+0	4.74686540E-1	0.00000000E+0
409	10/05/2023	13:29:34.451	0.00000000E+0	9.94313308E+2	5.00000000E+0	5.02124047E-1	0.00000000E+0
410	10/05/2023	13:29:36.049	0.00000000E+0	1.00059649E+3	5.00000000E+0	3.88318044E-1	0.00000000E+0
411	10/05/2023	13:29:37.525	0.00000000E+0	1.00687968E+3	5.00000000E+0	4.85157274E-1	0.00000000E+0
412	10/05/2023	13:29:39.004	0.00000000E+0	1.01316286E+3	5.00000000E+0	4.76608038E-1	0.00000000E+0
413	10/05/2023	13:29:40.582	0.00000000E+0	1.01944605E+3	5.00000000E+0	5.01944271E-1	0.00000000E+0
414	10/05/2023	13:29:42.086	0.00000000E+0	1.02572923E+3	5.00000000E+0	4.92120058E-1	0.00000000E+0
415	10/05/2023	13:29:43.599	0.00000000E+0	1.03201242E+3	5.00000000E+0	5.22385254E-1	0.00000000E+0
416	10/05/2023	13:29:45.052	0.00000000E+0	1.03829561E+3	5.00000000E+0	5.09503938E-1	0.00000000E+0
417	10/05/2023	13:29:46.500	0.00000000E+0	1.04457879E+3	5.00000000E+0	4.89742499E-1	0.00000000E+0
418	10/05/2023	13:29:48.057	0.00000000E+0	1.05086198E+3	5.00000000E+0	5.18870581E-1	0.00000000E+0
419	10/05/2023	13:29:49.544	0.00000000E+0	1.05714516E+3	5.00000000E+0	5.14051111E-1	0.00000000E+0
420	10/05/2023	13:29:51.002	0.00000000E+0	1.06342835E+3	5.00000000E+0	4.36535761E-1	0.00000000E+0
421	10/05/2023	13:29:52.493	0.00000000E+0	1.06971153E+3	5.00000000E+0	4.03794244E-1	0.00000000E+0
422	10/05/2023	13:29:53.988	0.00000000E+0	1.07599472E+3	5.00000000E+0	5.32633741E-1	0.00000000E+0
423	10/05/2023	13:29:55.537	0.00000000E+0	1.08227790E+3	5.00000000E+0	4.74033066E-1	0.00000000E+0
424	10/05/2023	13:29:57.001	0.00000000E+0	1.08856109E+3	5.00000000E+0	4.73199570E-1	0.00000000E+0
425	10/05/2023	13:29:58.489	0.00000000E+0	1.09484427E+3	5.00000000E+0	3.99561878E-1	0.00000000E+0
426	10/05/2023	13:30:00.038	0.00000000E+0	1.10112746E+3	5.00000000E+0	4.80707525E-1	0.00000000E+0
427	10/05/2023	13:30:01.512	0.00000000E+0	1.10741064E+3	5.00000000E+0	4.30378790E-1	0.00000000E+0
428	10/05/2023	13:30:03.008	0.00000000E+0	1.11369383E+3	5.00000000E+0	5.12287219E-1	0.00000000E+0
429	10/05/2023	13:30:04.508	0.00000000E+0	1.11997701E+3	5.00000000E+0	5.69825955E-1	0.00000000E+0
430	10/05/2023	13:30:05.976	0.00000000E+0	1.12626020E+3	5.00000000E+0	5.96602920E-1	0.00000000E+0
431	10/05/2023	13:30:07.550	0.00000000E+0	1.13254338E+3	5.00000000E+0	5.91925428E-1	0.00000000E+0
432	10/05/2023	13:30:09.030	0.00000000E+0	1.13882657E+3	5.00000000E+0	5.21738405E-1	0.00000000E+0
433	10/05/2023	13:30:10.498	0.00000000E+0	1.14510976E+3	5.00000000E+0	4.95148545E-1	0.00000000E+0
434	10/05/2023	13:30:12.047	0.00000000E+0	1.15139294E+3	5.00000000E+0	4.50783801E-1	0.00000000E+0
435	10/05/2023	13:30:13.536	0.00000000E+0	1.15767613E+3	5.00000000E+0	4.84325185E-1	0.00000000E+0
436	10/05/2023	13:30:15.064	0.00000000E+0	1.16395931E+3	5.00000000E+0	4.54197439E-1	0.00000000E+0
437	10/05/2023	13:30:16.549	0.00000000E+0	1.17024250E+3	5.00000000E+0	4.75178120E-1	0.00000000E+0
438	10/05/2023	13:30:18.045	0.00000000E+0	1.17652568E+3	5.00000000E+0	5.03177081E-1	0.00000000E+0
439	10/05/2023	13:30:19.609	0.00000000E+0	1.18280887E+3	5.00000000E+0	4.61417340E-1	0.00000000E+0
440	10/05/2023	13:30:21.076	0.00000000E+0	1.18909205E+3	5.00000000E+0	4.15043004E-1	0.00000000E+0
441	10/05/2023	13:30:22.649	0.00000000E+0	1.19537524E+3	5.00000000E+0	4.29824677E-1	0.00000000E+0
442	10/05/2023	13:30:24.088	0.00000000E+0	1.20165842E+3	5.00000000E+0	4.64996187E-1	0.00000000E+0
443	10/05/2023	13:30:25.536	0.00000000E+0	1.20794161E+3	5.00000000E+0	4.50604142E-1	0.00000000E+0
444	10/05/2023	13:30:27.049	0.00000000E+0	1.21422479E+3	5.00000000E+0	4.47354124E-1	0.00000000E+0
445	10/05/2023	13:30:28.518	0.00000000E+0	1.22050798E+3	5.00000000E+0	3.37466731E-1	0.00000000E+0
446	10/05/2023	13:30:29.995	0.00000000E+0	1.22679116E+3	5.00000000E+0	3.19625352E-1	0.00000000E+0
447	10/05/2023	13:30:31.570	0.00000000E+0	1.23307435E+3	5.00000000E+0	3.18600981E-1	0.00000000E+0
448	10/05/2023	13:30:33.032	0.00000000E+0	1.23935753E+3	5.00000000E+0	3.48539149E-1	0.00000000E+0
449	10/05/2023	13:30:34.502	0.00000000E+0	1.24564072E+3	5.00000000E+0	2.88650175E-1	0.00000000E+0
450	10/05/2023	13:30:35.974	0.00000000E+0	1.25192391E+3	5.00000000E+0	3.60184161E-1	0.00000000E+0
451	10/05/2023	13:30:37.484	0.00000000E+0	1.25820709E+3	5.00000000E+0	3.53579650E-1	0.00000000E+0
452	10/05/2023	13:30:39.058	0.00000000E+0	1.26449028E+3	5.00000000E+0	4.22186065E-1	0.00000000E+0
453	10/05/2023	13:30:40.516	0.00000000E+0	1.27077346E+3	5.00000000E+0	3.00267154E-1	0.00000000E+0
454	10/05/2023	13:30:42.009	0.00000000E+0	1.27705665E+3	5.00000000E+0	4.13778238E-1	0.00000000E+0
455	10/05/2023	13:30:43.475	0.00000000E+0	1.28333983E+3	5.00000000E+0	4.28712622E-1	0.00000000E+0
456	10/05/2023	13:30:44.955	0.00000000E+0	1.28962302E+3	5.00000000E+0	3.66929592E-1	0.00000000E+0
457	10/05/2023	13:30:46.494	0.00000000E+0	1.29590620E+3	5.00000000E+0	5.02101266E-1	0.00000000E+0
458	10/05/2023	13:30:47.962	0.00000000E+0	1.30218939E+3	5.00000000E+0	5.35725758E-1	0.00000000E+0
459	10/05/2023	13:30:49.446	0.00000000E+0	1.30847257E+3	5.00000000E+0	3.47895611E-1	0.00000000E+0
460	10/05/2023	13:30:51.012	0.00000000E+0	1.31475576E+3	5.00000000E+0	5.16696829E-1	0.00000000E+0
461	10/05/2023	13:30:52.473	0.00000000E+0	1.32103894E+3	5.00000000E+0	6.38335819E-1	0.00000000E+0
462	10/05/2023	13:30:53.957	0.00000000E+0	1.32732213E+3	5.00000000E+0	4.72967006E-1	0.00000000E+0
463	10/05/2023	13:30:55.446	0.00000000E+0	1.33360531E+3	5.00000000E+0	6.60634471E-1	0.00000000E+0
464	10/05/2023	13:30:56.930	0.00000000E+0	1.33988850E+3	5.00000000E+0	5.80798392E-1	0.00000000E+0
465	10/05/2023	13:30:58.529	0.00000000E+0	1.34617169E+3	5.00000000E+0	5.76582465E-1	0.00000000E+0
466	10/05/2023	13:30:59.976	0.00000000E+0	1.35245487E+3	5.00000000E+0	6.34409541E-1	0.00000000E+0
467	10/05/2023	13:31:01.428	0.00000000E+0	1.35873806E+3	5.00000000E+0	6.33406718E-1	0.00000000E+0
468	10/05/2023	13:31:02.992	0.00000000E+0	1.36502124E+3	5.00000000E+0	6.54571822E-1	0.00000000E+0
469	10/05/2023	13:31:04.511	0.00000000E+0	1.37130443E+3	5.00000000E+0	5.98014859E-1	0.00000000E+0
470	10/05/2023	13:31:06.022	0.00000000E+0	1.37758761E+3	5.00000000E+0	5.61201035E-1	0.00000000E+0
471	10/05/2023	13:31:07.491	0.00000000E+0	1.38387080E+3	5.00000000E+0	5.44403284E-1	0.00000000E+0
472	10/05/2023	13:31:08.958	0.00000000E+0	1.39015398E+3	5.00000000E+0	5.22640861E-1	0.00000000E+0
473	10/05/2023	13:31:10.549	0.00000000E+0	1.39643717E+3	5.00000000E+0	5.13768939E-1	0.00000000E+0
474	10/05/2023	13:31:12.014	0.00000000E+0	1.40272035E+3	5.00000000E+0	4.34404353E-1	0.00000000E+0
475	10/05/2023	13:31:13.460	0.00000000E+0	1.40900354E+3	5.00000000E+0	4.08245413E-1	0.00000000E+0
476	10/05/2023	13:31:15.038	0.00000000E+0	1.41528672E+3	5.00000000E+0	4.43053698E-1	0.00000000E+0
477	10/05/2023	13:31:16.519	0.00000000E+0	1.42156991E+3	5.00000000E+0	3.46833644E-1	0.00000000E+0
478	10/05/2023	13:31:17.994	0.00000000E+0	1.42785309E+3	5.00000000E+0	4.51642229E-1	0.00000000E+0
479	10/05/2023	13:31:19.463	0.00000000E+0	1.43413628E+3	5.00000000E+0	5.29429821E-1	0.00000000E+0
480	10/05/2023	13:31:20.912	0.00000000E+0	1.44041946E+3	5.00000000E+0	3.14923757E-1	0.00000000E+0
481	10/05/2023	13:31:22.470	0.00000000E+0	1.44670265E+3	5.00000000E+0	5.81980668E-1	0.00000000E+0
482	10/05/2023	13:31:23.978	0.00000000E+0	1.45298584E+3	5.00000000E+0	5.72763539E-1	0.00000000E+0
483	10/05/2023	13:31:25.424	0.00000000E+0	1.45926902E+3	5.00000000E+0	5.91478660E-1	0.00000000E+0
484	10/05/2023	13:31:26.895	0.00000000E+0	1.46555221E+3	5.00000000E+0	2.92092614E-1	0.00000000E+0
485	10/05/2023	13:31:28.370	0.00000000E+0	1.47183539E+3	5.00000000E+0	3.04091378E-1	0.00000000E+0
486	10/05/2023	13:31:29.914	0.00000000E+0	1.47811858E+3	5.00000000E+0	3.23025343E-1	0.00000000E+0
487	10/05/2023	13:31:31.379	0.00000000E+0	1.48440176E+3	5.00000000E+0	4.65218124E-1	0.00000000E+0
488	10/05/2023	13:31:32.858	0.00000000E+0	1.49068495E+3	5.00000000E+0	6.76786254E-1	0.00000000E+0
489	10/05/2023	13:31:34.307	0.00000000E+0	1.49696813E+3	5.00000000E+0	3.52035305E-1	0.00000000E+0
490	10/05/2023	13:31:35.792	0.00000000E+0	1.50325132E+3	5.00000000E+0	6.57666236E-1	0.00000000E+0
491	10/05/2023	13:31:37.316	0.00000000E+0	1.50953450E+3	5.00000000E+0	4.43603482E-1	0.00000000E+0
492	10/05/2023	13:31:38.760	0.00000000E+0	1.51581769E+3	5.00000000E+0	6.49806905E-1	0.00000000E+0
493	10/05/2023	13:31:40.244	0.00000000E+0	1.52210087E+3	5.00000000E+0	6.70822249E-1	0.00000000E+0
494	10/05/2023	13:31:41.871	0.00000000E+0	1.52838406E+3	5.00000000E+0	4.07194322E-1	0.00000000E+0
495	10/05/2023	13:31:43.343	0.00000000E+0	1.53466724E+3	5.00000000E+0	4.65894928E-1	0.00000000E+0
496	10/05/2023	13:31:44.843	0.00000000E+0	1.54095043E+3	5.00000000E+0	6.30529201E-1	0.00000000E+0
497	10/05/2023	13:31:46.344	0.00000000E+0	1.54723361E+3	5.00000000E+0	5.80161328E-1	0.00000000E+0
498	10/05/2023	13:31:47.809	0.00000000E+0	1.55351680E+3	5.00000000E+0	5.39961303E-1	0.00000000E+0
499	10/05/2023	13:31:49.273	0.00000000E+0	1.55979999E+3	5.00000000E+0	5.35270863E-1	0.00000000E+0
500	10/05/2023	13:31:50.760	0.00000000E+0	1.56608317E+3	5.00000000E+0	5.01459925E-1	0.00000000E+0
