#Iteration	Date	Time	STSX	STSY	RotationRateX	RotationRateY	FrCntX	FrCntY	TiptiltCmd1	TiptiltCmd2	TiptiltMonitor1	TiptiltMonitor2
1	10/05/2023	13:19:17.432	0.00000E+0	0.00000E+0	-1.37684E-2	5.74872E-2	0.00000E+0	0.00000E+0	1.95200E+1	1.35000E+1	1.95177E+1	1.34988E+1
2	10/05/2023	13:19:19.006	0.00000E+0	0.00000E+0	1.95770E+1	2.14506E+1	0.00000E+0	0.00000E+0	1.95200E+1	1.35000E+1	1.95193E+1	1.34977E+1
3	10/05/2023	13:19:20.460	0.00000E+0	0.00000E+0	2.05883E+1	2.18625E+1	0.00000E+0	0.00000E+0	1.95200E+1	1.35000E+1	1.95214E+1	1.35009E+1
4	10/05/2023	13:19:21.919	0.00000E+0	0.00000E+0	3.08166E+1	3.25213E+1	0.00000E+0	0.00000E+0	1.95200E+1	1.35000E+1	1.95193E+1	1.34994E+1
5	10/05/2023	13:19:23.482	0.00000E+0	0.00000E+0	-4.99076E+1	-5.28716E+1	0.00000E+0	0.00000E+0	1.95200E+1	1.35000E+1	1.95212E+1	1.35013E+1
6	10/05/2023	13:19:24.959	0.00000E+0	0.00000E+0	-4.67394E+1	-4.73774E+1	0.00000E+0	0.00000E+0	1.95200E+1	1.35000E+1	1.95191E+1	1.34984E+1
7	10/05/2023	13:19:26.495	0.00000E+0	0.00000E+0	-1.61378E+1	-1.58404E+1	0.00000E+0	0.00000E+0	1.95200E+1	1.35000E+1	1.95159E+1	1.34998E+1
8	10/05/2023	13:19:28.030	0.00000E+0	0.00000E+0	-3.45874E+1	-3.87838E+1	0.00000E+0	0.00000E+0	1.95200E+1	1.35000E+1	1.95221E+1	1.35019E+1
9	10/05/2023	13:19:29.546	0.00000E+0	0.00000E+0	-4.96749E+1	-5.18664E+1	0.00000E+0	0.00000E+0	1.95200E+1	1.35000E+1	1.95203E+1	1.35016E+1
10	10/05/2023	13:19:31.223	0.00000E+0	0.00000E+0	-1.92561E+1	-1.95491E+1	0.00000E+0	0.00000E+0	1.95200E+1	1.35000E+1	1.95199E+1	1.34992E+1
11	10/05/2023	13:19:32.687	0.00000E+0	0.00000E+0	9.96731E+0	1.07781E+1	0.00000E+0	0.00000E+0	1.95200E+1	1.35000E+1	1.95207E+1	1.34981E+1
12	10/05/2023	13:19:34.117	0.00000E+0	0.00000E+0	2.11229E+1	2.11449E+1	0.00000E+0	0.00000E+0	1.95200E+1	1.35000E+1	1.95226E+1	1.35013E+1
13	10/05/2023	13:19:35.622	0.00000E+0	0.00000E+0	4.92256E+1	4.94301E+1	0.00000E+0	0.00000E+0	1.95200E+1	1.35000E+1	1.95209E+1	1.35006E+1
14	10/05/2023	13:19:37.105	0.00000E+0	0.00000E+0	1.36315E+1	1.28438E+1	0.00000E+0	0.00000E+0	1.95200E+1	1.35000E+1	1.95204E+1	1.34997E+1
15	10/05/2023	13:19:38.703	0.00000E+0	0.00000E+0	3.59730E+1	3.93645E+1	0.00000E+0	0.00000E+0	1.95200E+1	1.35000E+1	1.95233E+1	1.35001E+1
16	10/05/2023	13:19:40.173	0.00000E+0	0.00000E+0	3.89884E+1	3.69026E+1	0.00000E+0	0.00000E+0	1.95200E+1	1.35000E+1	1.95201E+1	1.34997E+1
17	10/05/2023	13:19:41.651	0.00000E+0	0.00000E+0	3.07485E+1	3.19281E+1	0.00000E+0	0.00000E+0	1.95200E+1	1.35000E+1	1.95187E+1	1.35000E+1
18	10/05/2023	13:19:43.240	0.00000E+0	0.00000E+0	4.46896E+1	4.09757E+1	0.00000E+0	0.00000E+0	1.95200E+1	1.35000E+1	1.95192E+1	1.35009E+1
19	10/05/2023	13:19:44.738	0.00000E+0	0.00000E+0	2.40873E+1	2.44961E+1	0.00000E+0	0.00000E+0	1.95200E+1	1.35000E+1	1.95188E+1	1.35011E+1
20	10/05/2023	13:19:46.268	0.00000E+0	0.00000E+0	-1.48698E+1	-1.67440E+1	0.00000E+0	0.00000E+0	1.95200E+1	1.35000E+1	1.95205E+1	1.34996E+1
21	10/05/2023	13:19:47.785	0.00000E+0	0.00000E+0	-3.29290E+1	-3.49914E+1	0.00000E+0	0.00000E+0	1.95200E+1	1.35000E+1	1.95204E+1	1.35004E+1
22	10/05/2023	13:19:49.270	0.00000E+0	0.00000E+0	-4.24259E+1	-4.39562E+1	0.00000E+0	0.00000E+0	1.95200E+1	1.35000E+1	1.95179E+1	1.34994E+1
23	10/05/2023	13:19:50.837	0.00000E+0	0.00000E+0	-2.62043E+1	-2.54432E+1	0.00000E+0	0.00000E+0	1.95200E+1	1.35000E+1	1.95182E+1	1.34975E+1
24	10/05/2023	13:19:52.298	0.00000E+0	0.00000E+0	-2.55038E+1	-2.66403E+1	0.00000E+0	0.00000E+0	1.95200E+1	1.35000E+1	1.95204E+1	1.35005E+1
25	10/05/2023	13:19:53.800	0.00000E+0	0.00000E+0	-6.49258E+1	-6.60379E+1	0.00000E+0	0.00000E+0	1.95200E+1	1.35000E+1	1.95202E+1	1.34989E+1
26	10/05/2023	13:19:55.384	0.00000E+0	0.00000E+0	-6.13392E+1	-6.09595E+1	0.00000E+0	0.00000E+0	1.95200E+1	1.35000E+1	1.95199E+1	1.35004E+1
27	10/05/2023	13:19:56.874	0.00000E+0	0.00000E+0	4.22301E+1	4.25523E+1	0.00000E+0	0.00000E+0	1.95200E+1	1.35000E+1	1.95194E+1	1.34986E+1
28	10/05/2023	13:19:58.412	0.00000E+0	0.00000E+0	6.88264E+1	7.11904E+1	0.00000E+0	0.00000E+0	1.95200E+1	1.35000E+1	1.95195E+1	1.34983E+1
29	10/05/2023	13:19:59.888	0.00000E+0	0.00000E+0	5.89163E+1	5.76155E+1	0.00000E+0	0.00000E+0	1.95200E+1	1.35000E+1	1.95215E+1	1.34995E+1
30	10/05/2023	13:20:01.369	0.00000E+0	0.00000E+0	3.04393E+1	3.27222E+1	0.00000E+0	0.00000E+0	1.95200E+1	1.35000E+1	1.95188E+1	1.34982E+1
31	10/05/2023	13:20:03.013	0.00000E+0	0.00000E+0	2.98009E+1	3.12029E+1	0.00000E+0	0.00000E+0	1.95200E+1	1.35000E+1	1.95179E+1	1.34996E+1
32	10/05/2023	13:20:04.560	0.00000E+0	0.00000E+0	2.39680E+1	2.33809E+1	0.00000E+0	0.00000E+0	1.95200E+1	1.35000E+1	1.95179E+1	1.35001E+1
33	10/05/2023	13:20:06.075	0.00000E+0	0.00000E+0	9.09571E+0	9.29956E+0	0.00000E+0	0.00000E+0	1.95200E+1	1.35000E+1	1.95201E+1	1.34987E+1
34	10/05/2023	13:20:07.635	0.00000E+0	0.00000E+0	-1.28265E+1	-1.35305E+1	0.00000E+0	0.00000E+0	1.95200E+1	1.35000E+1	1.95211E+1	1.35001E+1
35	10/05/2023	13:20:09.139	0.00000E+0	0.00000E+0	-1.08338E+1	-1.08322E+1	0.00000E+0	0.00000E+0	1.95200E+1	1.35000E+1	1.95207E+1	1.34999E+1
36	10/05/2023	13:20:10.655	0.00000E+0	0.00000E+0	-1.89971E+1	-2.01876E+1	0.00000E+0	0.00000E+0	1.95200E+1	1.35000E+1	1.95201E+1	1.34974E+1
37	10/05/2023	13:20:12.139	0.00000E+0	0.00000E+0	-1.17702E+1	-1.19015E+1	0.00000E+0	0.00000E+0	1.95200E+1	1.35000E+1	1.95183E+1	1.34996E+1
38	10/05/2023	13:20:13.612	0.00000E+0	0.00000E+0	-3.30841E+1	-3.37725E+1	0.00000E+0	0.00000E+0	1.95200E+1	1.35000E+1	1.95237E+1	1.34986E+1
39	10/05/2023	13:20:15.174	0.00000E+0	0.00000E+0	-1.24067E+1	-1.19169E+1	0.00000E+0	0.00000E+0	1.95200E+1	1.35000E+1	1.95211E+1	1.34997E+1
40	10/05/2023	13:20:16.627	0.00000E+0	0.00000E+0	-2.00737E+1	-2.24417E+1	0.00000E+0	0.00000E+0	1.95200E+1	1.35000E+1	1.95173E+1	1.34988E+1
41	10/05/2023	13:20:18.161	0.00000E+0	0.00000E+0	-1.60989E+1	-1.47809E+1	0.00000E+0	0.00000E+0	1.95200E+1	1.35000E+1	1.95213E+1	1.35010E+1
42	10/05/2023	13:20:19.649	0.00000E+0	0.00000E+0	-2.94511E+1	-3.15245E+1	0.00000E+0	0.00000E+0	1.95200E+1	1.35000E+1	1.95195E+1	1.35016E+1
43	10/05/2023	13:20:21.207	0.00000E+0	0.00000E+0	-1.35910E+1	-1.35538E+1	0.00000E+0	0.00000E+0	1.95200E+1	1.35000E+1	1.95192E+1	1.35005E+1
44	10/05/2023	13:20:22.820	0.00000E+0	0.00000E+0	-1.22748E+1	-1.18456E+1	0.00000E+0	0.00000E+0	1.95200E+1	1.35000E+1	1.95176E+1	1.34996E+1
45	10/05/2023	13:20:24.474	0.00000E+0	0.00000E+0	-1.66776E+1	-1.59314E+1	0.00000E+0	0.00000E+0	1.95200E+1	1.35000E+1	1.95202E+1	1.35001E+1
46	10/05/2023	13:20:26.382	0.00000E+0	0.00000E+0	-1.84479E+1	-2.09102E+1	0.00000E+0	0.00000E+0	1.95200E+1	1.35000E+1	1.95188E+1	1.34983E+1
47	10/05/2023	13:20:27.847	0.00000E+0	0.00000E+0	-1.75391E+1	-1.71924E+1	0.00000E+0	0.00000E+0	1.95200E+1	1.35000E+1	1.95201E+1	1.35000E+1
48	10/05/2023	13:20:29.350	0.00000E+0	0.00000E+0	2.67286E+0	2.47109E+0	0.00000E+0	0.00000E+0	1.95200E+1	1.35000E+1	1.95196E+1	1.35006E+1
49	10/05/2023	13:20:30.848	0.00000E+0	0.00000E+0	1.32058E+1	1.33542E+1	0.00000E+0	0.00000E+0	1.95200E+1	1.35000E+1	1.95198E+1	1.35000E+1
50	10/05/2023	13:20:32.322	0.00000E+0	0.00000E+0	1.90125E+1	1.85889E+1	0.00000E+0	0.00000E+0	1.95200E+1	1.35000E+1	1.95191E+1	1.35019E+1
51	10/05/2023	13:20:33.826	0.00000E+0	0.00000E+0	5.96866E+0	6.56634E+0	0.00000E+0	0.00000E+0	1.95200E+1	1.35000E+1	1.95187E+1	1.35019E+1
52	10/05/2023	13:20:35.419	0.00000E+0	0.00000E+0	1.32267E+1	1.37210E+1	0.00000E+0	0.00000E+0	1.95200E+1	1.35000E+1	1.95201E+1	1.34999E+1
53	10/05/2023	13:20:36.910	0.00000E+0	0.00000E+0	1.67387E+1	1.61345E+1	0.00000E+0	0.00000E+0	1.95200E+1	1.35000E+1	1.95212E+1	1.34997E+1
54	10/05/2023	13:20:38.426	0.00000E+0	0.00000E+0	1.49069E+1	1.73153E+1	0.00000E+0	0.00000E+0	1.95200E+1	1.35000E+1	1.95199E+1	1.35002E+1
55	10/05/2023	13:20:39.998	0.00000E+0	0.00000E+0	2.33940E+1	2.56328E+1	0.00000E+0	0.00000E+0	1.95200E+1	1.35000E+1	1.95177E+1	1.34995E+1
56	10/05/2023	13:20:41.460	0.00000E+0	0.00000E+0	1.28838E+1	1.18943E+1	0.00000E+0	0.00000E+0	1.95200E+1	1.35000E+1	1.95233E+1	1.34998E+1
57	10/05/2023	13:20:43.050	0.00000E+0	0.00000E+0	3.42787E+1	3.56559E+1	0.00000E+0	0.00000E+0	1.95200E+1	1.35000E+1	1.95226E+1	1.34997E+1
58	10/05/2023	13:20:44.529	0.00000E+0	0.00000E+0	2.48332E+1	2.49641E+1	0.00000E+0	0.00000E+0	1.95200E+1	1.35000E+1	1.95174E+1	1.34988E+1
59	10/05/2023	13:20:45.997	0.00000E+0	0.00000E+0	2.82210E+1	2.87178E+1	0.00000E+0	0.00000E+0	1.95200E+1	1.35000E+1	1.95200E+1	1.34992E+1
60	10/05/2023	13:20:47.563	0.00000E+0	0.00000E+0	2.01922E+1	2.14600E+1	0.00000E+0	0.00000E+0	1.95200E+1	1.35000E+1	1.95190E+1	1.35012E+1
61	10/05/2023	13:20:49.107	0.00000E+0	0.00000E+0	2.20654E+1	2.19938E+1	0.00000E+0	0.00000E+0	1.95200E+1	1.35000E+1	1.95177E+1	1.35012E+1
62	10/05/2023	13:20:50.642	0.00000E+0	0.00000E+0	-3.83550E+1	-3.85164E+1	0.00000E+0	0.00000E+0	1.95200E+1	1.35000E+1	1.95213E+1	1.35005E+1
63	10/05/2023	13:20:52.102	0.00000E+0	0.00000E+0	-4.99477E+1	-5.18190E+1	0.00000E+0	0.00000E+0	1.95200E+1	1.35000E+1	1.95186E+1	1.35017E+1
64	10/05/2023	13:20:53.585	0.00000E+0	0.00000E+0	-6.77641E+1	-6.79801E+1	0.00000E+0	0.00000E+0	1.95200E+1	1.35000E+1	1.95177E+1	1.35008E+1
65	10/05/2023	13:20:55.157	0.00000E+0	0.00000E+0	-5.72433E+1	-5.48123E+1	0.00000E+0	0.00000E+0	1.95200E+1	1.35000E+1	1.95187E+1	1.35002E+1
66	10/05/2023	13:20:56.684	0.00000E+0	0.00000E+0	-5.06796E+1	-5.14130E+1	0.00000E+0	0.00000E+0	1.95200E+1	1.35000E+1	1.95198E+1	1.35003E+1
67	10/05/2023	13:20:58.125	0.00000E+0	0.00000E+0	3.78214E+0	5.51673E+0	0.00000E+0	0.00000E+0	1.95200E+1	1.35000E+1	1.95206E+1	1.34989E+1
68	10/05/2023	13:20:59.726	0.00000E+0	0.00000E+0	5.38910E+1	5.69877E+1	0.00000E+0	0.00000E+0	1.95200E+1	1.35000E+1	1.95243E+1	1.34989E+1
69	10/05/2023	13:21:01.208	0.00000E+0	0.00000E+0	4.00091E+1	4.15587E+1	0.00000E+0	0.00000E+0	1.95200E+1	1.35000E+1	1.95192E+1	1.34951E+1
70	10/05/2023	13:21:02.724	0.00000E+0	0.00000E+0	4.36829E+1	4.35097E+1	0.00000E+0	0.00000E+0	1.95200E+1	1.35000E+1	1.95178E+1	1.34989E+1
71	10/05/2023	13:21:04.195	0.00000E+0	0.00000E+0	3.34625E+1	3.41351E+1	0.00000E+0	0.00000E+0	1.95200E+1	1.35000E+1	1.95220E+1	1.34982E+1
72	10/05/2023	13:21:05.725	0.00000E+0	0.00000E+0	1.79507E+1	1.62033E+1	0.00000E+0	0.00000E+0	1.95200E+1	1.35000E+1	1.95209E+1	1.34989E+1
73	10/05/2023	13:21:07.318	0.00000E+0	0.00000E+0	4.23105E+1	4.31468E+1	0.00000E+0	0.00000E+0	1.95200E+1	1.35000E+1	1.95196E+1	1.34999E+1
74	10/05/2023	13:21:08.835	0.00000E+0	0.00000E+0	-2.04338E+1	-2.47299E+1	0.00000E+0	0.00000E+0	1.95200E+1	1.35000E+1	1.95203E+1	1.35017E+1
75	10/05/2023	13:21:10.330	0.00000E+0	0.00000E+0	-4.95671E+1	-4.80766E+1	0.00000E+0	0.00000E+0	1.95200E+1	1.35000E+1	1.95210E+1	1.35010E+1
76	10/05/2023	13:21:11.785	0.00000E+0	0.00000E+0	-5.91916E+1	-5.95473E+1	0.00000E+0	0.00000E+0	1.95200E+1	1.35000E+1	1.95186E+1	1.35003E+1
77	10/05/2023	13:21:13.266	0.00000E+0	0.00000E+0	-5.55548E+1	-5.83256E+1	0.00000E+0	0.00000E+0	1.95200E+1	1.35000E+1	1.95192E+1	1.35023E+1
78	10/05/2023	13:21:14.851	0.00000E+0	0.00000E+0	-5.28509E+1	-5.20320E+1	0.00000E+0	0.00000E+0	1.95200E+1	1.35000E+1	1.95200E+1	1.34999E+1
79	10/05/2023	13:21:16.321	0.00000E+0	0.00000E+0	-4.64353E+1	-4.54622E+1	0.00000E+0	0.00000E+0	1.95200E+1	1.35000E+1	1.95194E+1	1.35015E+1
80	10/05/2023	13:21:17.823	0.00000E+0	0.00000E+0	3.53172E+1	3.73008E+1	0.00000E+0	0.00000E+0	1.95200E+1	1.35000E+1	1.95202E+1	1.34986E+1
81	10/05/2023	13:21:19.298	0.00000E+0	0.00000E+0	4.65718E+1	4.65239E+1	0.00000E+0	0.00000E+0	1.95200E+1	1.35000E+1	1.95224E+1	1.34996E+1
82	10/05/2023	13:21:20.823	0.00000E+0	0.00000E+0	4.62086E+1	4.55123E+1	0.00000E+0	0.00000E+0	1.95200E+1	1.35000E+1	1.95196E+1	1.35005E+1
83	10/05/2023	13:21:22.341	0.00000E+0	0.00000E+0	4.88580E+1	4.87564E+1	0.00000E+0	0.00000E+0	1.95200E+1	1.35000E+1	1.95202E+1	1.35013E+1
84	10/05/2023	13:21:23.854	0.00000E+0	0.00000E+0	4.73808E+1	4.91134E+1	0.00000E+0	0.00000E+0	1.95200E+1	1.35000E+1	1.95202E+1	1.35017E+1
85	10/05/2023	13:21:25.355	0.00000E+0	0.00000E+0	4.18508E+1	4.18363E+1	0.00000E+0	0.00000E+0	1.95200E+1	1.35000E+1	1.95181E+1	1.34999E+1
86	10/05/2023	13:21:26.922	0.00000E+0	0.00000E+0	-2.05009E+1	-2.18034E+1	0.00000E+0	0.00000E+0	1.95200E+1	1.35000E+1	1.95209E+1	1.35004E+1
87	10/05/2023	13:21:28.393	0.00000E+0	0.00000E+0	-7.50610E+1	-7.54380E+1	0.00000E+0	0.00000E+0	1.95200E+1	1.35000E+1	1.95166E+1	1.35019E+1
88	10/05/2023	13:21:29.913	0.00000E+0	0.00000E+0	-6.32960E+1	-6.15880E+1	0.00000E+0	0.00000E+0	1.95200E+1	1.35000E+1	1.95184E+1	1.35002E+1
89	10/05/2023	13:21:31.403	0.00000E+0	0.00000E+0	-5.13452E+1	-5.18854E+1	0.00000E+0	0.00000E+0	1.95200E+1	1.35000E+1	1.95219E+1	1.34994E+1
90	10/05/2023	13:21:32.903	0.00000E+0	0.00000E+0	-2.07612E+1	-2.25985E+1	0.00000E+0	0.00000E+0	1.95200E+1	1.35000E+1	1.95207E+1	1.34984E+1
91	10/05/2023	13:21:34.480	0.00000E+0	0.00000E+0	-1.25393E+1	-1.22136E+1	0.00000E+0	0.00000E+0	1.95200E+1	1.35000E+1	1.95230E+1	1.35017E+1
92	10/05/2023	13:21:35.964	0.00000E+0	0.00000E+0	4.09352E+1	4.40028E+1	0.00000E+0	0.00000E+0	1.95200E+1	1.35000E+1	1.95196E+1	1.35016E+1
93	10/05/2023	13:21:37.408	0.00000E+0	0.00000E+0	3.43214E+1	3.41211E+1	0.00000E+0	0.00000E+0	1.95200E+1	1.35000E+1	1.95208E+1	1.35003E+1
94	10/05/2023	13:21:39.005	0.00000E+0	0.00000E+0	4.61363E+1	4.57190E+1	0.00000E+0	0.00000E+0	1.95200E+1	1.35000E+1	1.95179E+1	1.34992E+1
95	10/05/2023	13:21:40.507	0.00000E+0	0.00000E+0	3.49602E+1	3.65608E+1	0.00000E+0	0.00000E+0	1.95200E+1	1.35000E+1	1.95185E+1	1.35013E+1
96	10/05/2023	13:21:42.030	0.00000E+0	0.00000E+0	4.05846E+1	4.24205E+1	0.00000E+0	0.00000E+0	1.95200E+1	1.35000E+1	1.95194E+1	1.35004E+1
97	10/05/2023	13:21:43.531	0.00000E+0	0.00000E+0	5.23148E+1	5.25042E+1	0.00000E+0	0.00000E+0	1.95200E+1	1.35000E+1	1.95191E+1	1.35016E+1
98	10/05/2023	13:21:44.977	0.00000E+0	0.00000E+0	-2.86938E+1	-3.14926E+1	0.00000E+0	0.00000E+0	1.95200E+1	1.35000E+1	1.95208E+1	1.34974E+1
99	10/05/2023	13:21:46.569	0.00000E+0	0.00000E+0	-4.86101E+1	-4.94459E+1	0.00000E+0	0.00000E+0	1.95200E+1	1.35000E+1	1.95203E+1	1.35017E+1
100	10/05/2023	13:21:48.082	0.00000E+0	0.00000E+0	-4.26778E+1	-4.21005E+1	0.00000E+0	0.00000E+0	1.95200E+1	1.35000E+1	1.95205E+1	1.34998E+1
101	10/05/2023	13:21:49.662	0.00000E+0	0.00000E+0	-5.71524E+1	-5.96172E+1	0.00000E+0	0.00000E+0	1.95200E+1	1.35000E+1	1.95200E+1	1.35018E+1
102	10/05/2023	13:21:51.166	0.00000E+0	0.00000E+0	-4.86899E+1	-5.07752E+1	0.00000E+0	0.00000E+0	1.95200E+1	1.35000E+1	1.95207E+1	1.34985E+1
103	10/05/2023	13:21:52.627	0.00000E+0	0.00000E+0	-4.81982E+1	-4.76697E+1	0.00000E+0	0.00000E+0	1.95200E+1	1.35000E+1	1.95188E+1	1.35004E+1
104	10/05/2023	13:21:54.191	0.00000E+0	0.00000E+0	2.56721E+1	2.60064E+1	0.00000E+0	0.00000E+0	1.95200E+1	1.35000E+1	1.95199E+1	1.34993E+1
105	10/05/2023	13:21:55.655	0.00000E+0	0.00000E+0	5.43964E+1	5.39139E+1	0.00000E+0	0.00000E+0	1.95200E+1	1.35000E+1	1.95201E+1	1.35013E+1
106	10/05/2023	13:21:57.134	0.00000E+0	0.00000E+0	5.13060E+1	5.39591E+1	0.00000E+0	0.00000E+0	1.95200E+1	1.35000E+1	1.95203E+1	1.34995E+1
107	10/05/2023	13:21:58.739	0.00000E+0	0.00000E+0	5.53966E+1	5.41352E+1	0.00000E+0	0.00000E+0	1.95200E+1	1.35000E+1	1.95209E+1	1.34988E+1
108	10/05/2023	13:22:00.234	0.00000E+0	0.00000E+0	5.23709E+1	5.12795E+1	0.00000E+0	0.00000E+0	1.95200E+1	1.35000E+1	1.95179E+1	1.34989E+1
109	10/05/2023	13:22:01.755	0.00000E+0	0.00000E+0	2.57047E+1	2.49581E+1	0.00000E+0	0.00000E+0	1.95200E+1	1.35000E+1	1.95201E+1	1.34996E+1
110	10/05/2023	13:22:03.261	0.00000E+0	0.00000E+0	-4.07303E+1	-4.10174E+1	0.00000E+0	0.00000E+0	1.95200E+1	1.35000E+1	1.95206E+1	1.34999E+1
111	10/05/2023	13:22:04.760	0.00000E+0	0.00000E+0	-5.46819E+1	-5.59249E+1	0.00000E+0	0.00000E+0	1.95200E+1	1.35000E+1	1.95200E+1	1.35005E+1
112	10/05/2023	13:22:06.347	0.00000E+0	0.00000E+0	-3.85719E+1	-3.86338E+1	0.00000E+0	0.00000E+0	1.95200E+1	1.35000E+1	1.95224E+1	1.35003E+1
113	10/05/2023	13:22:07.833	0.00000E+0	0.00000E+0	2.41514E+0	3.42281E+0	0.00000E+0	0.00000E+0	1.95200E+1	1.35000E+1	1.95195E+1	1.35005E+1
114	10/05/2023	13:22:09.309	0.00000E+0	0.00000E+0	3.40784E+1	3.65253E+1	0.00000E+0	0.00000E+0	1.95200E+1	1.35000E+1	1.95189E+1	1.34974E+1
115	10/05/2023	13:22:10.792	0.00000E+0	0.00000E+0	4.10935E+1	4.13911E+1	0.00000E+0	0.00000E+0	1.95200E+1	1.35000E+1	1.95195E+1	1.35002E+1
116	10/05/2023	13:22:12.336	0.00000E+0	0.00000E+0	3.70354E+1	3.64563E+1	0.00000E+0	0.00000E+0	1.95200E+1	1.35000E+1	1.95182E+1	1.35011E+1
117	10/05/2023	13:22:13.893	0.00000E+0	0.00000E+0	2.19925E+1	2.12077E+1	0.00000E+0	0.00000E+0	1.95200E+1	1.35000E+1	1.95206E+1	1.35009E+1
118	10/05/2023	13:22:15.407	0.00000E+0	0.00000E+0	-3.12319E+1	-3.05953E+1	0.00000E+0	0.00000E+0	1.95200E+1	1.35000E+1	1.95181E+1	1.34987E+1
119	10/05/2023	13:22:16.872	0.00000E+0	0.00000E+0	-1.78260E-1	3.86431E+0	0.00000E+0	0.00000E+0	1.95200E+1	1.35000E+1	1.95210E+1	1.34994E+1
120	10/05/2023	13:22:18.439	0.00000E+0	0.00000E+0	2.78485E+1	2.75675E+1	0.00000E+0	0.00000E+0	1.95200E+1	1.35000E+1	1.95193E+1	1.35022E+1
121	10/05/2023	13:22:19.934	0.00000E+0	0.00000E+0	-2.48511E+1	-2.71593E+1	0.00000E+0	0.00000E+0	1.95200E+1	1.35000E+1	1.95214E+1	1.34981E+1
122	10/05/2023	13:22:21.501	0.00000E+0	0.00000E+0	-4.21280E+1	-4.11082E+1	0.00000E+0	0.00000E+0	1.95200E+1	1.35000E+1	1.95214E+1	1.35002E+1
123	10/05/2023	13:22:22.961	0.00000E+0	0.00000E+0	-4.21061E+1	-4.20614E+1	0.00000E+0	0.00000E+0	1.95200E+1	1.35000E+1	1.95184E+1	1.34998E+1
124	10/05/2023	13:22:24.431	0.00000E+0	0.00000E+0	4.54415E+0	5.33204E+0	0.00000E+0	0.00000E+0	1.95200E+1	1.35000E+1	1.95213E+1	1.35000E+1
125	10/05/2023	13:22:25.965	0.00000E+0	0.00000E+0	-6.51770E+0	-6.65028E+0	0.00000E+0	0.00000E+0	1.95200E+1	1.35000E+1	1.95215E+1	1.35013E+1
126	10/05/2023	13:22:27.450	0.00000E+0	0.00000E+0	-2.95115E+1	-2.94220E+1	0.00000E+0	0.00000E+0	1.95200E+1	1.35000E+1	1.95210E+1	1.34980E+1
127	10/05/2023	13:22:28.910	0.00000E+0	0.00000E+0	-3.32051E+1	-3.37280E+1	0.00000E+0	0.00000E+0	1.95200E+1	1.35000E+1	1.95217E+1	1.35006E+1
128	10/05/2023	13:22:30.504	0.00000E+0	0.00000E+0	-2.37196E+1	-2.31733E+1	0.00000E+0	0.00000E+0	1.95200E+1	1.35000E+1	1.95204E+1	1.35020E+1
129	10/05/2023	13:22:31.984	0.00000E+0	0.00000E+0	3.74711E+1	3.81095E+1	0.00000E+0	0.00000E+0	1.95200E+1	1.35000E+1	1.95209E+1	1.35010E+1
130	10/05/2023	13:22:33.486	0.00000E+0	0.00000E+0	6.42942E+1	6.43166E+1	0.00000E+0	0.00000E+0	1.95200E+1	1.35000E+1	1.95210E+1	1.34965E+1
131	10/05/2023	13:22:35.017	0.00000E+0	0.00000E+0	6.19740E+1	6.24997E+1	0.00000E+0	0.00000E+0	1.95200E+1	1.35000E+1	1.95192E+1	1.35016E+1
132	10/05/2023	13:22:36.515	0.00000E+0	0.00000E+0	-3.51399E+1	-3.71874E+1	0.00000E+0	0.00000E+0	1.95200E+1	1.35000E+1	1.95216E+1	1.34984E+1
133	10/05/2023	13:22:38.134	0.00000E+0	0.00000E+0	-9.13010E+1	-9.09987E+1	0.00000E+0	0.00000E+0	1.95200E+1	1.35000E+1	1.95205E+1	1.34975E+1
134	10/05/2023	13:22:39.631	0.00000E+0	0.00000E+0	-6.15339E+1	-5.97707E+1	0.00000E+0	0.00000E+0	1.95200E+1	1.35000E+1	1.95229E+1	1.35004E+1
135	10/05/2023	13:22:41.269	0.00000E+0	0.00000E+0	-4.74384E+1	-4.42488E+1	0.00000E+0	0.00000E+0	1.95200E+1	1.35000E+1	1.95206E+1	1.34974E+1
136	10/05/2023	13:22:42.753	0.00000E+0	0.00000E+0	5.44423E+1	5.53931E+1	0.00000E+0	0.00000E+0	1.95200E+1	1.35000E+1	1.95181E+1	1.35002E+1
137	10/05/2023	13:22:44.233	0.00000E+0	0.00000E+0	5.42640E+1	5.53665E+1	0.00000E+0	0.00000E+0	1.95200E+1	1.35000E+1	1.95190E+1	1.34997E+1
138	10/05/2023	13:22:45.853	0.00000E+0	0.00000E+0	5.48120E+1	5.42742E+1	0.00000E+0	0.00000E+0	1.95200E+1	1.35000E+1	1.95216E+1	1.35005E+1
139	10/05/2023	13:22:47.350	0.00000E+0	0.00000E+0	5.57205E+1	5.52336E+1	0.00000E+0	0.00000E+0	1.95200E+1	1.35000E+1	1.95195E+1	1.34992E+1
140	10/05/2023	13:22:48.849	0.00000E+0	0.00000E+0	2.75459E+1	2.79085E+1	0.00000E+0	0.00000E+0	1.95200E+1	1.35000E+1	1.95233E+1	1.34977E+1
141	10/05/2023	13:22:50.401	0.00000E+0	0.00000E+0	-8.35669E+1	-8.38229E+1	0.00000E+0	0.00000E+0	1.95200E+1	1.35000E+1	1.95207E+1	1.35007E+1
142	10/05/2023	13:22:51.868	0.00000E+0	0.00000E+0	-6.74085E+1	-7.20839E+1	0.00000E+0	0.00000E+0	1.95200E+1	1.35000E+1	1.95251E+1	1.35008E+1
143	10/05/2023	13:22:53.502	0.00000E+0	0.00000E+0	-5.54301E+1	-5.63606E+1	0.00000E+0	0.00000E+0	1.95200E+1	1.35000E+1	1.95219E+1	1.34996E+1
144	10/05/2023	13:22:54.981	0.00000E+0	0.00000E+0	3.37412E+1	3.60893E+1	0.00000E+0	0.00000E+0	1.95200E+1	1.35000E+1	1.95193E+1	1.34996E+1
145	10/05/2023	13:22:56.466	0.00000E+0	0.00000E+0	5.38210E+1	5.43698E+1	0.00000E+0	0.00000E+0	1.95200E+1	1.35000E+1	1.95226E+1	1.34989E+1
146	10/05/2023	13:22:58.051	0.00000E+0	0.00000E+0	4.09269E+1	3.91036E+1	0.00000E+0	0.00000E+0	1.95200E+1	1.35000E+1	1.95191E+1	1.35006E+1
147	10/05/2023	13:22:59.530	0.00000E+0	0.00000E+0	2.05201E+1	2.02237E+1	0.00000E+0	0.00000E+0	1.95200E+1	1.35000E+1	1.95185E+1	1.34989E+1
148	10/05/2023	13:23:00.992	0.00000E+0	0.00000E+0	-1.27286E+1	-1.26107E+1	0.00000E+0	0.00000E+0	1.95200E+1	1.35000E+1	1.95221E+1	1.35008E+1
149	10/05/2023	13:23:02.441	0.00000E+0	0.00000E+0	-7.03885E+0	-6.63371E+0	0.00000E+0	0.00000E+0	1.95200E+1	1.35000E+1	1.95198E+1	1.34997E+1
150	10/05/2023	13:23:03.940	0.00000E+0	0.00000E+0	-1.35226E+1	-1.42927E+1	0.00000E+0	0.00000E+0	1.95200E+1	1.35000E+1	1.95200E+1	1.34968E+1
151	10/05/2023	13:23:05.590	0.00000E+0	0.00000E+0	-1.86927E+1	-1.79961E+1	0.00000E+0	0.00000E+0	1.95200E+1	1.35000E+1	1.95217E+1	1.34986E+1
152	10/05/2023	13:23:07.066	0.00000E+0	0.00000E+0	-1.42261E+1	-1.42114E+1	0.00000E+0	0.00000E+0	1.95200E+1	1.35000E+1	1.95206E+1	1.35020E+1
153	10/05/2023	13:23:08.543	0.00000E+0	0.00000E+0	-1.40980E+1	-1.33668E+1	0.00000E+0	0.00000E+0	1.95200E+1	1.35000E+1	1.95205E+1	1.35005E+1
154	10/05/2023	13:23:10.149	0.00000E+0	0.00000E+0	-2.40614E+1	-2.33514E+1	0.00000E+0	0.00000E+0	1.95200E+1	1.35000E+1	1.95217E+1	1.34978E+1
155	10/05/2023	13:23:11.630	0.00000E+0	0.00000E+0	-2.18796E+1	-2.26267E+1	0.00000E+0	0.00000E+0	1.95200E+1	1.35000E+1	1.95207E+1	1.34987E+1
156	10/05/2023	13:23:13.188	0.00000E+0	0.00000E+0	-2.05978E+1	-1.95022E+1	0.00000E+0	0.00000E+0	1.95200E+1	1.35000E+1	1.95200E+1	1.35019E+1
157	10/05/2023	13:23:14.675	0.00000E+0	0.00000E+0	3.93534E+0	3.15700E+0	0.00000E+0	0.00000E+0	1.95200E+1	1.35000E+1	1.95199E+1	1.34989E+1
158	10/05/2023	13:23:16.172	0.00000E+0	0.00000E+0	1.31577E+1	1.39164E+1	0.00000E+0	0.00000E+0	1.95200E+1	1.35000E+1	1.95233E+1	1.35019E+1
159	10/05/2023	13:23:17.717	0.00000E+0	0.00000E+0	8.16159E+0	7.09620E+0	0.00000E+0	0.00000E+0	1.95200E+1	1.35000E+1	1.95222E+1	1.34976E+1
160	10/05/2023	13:23:19.217	0.00000E+0	0.00000E+0	5.29497E+0	5.10162E+0	0.00000E+0	0.00000E+0	1.95200E+1	1.35000E+1	1.95205E+1	1.34999E+1
161	10/05/2023	13:23:20.662	0.00000E+0	0.00000E+0	4.44674E+0	4.18769E+0	0.00000E+0	0.00000E+0	1.95200E+1	1.35000E+1	1.95186E+1	1.35006E+1
162	10/05/2023	13:23:22.233	0.00000E+0	0.00000E+0	1.66630E+1	1.61357E+1	0.00000E+0	0.00000E+0	1.95200E+1	1.35000E+1	1.95207E+1	1.35003E+1
163	10/05/2023	13:23:23.731	0.00000E+0	0.00000E+0	1.02954E+1	9.71999E+0	0.00000E+0	0.00000E+0	1.95200E+1	1.35000E+1	1.95198E+1	1.35007E+1
164	10/05/2023	13:23:25.285	0.00000E+0	0.00000E+0	8.86767E+0	8.85169E+0	0.00000E+0	0.00000E+0	1.95200E+1	1.35000E+1	1.95206E+1	1.34996E+1
165	10/05/2023	13:23:26.769	0.00000E+0	0.00000E+0	1.44437E+1	1.38308E+1	0.00000E+0	0.00000E+0	1.95200E+1	1.35000E+1	1.95202E+1	1.35010E+1
166	10/05/2023	13:23:28.259	0.00000E+0	0.00000E+0	1.48611E+1	1.50411E+1	0.00000E+0	0.00000E+0	1.95200E+1	1.35000E+1	1.95239E+1	1.35003E+1
167	10/05/2023	13:23:29.867	0.00000E+0	0.00000E+0	5.49899E+0	5.69023E+0	0.00000E+0	0.00000E+0	1.95200E+1	1.35000E+1	1.95212E+1	1.34993E+1
168	10/05/2023	13:23:31.383	0.00000E+0	0.00000E+0	1.76294E+1	1.80126E+1	0.00000E+0	0.00000E+0	1.95200E+1	1.35000E+1	1.95185E+1	1.34986E+1
169	10/05/2023	13:23:33.024	0.00000E+0	0.00000E+0	4.86189E+0	4.93985E+0	0.00000E+0	0.00000E+0	1.95200E+1	1.35000E+1	1.95219E+1	1.35008E+1
170	10/05/2023	13:23:34.517	0.00000E+0	0.00000E+0	1.16381E+1	1.18097E+1	0.00000E+0	0.00000E+0	1.95200E+1	1.35000E+1	1.95178E+1	1.35019E+1
171	10/05/2023	13:23:35.991	0.00000E+0	0.00000E+0	7.83356E+0	5.39526E+0	0.00000E+0	0.00000E+0	1.95200E+1	1.35000E+1	1.95207E+1	1.34979E+1
172	10/05/2023	13:23:37.662	0.00000E+0	0.00000E+0	4.50271E+0	5.95625E+0	0.00000E+0	0.00000E+0	1.95200E+1	1.35000E+1	1.95187E+1	1.35002E+1
173	10/05/2023	13:23:39.141	0.00000E+0	0.00000E+0	2.71742E+1	2.80445E+1	0.00000E+0	0.00000E+0	1.95200E+1	1.35000E+1	1.95194E+1	1.34994E+1
174	10/05/2023	13:23:40.708	0.00000E+0	0.00000E+0	2.70008E-1	3.55009E-1	0.00000E+0	0.00000E+0	1.95200E+1	1.35000E+1	1.95215E+1	1.34996E+1
175	10/05/2023	13:23:42.292	0.00000E+0	0.00000E+0	1.06471E+1	1.04946E+1	0.00000E+0	0.00000E+0	1.95200E+1	1.35000E+1	1.95192E+1	1.35013E+1
176	10/05/2023	13:23:43.748	0.00000E+0	0.00000E+0	1.68480E+1	1.69556E+1	0.00000E+0	0.00000E+0	1.95200E+1	1.35000E+1	1.95212E+1	1.34987E+1
177	10/05/2023	13:23:45.238	0.00000E+0	0.00000E+0	4.11408E+0	4.64048E+0	0.00000E+0	0.00000E+0	1.95200E+1	1.35000E+1	1.95191E+1	1.34995E+1
178	10/05/2023	13:23:46.734	0.00000E+0	0.00000E+0	1.25521E+1	1.31054E+1	0.00000E+0	0.00000E+0	1.95200E+1	1.35000E+1	1.95191E+1	1.34981E+1
179	10/05/2023	13:23:48.209	0.00000E+0	0.00000E+0	-5.82331E+0	-5.33837E+0	0.00000E+0	0.00000E+0	1.95200E+1	1.35000E+1	1.95211E+1	1.35019E+1
180	10/05/2023	13:23:49.831	0.00000E+0	0.00000E+0	-2.72158E+1	-2.76332E+1	0.00000E+0	0.00000E+0	1.95200E+1	1.35000E+1	1.95208E+1	1.34974E+1
181	10/05/2023	13:23:51.289	0.00000E+0	0.00000E+0	-3.44971E+1	-3.49004E+1	0.00000E+0	0.00000E+0	1.95200E+1	1.35000E+1	1.95197E+1	1.35002E+1
182	10/05/2023	13:23:52.777	0.00000E+0	0.00000E+0	-5.04885E+1	-5.11782E+1	0.00000E+0	0.00000E+0	1.95200E+1	1.35000E+1	1.95199E+1	1.34997E+1
183	10/05/2023	13:23:54.256	0.00000E+0	0.00000E+0	-6.54895E+1	-6.81420E+1	0.00000E+0	0.00000E+0	1.95200E+1	1.35000E+1	1.95188E+1	1.34997E+1
184	10/05/2023	13:23:55.746	0.00000E+0	0.00000E+0	-3.38742E+1	-3.12449E+1	0.00000E+0	0.00000E+0	1.95200E+1	1.35000E+1	1.95214E+1	1.34994E+1
185	10/05/2023	13:23:57.223	0.00000E+0	0.00000E+0	-3.52547E+1	-3.42543E+1	0.00000E+0	0.00000E+0	1.95200E+1	1.35000E+1	1.95194E+1	1.35007E+1
186	10/05/2023	13:23:58.702	0.00000E+0	0.00000E+0	-7.25529E+0	-8.99471E+0	0.00000E+0	0.00000E+0	1.95200E+1	1.35000E+1	1.95180E+1	1.35010E+1
187	10/05/2023	13:24:00.467	0.00000E+0	0.00000E+0	-1.21499E+1	-1.15878E+1	0.00000E+0	0.00000E+0	1.95200E+1	1.35000E+1	1.95205E+1	1.34994E+1
188	10/05/2023	13:24:02.072	0.00000E+0	0.00000E+0	1.31186E+1	1.78603E+1	0.00000E+0	0.00000E+0	1.95200E+1	1.35000E+1	1.95178E+1	1.34995E+1
189	10/05/2023	13:24:03.562	0.00000E+0	0.00000E+0	3.09183E+1	3.13508E+1	0.00000E+0	0.00000E+0	1.95200E+1	1.35000E+1	1.95215E+1	1.35012E+1
190	10/05/2023	13:24:05.109	0.00000E+0	0.00000E+0	5.38561E+1	4.85547E+1	0.00000E+0	0.00000E+0	1.95200E+1	1.35000E+1	1.95207E+1	1.34992E+1
191	10/05/2023	13:24:06.574	0.00000E+0	0.00000E+0	3.57560E+1	3.75303E+1	0.00000E+0	0.00000E+0	1.95200E+1	1.35000E+1	1.95197E+1	1.35002E+1
192	10/05/2023	13:24:08.054	0.00000E+0	0.00000E+0	3.23522E+1	3.42910E+1	0.00000E+0	0.00000E+0	1.95200E+1	1.35000E+1	1.95214E+1	1.34997E+1
193	10/05/2023	13:24:09.560	0.00000E+0	0.00000E+0	6.02910E+1	5.99056E+1	0.00000E+0	0.00000E+0	1.95200E+1	1.35000E+1	1.95202E+1	1.34991E+1
194	10/05/2023	13:24:11.059	0.00000E+0	0.00000E+0	4.25906E+1	4.08611E+1	0.00000E+0	0.00000E+0	1.95200E+1	1.35000E+1	1.95206E+1	1.35003E+1
195	10/05/2023	13:24:12.551	0.00000E+0	0.00000E+0	-5.45367E+1	-5.90626E+1	0.00000E+0	0.00000E+0	1.95200E+1	1.35000E+1	1.95224E+1	1.35008E+1
196	10/05/2023	13:24:14.126	0.00000E+0	0.00000E+0	-7.25826E+1	-7.46307E+1	0.00000E+0	0.00000E+0	1.95200E+1	1.35000E+1	1.95230E+1	1.35003E+1
197	10/05/2023	13:24:15.630	0.00000E+0	0.00000E+0	-7.53922E+1	-7.66503E+1	0.00000E+0	0.00000E+0	1.95200E+1	1.35000E+1	1.95234E+1	1.34990E+1
198	10/05/2023	13:24:17.253	0.00000E+0	0.00000E+0	-4.74614E+1	-4.45332E+1	0.00000E+0	0.00000E+0	1.95200E+1	1.35000E+1	1.95201E+1	1.35010E+1
199	10/05/2023	13:24:18.736	0.00000E+0	0.00000E+0	5.71488E+1	6.04637E+1	0.00000E+0	0.00000E+0	1.95200E+1	1.35000E+1	1.95201E+1	1.34987E+1
200	10/05/2023	13:24:20.290	0.00000E+0	0.00000E+0	6.99427E+1	6.94838E+1	0.00000E+0	0.00000E+0	1.95200E+1	1.35000E+1	1.95211E+1	1.34998E+1
201	10/05/2023	13:24:21.858	0.00000E+0	0.00000E+0	7.66291E+1	8.03490E+1	0.00000E+0	0.00000E+0	1.95200E+1	1.35000E+1	1.95223E+1	1.35002E+1
202	10/05/2023	13:24:23.379	0.00000E+0	0.00000E+0	5.20733E+1	4.90394E+1	0.00000E+0	0.00000E+0	1.95200E+1	1.35000E+1	1.95191E+1	1.35013E+1
203	10/05/2023	13:24:24.917	0.00000E+0	0.00000E+0	-7.58560E+1	-7.92178E+1	0.00000E+0	0.00000E+0	1.95200E+1	1.35000E+1	1.95209E+1	1.34997E+1
204	10/05/2023	13:24:26.386	0.00000E+0	0.00000E+0	-4.92503E+1	-5.08867E+1	0.00000E+0	0.00000E+0	1.95200E+1	1.35000E+1	1.95206E+1	1.35017E+1
205	10/05/2023	13:24:27.869	0.00000E+0	0.00000E+0	-2.39152E+1	-2.52577E+1	0.00000E+0	0.00000E+0	1.95200E+1	1.35000E+1	1.95202E+1	1.35006E+1
206	10/05/2023	13:24:29.410	0.00000E+0	0.00000E+0	-4.05753E+1	-4.28356E+1	0.00000E+0	0.00000E+0	1.95200E+1	1.35000E+1	1.95204E+1	1.34998E+1
207	10/05/2023	13:24:30.888	0.00000E+0	0.00000E+0	2.82676E+1	3.18969E+1	0.00000E+0	0.00000E+0	1.95200E+1	1.35000E+1	1.95194E+1	1.34991E+1
208	10/05/2023	13:24:32.334	0.00000E+0	0.00000E+0	4.96270E+1	5.25909E+1	0.00000E+0	0.00000E+0	1.95200E+1	1.35000E+1	1.95192E+1	1.34987E+1
209	10/05/2023	13:24:33.901	0.00000E+0	0.00000E+0	7.54865E+1	7.56349E+1	0.00000E+0	0.00000E+0	1.95200E+1	1.35000E+1	1.95208E+1	1.34989E+1
210	10/05/2023	13:24:35.369	0.00000E+0	0.00000E+0	7.82550E+1	7.57792E+1	0.00000E+0	0.00000E+0	1.95200E+1	1.35000E+1	1.95206E+1	1.34999E+1
211	10/05/2023	13:24:36.923	0.00000E+0	0.00000E+0	-8.07771E+1	-8.50838E+1	0.00000E+0	0.00000E+0	1.95200E+1	1.35000E+1	1.95208E+1	1.34998E+1
212	10/05/2023	13:24:38.397	0.00000E+0	0.00000E+0	-7.52013E+1	-7.51261E+1	0.00000E+0	0.00000E+0	1.95200E+1	1.35000E+1	1.95168E+1	1.35021E+1
213	10/05/2023	13:24:39.868	0.00000E+0	0.00000E+0	-3.32389E+1	-3.38764E+1	0.00000E+0	0.00000E+0	1.95200E+1	1.35000E+1	1.95211E+1	1.34995E+1
214	10/05/2023	13:24:41.418	0.00000E+0	0.00000E+0	-5.52971E+1	-5.66390E+1	0.00000E+0	0.00000E+0	1.95200E+1	1.35000E+1	1.95236E+1	1.34986E+1
215	10/05/2023	13:24:42.912	0.00000E+0	0.00000E+0	3.83220E+1	4.37847E+1	0.00000E+0	0.00000E+0	1.95200E+1	1.35000E+1	1.95211E+1	1.34997E+1
216	10/05/2023	13:24:44.367	0.00000E+0	0.00000E+0	4.21161E+1	4.46490E+1	0.00000E+0	0.00000E+0	1.95200E+1	1.35000E+1	1.95212E+1	1.35000E+1
217	10/05/2023	13:24:45.842	0.00000E+0	0.00000E+0	6.30444E+1	6.58025E+1	0.00000E+0	0.00000E+0	1.95200E+1	1.35000E+1	1.95197E+1	1.35012E+1
218	10/05/2023	13:24:47.316	0.00000E+0	0.00000E+0	4.85584E+1	4.89490E+1	0.00000E+0	0.00000E+0	1.95200E+1	1.35000E+1	1.95197E+1	1.34999E+1
219	10/05/2023	13:24:48.870	0.00000E+0	0.00000E+0	4.19098E+1	4.19784E+1	0.00000E+0	0.00000E+0	1.95200E+1	1.35000E+1	1.95224E+1	1.34994E+1
220	10/05/2023	13:24:50.360	0.00000E+0	0.00000E+0	1.56005E+1	1.03955E+1	0.00000E+0	0.00000E+0	1.95200E+1	1.35000E+1	1.95228E+1	1.34980E+1
221	10/05/2023	13:24:51.840	0.00000E+0	0.00000E+0	-4.37742E+1	-4.46070E+1	0.00000E+0	0.00000E+0	1.95200E+1	1.35000E+1	1.95200E+1	1.35004E+1
222	10/05/2023	13:24:53.406	0.00000E+0	0.00000E+0	-3.70595E+1	-3.65423E+1	0.00000E+0	0.00000E+0	1.95200E+1	1.35000E+1	1.95202E+1	1.34974E+1
223	10/05/2023	13:24:54.855	0.00000E+0	0.00000E+0	-4.15358E+1	-4.18520E+1	0.00000E+0	0.00000E+0	1.95200E+1	1.35000E+1	1.95205E+1	1.35002E+1
224	10/05/2023	13:24:56.386	0.00000E+0	0.00000E+0	-3.97379E+1	-3.75265E+1	0.00000E+0	0.00000E+0	1.95200E+1	1.35000E+1	1.95198E+1	1.35005E+1
225	10/05/2023	13:24:57.843	0.00000E+0	0.00000E+0	-5.09612E+1	-5.07126E+1	0.00000E+0	0.00000E+0	1.95200E+1	1.35000E+1	1.95213E+1	1.34989E+1
226	10/05/2023	13:24:59.329	0.00000E+0	0.00000E+0	-3.98079E+1	-3.50582E+1	0.00000E+0	0.00000E+0	1.95200E+1	1.35000E+1	1.95211E+1	1.34992E+1
227	10/05/2023	13:25:00.915	0.00000E+0	0.00000E+0	5.49000E+1	5.38738E+1	0.00000E+0	0.00000E+0	1.95200E+1	1.35000E+1	1.95220E+1	1.34991E+1
228	10/05/2023	13:25:02.393	0.00000E+0	0.00000E+0	-1.95879E+1	-2.24937E+1	0.00000E+0	0.00000E+0	1.95200E+1	1.35000E+1	1.95201E+1	1.34998E+1
229	10/05/2023	13:25:03.843	0.00000E+0	0.00000E+0	-5.08764E+1	-5.18045E+1	0.00000E+0	0.00000E+0	1.95200E+1	1.35000E+1	1.95219E+1	1.35029E+1
230	10/05/2023	13:25:05.374	0.00000E+0	0.00000E+0	3.89795E+1	4.17275E+1	0.00000E+0	0.00000E+0	1.95200E+1	1.35000E+1	1.95202E+1	1.34984E+1
231	10/05/2023	13:25:06.841	0.00000E+0	0.00000E+0	5.12159E+1	5.40054E+1	0.00000E+0	0.00000E+0	1.95200E+1	1.35000E+1	1.95201E+1	1.35002E+1
232	10/05/2023	13:25:08.364	0.00000E+0	0.00000E+0	6.39143E+1	6.39556E+1	0.00000E+0	0.00000E+0	1.95200E+1	1.35000E+1	1.95210E+1	1.35006E+1
233	10/05/2023	13:25:09.851	0.00000E+0	0.00000E+0	5.25532E+1	5.57876E+1	0.00000E+0	0.00000E+0	1.95200E+1	1.35000E+1	1.95208E+1	1.34991E+1
234	10/05/2023	13:25:11.312	0.00000E+0	0.00000E+0	5.05465E+1	5.18820E+1	0.00000E+0	0.00000E+0	1.95200E+1	1.35000E+1	1.95174E+1	1.35020E+1
235	10/05/2023	13:25:12.872	0.00000E+0	0.00000E+0	-4.78109E+1	-5.04051E+1	0.00000E+0	0.00000E+0	1.95200E+1	1.35000E+1	1.95204E+1	1.35000E+1
236	10/05/2023	13:25:14.341	0.00000E+0	0.00000E+0	-6.51616E+1	-6.68255E+1	0.00000E+0	0.00000E+0	1.95200E+1	1.35000E+1	1.95198E+1	1.34983E+1
237	10/05/2023	13:25:15.886	0.00000E+0	0.00000E+0	-4.85997E+1	-4.72805E+1	0.00000E+0	0.00000E+0	1.95200E+1	1.35000E+1	1.95216E+1	1.35002E+1
238	10/05/2023	13:25:17.439	0.00000E+0	0.00000E+0	-3.90685E+1	-3.82057E+1	0.00000E+0	0.00000E+0	1.95200E+1	1.35000E+1	1.95186E+1	1.35009E+1
239	10/05/2023	13:25:18.905	0.00000E+0	0.00000E+0	-3.39921E+1	-3.56752E+1	0.00000E+0	0.00000E+0	1.95200E+1	1.35000E+1	1.95188E+1	1.35007E+1
240	10/05/2023	13:25:20.380	0.00000E+0	0.00000E+0	4.12517E+0	8.94524E+0	0.00000E+0	0.00000E+0	1.95200E+1	1.35000E+1	1.95183E+1	1.34986E+1
241	10/05/2023	13:25:21.878	0.00000E+0	0.00000E+0	4.54258E+1	4.08244E+1	0.00000E+0	0.00000E+0	1.95200E+1	1.35000E+1	1.95180E+1	1.34983E+1
242	10/05/2023	13:25:23.360	0.00000E+0	0.00000E+0	6.96250E+1	7.70031E+1	0.00000E+0	0.00000E+0	1.95200E+1	1.35000E+1	1.95205E+1	1.34997E+1
243	10/05/2023	13:25:24.967	0.00000E+0	0.00000E+0	-3.40039E+1	-3.90727E+1	0.00000E+0	0.00000E+0	1.95200E+1	1.35000E+1	1.95221E+1	1.34984E+1
244	10/05/2023	13:25:26.408	0.00000E+0	0.00000E+0	-7.50386E+1	-7.66565E+1	0.00000E+0	0.00000E+0	1.95200E+1	1.35000E+1	1.95201E+1	1.34993E+1
245	10/05/2023	13:25:27.886	0.00000E+0	0.00000E+0	-4.55325E+1	-4.41916E+1	0.00000E+0	0.00000E+0	1.95200E+1	1.35000E+1	1.95208E+1	1.34984E+1
246	10/05/2023	13:25:29.332	0.00000E+0	0.00000E+0	-4.59308E+1	-4.24710E+1	0.00000E+0	0.00000E+0	1.95200E+1	1.35000E+1	1.95197E+1	1.35004E+1
247	10/05/2023	13:25:30.776	0.00000E+0	0.00000E+0	6.58241E+1	6.65934E+1	0.00000E+0	0.00000E+0	1.95200E+1	1.35000E+1	1.95181E+1	1.35008E+1
248	10/05/2023	13:25:32.338	0.00000E+0	0.00000E+0	7.15881E+1	7.39501E+1	0.00000E+0	0.00000E+0	1.95200E+1	1.35000E+1	1.95197E+1	1.35020E+1
249	10/05/2023	13:25:33.842	0.00000E+0	0.00000E+0	7.40903E+1	7.62820E+1	0.00000E+0	0.00000E+0	1.95200E+1	1.35000E+1	1.95193E+1	1.35002E+1
250	10/05/2023	13:25:35.300	0.00000E+0	0.00000E+0	-5.78558E+1	-6.44002E+1	0.00000E+0	0.00000E+0	1.95200E+1	1.35000E+1	1.95199E+1	1.35003E+1
251	10/05/2023	13:25:36.747	0.00000E+0	0.00000E+0	-8.93034E+1	-9.14326E+1	0.00000E+0	0.00000E+0	1.95200E+1	1.35000E+1	1.95201E+1	1.35025E+1
252	10/05/2023	13:25:38.215	0.00000E+0	0.00000E+0	-7.33741E+1	-7.78542E+1	0.00000E+0	0.00000E+0	1.95200E+1	1.35000E+1	1.95197E+1	1.34986E+1
253	10/05/2023	13:25:39.684	0.00000E+0	0.00000E+0	6.15520E+0	1.52362E+1	0.00000E+0	0.00000E+0	1.95200E+1	1.35000E+1	1.95190E+1	1.34975E+1
254	10/05/2023	13:25:41.131	0.00000E+0	0.00000E+0	6.35417E+1	6.50478E+1	0.00000E+0	0.00000E+0	1.95200E+1	1.35000E+1	1.95214E+1	1.34994E+1
255	10/05/2023	13:25:42.616	0.00000E+0	0.00000E+0	8.88550E+1	9.03978E+1	0.00000E+0	0.00000E+0	1.95200E+1	1.35000E+1	1.95201E+1	1.35013E+1
256	10/05/2023	13:25:44.170	0.00000E+0	0.00000E+0	6.13380E+1	6.28671E+1	0.00000E+0	0.00000E+0	1.95200E+1	1.35000E+1	1.95210E+1	1.34998E+1
257	10/05/2023	13:25:45.635	0.00000E+0	0.00000E+0	4.19391E+1	4.19193E+1	0.00000E+0	0.00000E+0	1.95200E+1	1.35000E+1	1.95174E+1	1.34995E+1
258	10/05/2023	13:25:47.152	0.00000E+0	0.00000E+0	-7.21115E+1	-7.42915E+1	0.00000E+0	0.00000E+0	1.95200E+1	1.35000E+1	1.95199E+1	1.35018E+1
259	10/05/2023	13:25:48.635	0.00000E+0	0.00000E+0	-9.65461E+1	-1.00515E+2	0.00000E+0	0.00000E+0	1.95200E+1	1.35000E+1	1.95178E+1	1.34992E+1
260	10/05/2023	13:25:50.120	0.00000E+0	0.00000E+0	-7.44975E+1	-7.68501E+1	0.00000E+0	0.00000E+0	1.95200E+1	1.35000E+1	1.95207E+1	1.35000E+1
261	10/05/2023	13:25:51.661	0.00000E+0	0.00000E+0	2.78446E+1	3.39853E+1	0.00000E+0	0.00000E+0	1.95200E+1	1.35000E+1	1.95206E+1	1.35022E+1
262	10/05/2023	13:25:53.139	0.00000E+0	0.00000E+0	8.31832E+1	8.64330E+1	0.00000E+0	0.00000E+0	1.95200E+1	1.35000E+1	1.95213E+1	1.34982E+1
263	10/05/2023	13:25:54.608	0.00000E+0	0.00000E+0	7.10054E+1	7.07453E+1	0.00000E+0	0.00000E+0	1.95200E+1	1.35000E+1	1.95199E+1	1.34994E+1
264	10/05/2023	13:25:56.153	0.00000E+0	0.00000E+0	3.14335E+1	3.26298E+1	0.00000E+0	0.00000E+0	1.95200E+1	1.35000E+1	1.95203E+1	1.34995E+1
265	10/05/2023	13:25:57.629	0.00000E+0	0.00000E+0	-6.92876E+0	-7.49934E+0	0.00000E+0	0.00000E+0	1.95200E+1	1.35000E+1	1.95205E+1	1.35031E+1
266	10/05/2023	13:25:59.202	0.00000E+0	0.00000E+0	-1.25457E+1	-1.19428E+1	0.00000E+0	0.00000E+0	1.95200E+1	1.35000E+1	1.95192E+1	1.35025E+1
267	10/05/2023	13:26:00.667	0.00000E+0	0.00000E+0	-2.49669E+1	-2.49696E+1	0.00000E+0	0.00000E+0	1.95200E+1	1.35000E+1	1.95194E+1	1.35003E+1
268	10/05/2023	13:26:02.129	0.00000E+0	0.00000E+0	-6.55388E-1	-1.13969E-1	0.00000E+0	0.00000E+0	1.95200E+1	1.35000E+1	1.95193E+1	1.34990E+1
269	10/05/2023	13:26:03.686	0.00000E+0	0.00000E+0	-1.82212E+1	-1.97452E+1	0.00000E+0	0.00000E+0	1.95200E+1	1.35000E+1	1.95202E+1	1.35017E+1
270	10/05/2023	13:26:05.164	0.00000E+0	0.00000E+0	-1.56831E+1	-1.53467E+1	0.00000E+0	0.00000E+0	1.95200E+1	1.35000E+1	1.95195E+1	1.35005E+1
271	10/05/2023	13:26:06.663	0.00000E+0	0.00000E+0	-3.14681E+1	-3.11835E+1	0.00000E+0	0.00000E+0	1.95200E+1	1.35000E+1	1.95196E+1	1.35015E+1
272	10/05/2023	13:26:08.182	0.00000E+0	0.00000E+0	-1.54592E+1	-1.48486E+1	0.00000E+0	0.00000E+0	1.95200E+1	1.35000E+1	1.95196E+1	1.34983E+1
273	10/05/2023	13:26:09.658	0.00000E+0	0.00000E+0	-6.43902E+0	-6.39675E+0	0.00000E+0	0.00000E+0	1.95200E+1	1.35000E+1	1.95220E+1	1.34994E+1
274	10/05/2023	13:26:11.173	0.00000E+0	0.00000E+0	-2.74817E+1	-2.65939E+1	0.00000E+0	0.00000E+0	1.95200E+1	1.35000E+1	1.95218E+1	1.34997E+1
275	10/05/2023	13:26:12.643	0.00000E+0	0.00000E+0	-1.46832E+1	-1.46313E+1	0.00000E+0	0.00000E+0	1.95200E+1	1.35000E+1	1.95201E+1	1.35012E+1
276	10/05/2023	13:26:14.115	0.00000E+0	0.00000E+0	-2.61836E+1	-2.49977E+1	0.00000E+0	0.00000E+0	1.95200E+1	1.35000E+1	1.95219E+1	1.35012E+1
277	10/05/2023	13:26:15.683	0.00000E+0	0.00000E+0	1.79933E+1	1.62747E+1	0.00000E+0	0.00000E+0	1.95200E+1	1.35000E+1	1.95223E+1	1.34991E+1
278	10/05/2023	13:26:17.127	0.00000E+0	0.00000E+0	2.22475E+1	2.20468E+1	0.00000E+0	0.00000E+0	1.95200E+1	1.35000E+1	1.95211E+1	1.35020E+1
279	10/05/2023	13:26:18.622	0.00000E+0	0.00000E+0	9.08771E+0	7.30207E+0	0.00000E+0	0.00000E+0	1.95200E+1	1.35000E+1	1.95209E+1	1.34996E+1
280	10/05/2023	13:26:20.071	0.00000E+0	0.00000E+0	4.39469E+0	4.45413E+0	0.00000E+0	0.00000E+0	1.95200E+1	1.35000E+1	1.95209E+1	1.35002E+1
281	10/05/2023	13:26:21.551	0.00000E+0	0.00000E+0	1.64362E+1	1.57752E+1	0.00000E+0	0.00000E+0	1.95200E+1	1.35000E+1	1.95208E+1	1.35010E+1
282	10/05/2023	13:26:23.123	0.00000E+0	0.00000E+0	9.05444E+0	8.71171E+0	0.00000E+0	0.00000E+0	1.95200E+1	1.35000E+1	1.95178E+1	1.34997E+1
283	10/05/2023	13:26:24.610	0.00000E+0	0.00000E+0	1.13530E+1	1.06002E+1	0.00000E+0	0.00000E+0	1.95200E+1	1.35000E+1	1.95212E+1	1.35007E+1
284	10/05/2023	13:26:26.062	0.00000E+0	0.00000E+0	2.12596E+1	2.18688E+1	0.00000E+0	0.00000E+0	1.95200E+1	1.35000E+1	1.95210E+1	1.35000E+1
285	10/05/2023	13:26:27.538	0.00000E+0	0.00000E+0	3.13018E+1	2.98308E+1	0.00000E+0	0.00000E+0	1.95200E+1	1.35000E+1	1.95184E+1	1.35008E+1
286	10/05/2023	13:26:29.049	0.00000E+0	0.00000E+0	3.19512E+1	3.11665E+1	0.00000E+0	0.00000E+0	1.95200E+1	1.35000E+1	1.95196E+1	1.34991E+1
287	10/05/2023	13:26:30.577	0.00000E+0	0.00000E+0	2.48994E+1	2.52367E+1	0.00000E+0	0.00000E+0	1.95200E+1	1.35000E+1	1.95202E+1	1.35005E+1
288	10/05/2023	13:26:32.026	0.00000E+0	0.00000E+0	4.17464E+1	3.96226E+1	0.00000E+0	0.00000E+0	1.95200E+1	1.35000E+1	1.95176E+1	1.35007E+1
289	10/05/2023	13:26:33.509	0.00000E+0	0.00000E+0	2.59158E+1	2.49205E+1	0.00000E+0	0.00000E+0	1.95200E+1	1.35000E+1	1.95169E+1	1.35005E+1
290	10/05/2023	13:26:35.058	0.00000E+0	0.00000E+0	-1.81452E+1	-2.22589E+1	0.00000E+0	0.00000E+0	1.95200E+1	1.35000E+1	1.95183E+1	1.35006E+1
291	10/05/2023	13:26:36.534	0.00000E+0	0.00000E+0	-5.96469E+1	-5.94282E+1	0.00000E+0	0.00000E+0	1.95200E+1	1.35000E+1	1.95193E+1	1.34999E+1
292	10/05/2023	13:26:38.052	0.00000E+0	0.00000E+0	-8.29900E+1	-8.33481E+1	0.00000E+0	0.00000E+0	1.95200E+1	1.35000E+1	1.95193E+1	1.34992E+1
293	10/05/2023	13:26:39.525	0.00000E+0	0.00000E+0	-6.35447E+1	-6.24004E+1	0.00000E+0	0.00000E+0	1.95200E+1	1.35000E+1	1.95181E+1	1.34993E+1
294	10/05/2023	13:26:41.009	0.00000E+0	0.00000E+0	-3.25305E+1	-3.12048E+1	0.00000E+0	0.00000E+0	1.95200E+1	1.35000E+1	1.95190E+1	1.34997E+1
295	10/05/2023	13:26:42.551	0.00000E+0	0.00000E+0	4.83109E+1	5.61487E+1	0.00000E+0	0.00000E+0	1.95200E+1	1.35000E+1	1.95195E+1	1.35008E+1
296	10/05/2023	13:26:44.018	0.00000E+0	0.00000E+0	5.46835E+1	5.68772E+1	0.00000E+0	0.00000E+0	1.95200E+1	1.35000E+1	1.95222E+1	1.35007E+1
297	10/05/2023	13:26:45.489	0.00000E+0	0.00000E+0	6.97599E+1	6.92202E+1	0.00000E+0	0.00000E+0	1.95200E+1	1.35000E+1	1.95173E+1	1.34988E+1
298	10/05/2023	13:26:47.036	0.00000E+0	0.00000E+0	5.38968E+1	5.22777E+1	0.00000E+0	0.00000E+0	1.95200E+1	1.35000E+1	1.95213E+1	1.35004E+1
299	10/05/2023	13:26:48.496	0.00000E+0	0.00000E+0	3.13101E+1	2.96006E+1	0.00000E+0	0.00000E+0	1.95200E+1	1.35000E+1	1.95208E+1	1.35011E+1
300	10/05/2023	13:26:50.048	0.00000E+0	0.00000E+0	-5.55664E+1	-5.76256E+1	0.00000E+0	0.00000E+0	1.95200E+1	1.35000E+1	1.95202E+1	1.34992E+1
301	10/05/2023	13:26:51.524	0.00000E+0	0.00000E+0	-8.30183E+1	-8.59142E+1	0.00000E+0	0.00000E+0	1.95200E+1	1.35000E+1	1.95198E+1	1.35036E+1
302	10/05/2023	13:26:53.003	0.00000E+0	0.00000E+0	-7.85163E+1	-7.90989E+1	0.00000E+0	0.00000E+0	1.95200E+1	1.35000E+1	1.95207E+1	1.35010E+1
303	10/05/2023	13:26:54.535	0.00000E+0	0.00000E+0	-5.58615E+1	-5.66711E+1	0.00000E+0	0.00000E+0	1.95200E+1	1.35000E+1	1.95208E+1	1.35008E+1
304	10/05/2023	13:26:56.034	0.00000E+0	0.00000E+0	4.18226E+1	4.02608E+1	0.00000E+0	0.00000E+0	1.95200E+1	1.35000E+1	1.95205E+1	1.34988E+1
305	10/05/2023	13:26:57.553	0.00000E+0	0.00000E+0	5.63596E+1	5.61453E+1	0.00000E+0	0.00000E+0	1.95200E+1	1.35000E+1	1.95176E+1	1.35004E+1
306	10/05/2023	13:26:59.069	0.00000E+0	0.00000E+0	6.36719E+1	6.76504E+1	0.00000E+0	0.00000E+0	1.95200E+1	1.35000E+1	1.95193E+1	1.35013E+1
307	10/05/2023	13:27:00.537	0.00000E+0	0.00000E+0	7.25619E+1	7.43580E+1	0.00000E+0	0.00000E+0	1.95200E+1	1.35000E+1	1.95215E+1	1.35022E+1
308	10/05/2023	13:27:02.006	0.00000E+0	0.00000E+0	3.71523E+1	3.70047E+1	0.00000E+0	0.00000E+0	1.95200E+1	1.35000E+1	1.95212E+1	1.34994E+1
309	10/05/2023	13:27:03.527	0.00000E+0	0.00000E+0	-1.74494E+1	-2.06110E+1	0.00000E+0	0.00000E+0	1.95200E+1	1.35000E+1	1.95223E+1	1.34975E+1
310	10/05/2023	13:27:04.978	0.00000E+0	0.00000E+0	-7.59578E+1	-7.74149E+1	0.00000E+0	0.00000E+0	1.95200E+1	1.35000E+1	1.95171E+1	1.35014E+1
311	10/05/2023	13:27:06.538	0.00000E+0	0.00000E+0	-7.42896E+1	-7.45213E+1	0.00000E+0	0.00000E+0	1.95200E+1	1.35000E+1	1.95174E+1	1.35010E+1
312	10/05/2023	13:27:08.019	0.00000E+0	0.00000E+0	-7.65644E+1	-7.74120E+1	0.00000E+0	0.00000E+0	1.95200E+1	1.35000E+1	1.95216E+1	1.34997E+1
313	10/05/2023	13:27:09.533	0.00000E+0	0.00000E+0	1.04586E+0	7.78567E+0	0.00000E+0	0.00000E+0	1.95200E+1	1.35000E+1	1.95205E+1	1.35016E+1
314	10/05/2023	13:27:11.011	0.00000E+0	0.00000E+0	6.29378E+1	6.34080E+1	0.00000E+0	0.00000E+0	1.95200E+1	1.35000E+1	1.95174E+1	1.34995E+1
315	10/05/2023	13:27:12.488	0.00000E+0	0.00000E+0	5.11642E+1	5.11648E+1	0.00000E+0	0.00000E+0	1.95200E+1	1.35000E+1	1.95205E+1	1.35015E+1
316	10/05/2023	13:27:14.033	0.00000E+0	0.00000E+0	7.64558E+1	7.73430E+1	0.00000E+0	0.00000E+0	1.95200E+1	1.35000E+1	1.95208E+1	1.34985E+1
317	10/05/2023	13:27:15.542	0.00000E+0	0.00000E+0	5.63896E+1	5.63166E+1	0.00000E+0	0.00000E+0	1.95200E+1	1.35000E+1	1.95214E+1	1.34989E+1
318	10/05/2023	13:27:17.011	0.00000E+0	0.00000E+0	-6.80782E+0	-1.18138E+1	0.00000E+0	0.00000E+0	1.95200E+1	1.35000E+1	1.95182E+1	1.35012E+1
319	10/05/2023	13:27:18.459	0.00000E+0	0.00000E+0	-8.33094E+1	-8.63888E+1	0.00000E+0	0.00000E+0	1.95200E+1	1.35000E+1	1.95193E+1	1.35002E+1
320	10/05/2023	13:27:19.895	0.00000E+0	0.00000E+0	-9.62422E+1	-9.71763E+1	0.00000E+0	0.00000E+0	1.95200E+1	1.35000E+1	1.95217E+1	1.34978E+1
321	10/05/2023	13:27:21.467	0.00000E+0	0.00000E+0	-6.70968E+1	-6.78167E+1	0.00000E+0	0.00000E+0	1.95200E+1	1.35000E+1	1.95190E+1	1.34989E+1
322	10/05/2023	13:27:22.953	0.00000E+0	0.00000E+0	3.11121E+1	3.10745E+1	0.00000E+0	0.00000E+0	1.95200E+1	1.35000E+1	1.95168E+1	1.35016E+1
323	10/05/2023	13:27:24.431	0.00000E+0	0.00000E+0	7.75722E+1	7.50382E+1	0.00000E+0	0.00000E+0	1.95200E+1	1.35000E+1	1.95183E+1	1.34999E+1
324	10/05/2023	13:27:25.973	0.00000E+0	0.00000E+0	3.36680E+1	3.73255E+1	0.00000E+0	0.00000E+0	1.95200E+1	1.35000E+1	1.95230E+1	1.35016E+1
325	10/05/2023	13:27:27.467	0.00000E+0	0.00000E+0	-3.22634E-1	-1.57275E+0	0.00000E+0	0.00000E+0	1.95200E+1	1.35000E+1	1.95202E+1	1.35002E+1
326	10/05/2023	13:27:28.975	0.00000E+0	0.00000E+0	-1.06300E+1	-1.16891E+1	0.00000E+0	0.00000E+0	1.95200E+1	1.35000E+1	1.95195E+1	1.35019E+1
327	10/05/2023	13:27:30.491	0.00000E+0	0.00000E+0	-4.76119E+1	-4.62451E+1	0.00000E+0	0.00000E+0	1.95200E+1	1.35000E+1	1.95216E+1	1.35015E+1
328	10/05/2023	13:27:31.987	0.00000E+0	0.00000E+0	-2.11086E+1	-2.10489E+1	0.00000E+0	0.00000E+0	1.95200E+1	1.35000E+1	1.95188E+1	1.34990E+1
329	10/05/2023	13:27:33.510	0.00000E+0	0.00000E+0	1.52820E+1	1.50655E+1	0.00000E+0	0.00000E+0	1.95200E+1	1.35000E+1	1.95207E+1	1.35001E+1
330	10/05/2023	13:27:34.974	0.00000E+0	0.00000E+0	1.28369E+1	1.20248E+1	0.00000E+0	0.00000E+0	1.95200E+1	1.35000E+1	1.95200E+1	1.35004E+1
331	10/05/2023	13:27:36.466	0.00000E+0	0.00000E+0	1.47118E-1	-1.41835E+0	0.00000E+0	0.00000E+0	1.95200E+1	1.35000E+1	1.95180E+1	1.35009E+1
332	10/05/2023	13:27:38.023	0.00000E+0	0.00000E+0	1.84438E+1	2.17235E+1	0.00000E+0	0.00000E+0	1.95200E+1	1.35000E+1	1.95183E+1	1.34992E+1
333	10/05/2023	13:27:39.494	0.00000E+0	0.00000E+0	4.99997E+1	4.85911E+1	0.00000E+0	0.00000E+0	1.95200E+1	1.35000E+1	1.95200E+1	1.34982E+1
334	10/05/2023	13:27:40.961	0.00000E+0	0.00000E+0	4.55885E+1	4.75603E+1	0.00000E+0	0.00000E+0	1.95200E+1	1.35000E+1	1.95202E+1	1.34997E+1
335	10/05/2023	13:27:42.404	0.00000E+0	0.00000E+0	5.56602E+1	5.61079E+1	0.00000E+0	0.00000E+0	1.95200E+1	1.35000E+1	1.95196E+1	1.34994E+1
336	10/05/2023	13:27:43.888	0.00000E+0	0.00000E+0	1.14949E+1	9.75325E+0	0.00000E+0	0.00000E+0	1.95200E+1	1.35000E+1	1.95217E+1	1.35019E+1
337	10/05/2023	13:27:45.449	0.00000E+0	0.00000E+0	-3.35213E+1	-3.31807E+1	0.00000E+0	0.00000E+0	1.95200E+1	1.35000E+1	1.95199E+1	1.34995E+1
338	10/05/2023	13:27:46.942	0.00000E+0	0.00000E+0	-4.32665E+1	-4.33640E+1	0.00000E+0	0.00000E+0	1.95200E+1	1.35000E+1	1.95196E+1	1.34976E+1
339	10/05/2023	13:27:48.492	0.00000E+0	0.00000E+0	-3.72916E+1	-3.77998E+1	0.00000E+0	0.00000E+0	1.95200E+1	1.35000E+1	1.95206E+1	1.35008E+1
340	10/05/2023	13:27:49.966	0.00000E+0	0.00000E+0	-3.00762E+1	-3.21270E+1	0.00000E+0	0.00000E+0	1.95200E+1	1.35000E+1	1.95212E+1	1.35003E+1
341	10/05/2023	13:27:51.517	0.00000E+0	0.00000E+0	-5.45861E+1	-5.77394E+1	0.00000E+0	0.00000E+0	1.95200E+1	1.35000E+1	1.95190E+1	1.35000E+1
342	10/05/2023	13:27:53.050	0.00000E+0	0.00000E+0	-5.91831E+0	-6.26597E+0	0.00000E+0	0.00000E+0	1.95200E+1	1.35000E+1	1.95199E+1	1.34998E+1
343	10/05/2023	13:27:54.508	0.00000E+0	0.00000E+0	-9.82993E+0	-1.11672E+1	0.00000E+0	0.00000E+0	1.95200E+1	1.35000E+1	1.95211E+1	1.35003E+1
344	10/05/2023	13:27:55.980	0.00000E+0	0.00000E+0	-7.94109E+0	-7.23898E+0	0.00000E+0	0.00000E+0	1.95200E+1	1.35000E+1	1.95198E+1	1.35006E+1
345	10/05/2023	13:27:57.551	0.00000E+0	0.00000E+0	-3.59904E+1	-3.75753E+1	0.00000E+0	0.00000E+0	1.95200E+1	1.35000E+1	1.95171E+1	1.35012E+1
346	10/05/2023	13:27:59.013	0.00000E+0	0.00000E+0	6.04991E+0	8.79017E+0	0.00000E+0	0.00000E+0	1.95200E+1	1.35000E+1	1.95186E+1	1.35001E+1
347	10/05/2023	13:28:00.585	0.00000E+0	0.00000E+0	4.20205E+1	4.10119E+1	0.00000E+0	0.00000E+0	1.95200E+1	1.35000E+1	1.95181E+1	1.35015E+1
348	10/05/2023	13:28:02.044	0.00000E+0	0.00000E+0	1.66615E+1	1.80218E+1	0.00000E+0	0.00000E+0	1.95200E+1	1.35000E+1	1.95182E+1	1.34976E+1
349	10/05/2023	13:28:03.500	0.00000E+0	0.00000E+0	2.20540E+1	2.20411E+1	0.00000E+0	0.00000E+0	1.95200E+1	1.35000E+1	1.95176E+1	1.35023E+1
350	10/05/2023	13:28:05.079	0.00000E+0	0.00000E+0	1.61828E+1	1.52522E+1	0.00000E+0	0.00000E+0	1.95200E+1	1.35000E+1	1.95184E+1	1.35000E+1
351	10/05/2023	13:28:06.564	0.00000E+0	0.00000E+0	2.82423E+1	2.84742E+1	0.00000E+0	0.00000E+0	1.95200E+1	1.35000E+1	1.95194E+1	1.34986E+1
352	10/05/2023	13:28:08.049	0.00000E+0	0.00000E+0	2.65314E+1	2.76514E+1	0.00000E+0	0.00000E+0	1.95200E+1	1.35000E+1	1.95217E+1	1.34964E+1
353	10/05/2023	13:28:09.509	0.00000E+0	0.00000E+0	1.91071E+1	2.07647E+1	0.00000E+0	0.00000E+0	1.95200E+1	1.35000E+1	1.95212E+1	1.34990E+1
354	10/05/2023	13:28:10.979	0.00000E+0	0.00000E+0	3.00729E+1	3.03793E+1	0.00000E+0	0.00000E+0	1.95200E+1	1.35000E+1	1.95201E+1	1.34967E+1
355	10/05/2023	13:28:12.568	0.00000E+0	0.00000E+0	1.62572E+1	1.72356E+1	0.00000E+0	0.00000E+0	1.95200E+1	1.35000E+1	1.95193E+1	1.35008E+1
356	10/05/2023	13:28:14.033	0.00000E+0	0.00000E+0	2.38789E+1	2.38000E+1	0.00000E+0	0.00000E+0	1.95200E+1	1.35000E+1	1.95186E+1	1.35017E+1
357	10/05/2023	13:28:15.511	0.00000E+0	0.00000E+0	-8.69748E+0	-1.24404E+1	0.00000E+0	0.00000E+0	1.95200E+1	1.35000E+1	1.95191E+1	1.34987E+1
358	10/05/2023	13:28:17.041	0.00000E+0	0.00000E+0	-4.51896E+1	-4.61345E+1	0.00000E+0	0.00000E+0	1.95200E+1	1.35000E+1	1.95177E+1	1.34993E+1
359	10/05/2023	13:28:18.585	0.00000E+0	0.00000E+0	3.41865E+1	3.63653E+1	0.00000E+0	0.00000E+0	1.95200E+1	1.35000E+1	1.95194E+1	1.35017E+1
360	10/05/2023	13:28:20.131	0.00000E+0	0.00000E+0	3.13368E+1	2.98483E+1	0.00000E+0	0.00000E+0	1.95200E+1	1.35000E+1	1.95205E+1	1.34983E+1
361	10/05/2023	13:28:21.585	0.00000E+0	0.00000E+0	-2.45223E+1	-2.47048E+1	0.00000E+0	0.00000E+0	1.95200E+1	1.35000E+1	1.95184E+1	1.35016E+1
362	10/05/2023	13:28:23.034	0.00000E+0	0.00000E+0	-3.86362E+1	-3.97951E+1	0.00000E+0	0.00000E+0	1.95200E+1	1.35000E+1	1.95236E+1	1.34987E+1
363	10/05/2023	13:28:24.594	0.00000E+0	0.00000E+0	3.03648E+0	6.44352E+0	0.00000E+0	0.00000E+0	1.95200E+1	1.35000E+1	1.95191E+1	1.34993E+1
364	10/05/2023	13:28:26.064	0.00000E+0	0.00000E+0	3.38057E+1	3.28368E+1	0.00000E+0	0.00000E+0	1.95200E+1	1.35000E+1	1.95190E+1	1.35002E+1
365	10/05/2023	13:28:27.536	0.00000E+0	0.00000E+0	-2.33485E+1	-2.42486E+1	0.00000E+0	0.00000E+0	1.95200E+1	1.35000E+1	1.95195E+1	1.35008E+1
366	10/05/2023	13:28:29.109	0.00000E+0	0.00000E+0	-4.54954E+1	-4.62181E+1	0.00000E+0	0.00000E+0	1.95200E+1	1.35000E+1	1.95188E+1	1.34995E+1
367	10/05/2023	13:28:30.589	0.00000E+0	0.00000E+0	-6.70315E+0	-7.19072E+0	0.00000E+0	0.00000E+0	1.95200E+1	1.35000E+1	1.95198E+1	1.34987E+1
368	10/05/2023	13:28:32.081	0.00000E+0	0.00000E+0	-4.53672E+1	-4.62006E+1	0.00000E+0	0.00000E+0	1.95200E+1	1.35000E+1	1.95203E+1	1.34997E+1
369	10/05/2023	13:28:33.620	0.00000E+0	0.00000E+0	-3.60154E+1	-3.45304E+1	0.00000E+0	0.00000E+0	1.95200E+1	1.35000E+1	1.95215E+1	1.34996E+1
370	10/05/2023	13:28:35.078	0.00000E+0	0.00000E+0	-3.36652E+1	-3.16374E+1	0.00000E+0	0.00000E+0	1.95200E+1	1.35000E+1	1.95195E+1	1.34996E+1
371	10/05/2023	13:28:36.645	0.00000E+0	0.00000E+0	-2.56273E+1	-2.50578E+1	0.00000E+0	0.00000E+0	1.95200E+1	1.35000E+1	1.95183E+1	1.34993E+1
372	10/05/2023	13:28:38.125	0.00000E+0	0.00000E+0	1.32074E+1	1.38069E+1	0.00000E+0	0.00000E+0	1.95200E+1	1.35000E+1	1.95171E+1	1.34985E+1
373	10/05/2023	13:28:39.686	0.00000E+0	0.00000E+0	3.96131E+1	4.13161E+1	0.00000E+0	0.00000E+0	1.95200E+1	1.35000E+1	1.95219E+1	1.34996E+1
374	10/05/2023	13:28:41.247	0.00000E+0	0.00000E+0	3.27011E+1	3.42955E+1	0.00000E+0	0.00000E+0	1.95200E+1	1.35000E+1	1.95206E+1	1.34996E+1
375	10/05/2023	13:28:42.714	0.00000E+0	0.00000E+0	7.80712E+1	7.77695E+1	0.00000E+0	0.00000E+0	1.95200E+1	1.35000E+1	1.95198E+1	1.35046E+1
376	10/05/2023	13:28:44.299	0.00000E+0	0.00000E+0	4.29449E+1	4.13515E+1	0.00000E+0	0.00000E+0	1.95200E+1	1.35000E+1	1.95222E+1	1.35006E+1
377	10/05/2023	13:28:45.743	0.00000E+0	0.00000E+0	-7.13660E+1	-7.58851E+1	0.00000E+0	0.00000E+0	1.95200E+1	1.35000E+1	1.95212E+1	1.34997E+1
378	10/05/2023	13:28:47.216	0.00000E+0	0.00000E+0	-8.10543E+1	-8.22488E+1	0.00000E+0	0.00000E+0	1.95200E+1	1.35000E+1	1.95187E+1	1.35001E+1
379	10/05/2023	13:28:48.790	0.00000E+0	0.00000E+0	-6.29266E+1	-6.27396E+1	0.00000E+0	0.00000E+0	1.95200E+1	1.35000E+1	1.95199E+1	1.35008E+1
380	10/05/2023	13:28:50.260	0.00000E+0	0.00000E+0	4.95967E+1	5.60544E+1	0.00000E+0	0.00000E+0	1.95200E+1	1.35000E+1	1.95185E+1	1.35005E+1
381	10/05/2023	13:28:51.839	0.00000E+0	0.00000E+0	6.58217E+1	6.66071E+1	0.00000E+0	0.00000E+0	1.95200E+1	1.35000E+1	1.95222E+1	1.35019E+1
382	10/05/2023	13:28:53.273	0.00000E+0	0.00000E+0	8.58132E+1	8.55787E+1	0.00000E+0	0.00000E+0	1.95200E+1	1.35000E+1	1.95203E+1	1.35001E+1
383	10/05/2023	13:28:54.761	0.00000E+0	0.00000E+0	3.41410E+1	3.02821E+1	0.00000E+0	0.00000E+0	1.95200E+1	1.35000E+1	1.95191E+1	1.35007E+1
384	10/05/2023	13:28:56.311	0.00000E+0	0.00000E+0	-7.19257E+1	-7.36854E+1	0.00000E+0	0.00000E+0	1.95200E+1	1.35000E+1	1.95190E+1	1.35015E+1
385	10/05/2023	13:28:57.907	0.00000E+0	0.00000E+0	-9.60155E+1	-9.84152E+1	0.00000E+0	0.00000E+0	1.95200E+1	1.35000E+1	1.95187E+1	1.35018E+1
386	10/05/2023	13:28:59.391	0.00000E+0	0.00000E+0	-9.55711E+1	-9.61691E+1	0.00000E+0	0.00000E+0	1.95200E+1	1.35000E+1	1.95210E+1	1.34995E+1
387	10/05/2023	13:29:00.933	0.00000E+0	0.00000E+0	5.02566E+1	5.55124E+1	0.00000E+0	0.00000E+0	1.95200E+1	1.35000E+1	1.95205E+1	1.35007E+1
388	10/05/2023	13:29:02.390	0.00000E+0	0.00000E+0	1.00172E+2	1.01172E+2	0.00000E+0	0.00000E+0	1.95200E+1	1.35000E+1	1.95191E+1	1.34997E+1
389	10/05/2023	13:29:04.054	0.00000E+0	0.00000E+0	9.13371E+1	9.15231E+1	0.00000E+0	0.00000E+0	1.95200E+1	1.35000E+1	1.95199E+1	1.35005E+1
390	10/05/2023	13:29:05.516	0.00000E+0	0.00000E+0	1.36876E+1	6.52928E+0	0.00000E+0	0.00000E+0	1.95200E+1	1.35000E+1	1.95230E+1	1.34985E+1
391	10/05/2023	13:29:06.989	0.00000E+0	0.00000E+0	-1.14187E+2	-1.17134E+2	0.00000E+0	0.00000E+0	1.95200E+1	1.35000E+1	1.95186E+1	1.34998E+1
392	10/05/2023	13:29:08.662	0.00000E+0	0.00000E+0	-7.59949E+1	-7.61304E+1	0.00000E+0	0.00000E+0	1.95200E+1	1.35000E+1	1.95183E+1	1.34986E+1
393	10/05/2023	13:29:10.290	0.00000E+0	0.00000E+0	4.18475E+1	4.28619E+1	0.00000E+0	0.00000E+0	1.95200E+1	1.35000E+1	1.95186E+1	1.35001E+1
394	10/05/2023	13:29:11.808	0.00000E+0	0.00000E+0	6.62407E+1	6.73451E+1	0.00000E+0	0.00000E+0	1.95200E+1	1.35000E+1	1.95184E+1	1.35007E+1
395	10/05/2023	13:29:13.286	0.00000E+0	0.00000E+0	4.70544E+1	4.74641E+1	0.00000E+0	0.00000E+0	1.95200E+1	1.35000E+1	1.95222E+1	1.35018E+1
396	10/05/2023	13:29:14.757	0.00000E+0	0.00000E+0	2.07626E+1	1.86016E+1	0.00000E+0	0.00000E+0	1.95200E+1	1.35000E+1	1.95215E+1	1.35002E+1
397	10/05/2023	13:29:16.310	0.00000E+0	0.00000E+0	-6.83408E+1	-7.24927E+1	0.00000E+0	0.00000E+0	1.95200E+1	1.35000E+1	1.95192E+1	1.34981E+1
398	10/05/2023	13:29:17.812	0.00000E+0	0.00000E+0	-6.66925E+1	-6.46636E+1	0.00000E+0	0.00000E+0	1.95200E+1	1.35000E+1	1.95176E+1	1.35006E+1
399	10/05/2023	13:29:19.308	0.00000E+0	0.00000E+0	-2.09655E+1	-2.05519E+1	0.00000E+0	0.00000E+0	1.95200E+1	1.35000E+1	1.95216E+1	1.35002E+1
400	10/05/2023	13:29:20.908	0.00000E+0	0.00000E+0	-2.05779E+1	-2.06756E+1	0.00000E+0	0.00000E+0	1.95200E+1	1.35000E+1	1.95191E+1	1.35006E+1
401	10/05/2023	13:29:22.400	0.00000E+0	0.00000E+0	1.81995E+1	2.35106E+1	0.00000E+0	0.00000E+0	1.95200E+1	1.35000E+1	1.95173E+1	1.35005E+1
402	10/05/2023	13:29:24.013	0.00000E+0	0.00000E+0	4.97527E+1	4.62212E+1	0.00000E+0	0.00000E+0	1.95200E+1	1.35000E+1	1.95193E+1	1.35031E+1
403	10/05/2023	13:29:25.514	0.00000E+0	0.00000E+0	6.51840E+1	6.56569E+1	0.00000E+0	0.00000E+0	1.95200E+1	1.35000E+1	1.95197E+1	1.34981E+1
404	10/05/2023	13:29:26.988	0.00000E+0	0.00000E+0	5.72286E+1	5.70893E+1	0.00000E+0	0.00000E+0	1.95200E+1	1.35000E+1	1.95181E+1	1.35012E+1
405	10/05/2023	13:29:28.534	0.00000E+0	0.00000E+0	5.29423E+1	5.15255E+1	0.00000E+0	0.00000E+0	1.95200E+1	1.35000E+1	1.95220E+1	1.35010E+1
406	10/05/2023	13:29:30.013	0.00000E+0	0.00000E+0	-5.03887E+1	-5.06248E+1	0.00000E+0	0.00000E+0	1.95200E+1	1.35000E+1	1.95201E+1	1.35004E+1
407	10/05/2023	13:29:31.524	0.00000E+0	0.00000E+0	-8.90316E+1	-9.00712E+1	0.00000E+0	0.00000E+0	1.95200E+1	1.35000E+1	1.95193E+1	1.35005E+1
408	10/05/2023	13:29:32.990	0.00000E+0	0.00000E+0	-7.24089E+1	-7.34452E+1	0.00000E+0	0.00000E+0	1.95200E+1	1.35000E+1	1.95195E+1	1.34978E+1
409	10/05/2023	13:29:34.451	0.00000E+0	0.00000E+0	-5.37564E+1	-5.40711E+1	0.00000E+0	0.00000E+0	1.95200E+1	1.35000E+1	1.95201E+1	1.35006E+1
410	10/05/2023	13:29:36.049	0.00000E+0	0.00000E+0	2.74803E+1	2.90795E+1	0.00000E+0	0.00000E+0	1.95200E+1	1.35000E+1	1.95198E+1	1.35001E+1
411	10/05/2023	13:29:37.525	0.00000E+0	0.00000E+0	4.97536E+1	5.27416E+1	0.00000E+0	0.00000E+0	1.95200E+1	1.35000E+1	1.95159E+1	1.34997E+1
412	10/05/2023	13:29:39.004	0.00000E+0	0.00000E+0	6.83653E+1	7.09102E+1	0.00000E+0	0.00000E+0	1.95200E+1	1.35000E+1	1.95208E+1	1.34991E+1
413	10/05/2023	13:29:40.582	0.00000E+0	0.00000E+0	6.64307E+1	6.77868E+1	0.00000E+0	0.00000E+0	1.95200E+1	1.35000E+1	1.95211E+1	1.34983E+1
414	10/05/2023	13:29:42.086	0.00000E+0	0.00000E+0	4.48168E+1	4.40926E+1	0.00000E+0	0.00000E+0	1.95200E+1	1.35000E+1	1.95214E+1	1.35005E+1
415	10/05/2023	13:29:43.599	0.00000E+0	0.00000E+0	-3.73081E+1	-3.91682E+1	0.00000E+0	0.00000E+0	1.95200E+1	1.35000E+1	1.95219E+1	1.35008E+1
416	10/05/2023	13:29:45.052	0.00000E+0	0.00000E+0	-5.95819E+1	-5.99859E+1	0.00000E+0	0.00000E+0	1.95200E+1	1.35000E+1	1.95183E+1	1.35000E+1
417	10/05/2023	13:29:46.500	0.00000E+0	0.00000E+0	-6.57654E+1	-6.85023E+1	0.00000E+0	0.00000E+0	1.95200E+1	1.35000E+1	1.95206E+1	1.34992E+1
418	10/05/2023	13:29:48.057	0.00000E+0	0.00000E+0	-5.42266E+1	-5.59948E+1	0.00000E+0	0.00000E+0	1.95200E+1	1.35000E+1	1.95185E+1	1.34978E+1
419	10/05/2023	13:29:49.544	0.00000E+0	0.00000E+0	-4.25010E+1	-4.29370E+1	0.00000E+0	0.00000E+0	1.95200E+1	1.35000E+1	1.95203E+1	1.34985E+1
420	10/05/2023	13:29:51.002	0.00000E+0	0.00000E+0	2.62336E+1	2.80423E+1	0.00000E+0	0.00000E+0	1.95200E+1	1.35000E+1	1.95188E+1	1.35003E+1
421	10/05/2023	13:29:52.493	0.00000E+0	0.00000E+0	3.57122E+1	3.35868E+1	0.00000E+0	0.00000E+0	1.95200E+1	1.35000E+1	1.95205E+1	1.34989E+1
422	10/05/2023	13:29:53.988	0.00000E+0	0.00000E+0	4.51475E+1	4.82429E+1	0.00000E+0	0.00000E+0	1.95200E+1	1.35000E+1	1.95202E+1	1.35019E+1
423	10/05/2023	13:29:55.537	0.00000E+0	0.00000E+0	6.21286E+1	6.16182E+1	0.00000E+0	0.00000E+0	1.95200E+1	1.35000E+1	1.95198E+1	1.34996E+1
424	10/05/2023	13:29:57.001	0.00000E+0	0.00000E+0	6.96546E+1	7.07263E+1	0.00000E+0	0.00000E+0	1.95200E+1	1.35000E+1	1.95195E+1	1.34986E+1
425	10/05/2023	13:29:58.489	0.00000E+0	0.00000E+0	-2.15314E+1	-2.65566E+1	0.00000E+0	0.00000E+0	1.95200E+1	1.35000E+1	1.95188E+1	1.35005E+1
426	10/05/2023	13:30:00.038	0.00000E+0	0.00000E+0	-7.14568E+1	-7.21633E+1	0.00000E+0	0.00000E+0	1.95200E+1	1.35000E+1	1.95206E+1	1.34986E+1
427	10/05/2023	13:30:01.512	0.00000E+0	0.00000E+0	-4.86821E+1	-4.82590E+1	0.00000E+0	0.00000E+0	1.95200E+1	1.35000E+1	1.95188E+1	1.35003E+1
428	10/05/2023	13:30:03.008	0.00000E+0	0.00000E+0	-3.61693E-1	-8.91593E-2	0.00000E+0	0.00000E+0	1.95200E+1	1.35000E+1	1.95193E+1	1.34983E+1
429	10/05/2023	13:30:04.508	0.00000E+0	0.00000E+0	-2.77558E+1	-3.02946E+1	0.00000E+0	0.00000E+0	1.95200E+1	1.35000E+1	1.95208E+1	1.35009E+1
430	10/05/2023	13:30:05.976	0.00000E+0	0.00000E+0	-2.87956E+1	-2.89890E+1	0.00000E+0	0.00000E+0	1.95200E+1	1.35000E+1	1.95207E+1	1.34995E+1
431	10/05/2023	13:30:07.550	0.00000E+0	0.00000E+0	-2.57439E+1	-2.45207E+1	0.00000E+0	0.00000E+0	1.95200E+1	1.35000E+1	1.95189E+1	1.34998E+1
432	10/05/2023	13:30:09.030	0.00000E+0	0.00000E+0	-4.13205E+1	-4.45360E+1	0.00000E+0	0.00000E+0	1.95200E+1	1.35000E+1	1.95214E+1	1.35023E+1
433	10/05/2023	13:30:10.498	0.00000E+0	0.00000E+0	-1.35841E+1	-8.89110E+0	0.00000E+0	0.00000E+0	1.95200E+1	1.35000E+1	1.95204E+1	1.34967E+1
434	10/05/2023	13:30:12.047	0.00000E+0	0.00000E+0	9.33397E-1	5.17783E-3	0.00000E+0	0.00000E+0	1.95200E+1	1.35000E+1	1.95200E+1	1.35005E+1
435	10/05/2023	13:30:13.536	0.00000E+0	0.00000E+0	-2.86864E-1	-9.75292E-1	0.00000E+0	0.00000E+0	1.95200E+1	1.35000E+1	1.95210E+1	1.35000E+1
436	10/05/2023	13:30:15.064	0.00000E+0	0.00000E+0	1.17196E+1	1.13563E+1	0.00000E+0	0.00000E+0	1.95200E+1	1.35000E+1	1.95205E+1	1.34988E+1
437	10/05/2023	13:30:16.549	0.00000E+0	0.00000E+0	7.42144E+0	7.05298E+0	0.00000E+0	0.00000E+0	1.95200E+1	1.35000E+1	1.95208E+1	1.35016E+1
438	10/05/2023	13:30:18.045	0.00000E+0	0.00000E+0	1.00806E+1	1.08470E+1	0.00000E+0	0.00000E+0	1.95200E+1	1.35000E+1	1.95226E+1	1.34977E+1
439	10/05/2023	13:30:19.609	0.00000E+0	0.00000E+0	1.11001E+1	1.21787E+1	0.00000E+0	0.00000E+0	1.95200E+1	1.35000E+1	1.95210E+1	1.34981E+1
440	10/05/2023	13:30:21.076	0.00000E+0	0.00000E+0	8.62393E+0	6.99983E+0	0.00000E+0	0.00000E+0	1.95200E+1	1.35000E+1	1.95215E+1	1.34986E+1
441	10/05/2023	13:30:22.649	0.00000E+0	0.00000E+0	3.09770E-1	4.67272E-1	0.00000E+0	0.00000E+0	1.95200E+1	1.35000E+1	1.95188E+1	1.35013E+1
442	10/05/2023	13:30:24.088	0.00000E+0	0.00000E+0	9.01651E+0	1.12052E+1	0.00000E+0	0.00000E+0	1.95200E+1	1.35000E+1	1.95190E+1	1.34983E+1
443	10/05/2023	13:30:25.536	0.00000E+0	0.00000E+0	5.41353E+0	6.74702E+0	0.00000E+0	0.00000E+0	1.95200E+1	1.35000E+1	1.95203E+1	1.34993E+1
444	10/05/2023	13:30:27.049	0.00000E+0	0.00000E+0	6.75785E+0	4.49187E+0	0.00000E+0	0.00000E+0	1.95200E+1	1.35000E+1	1.95204E+1	1.34990E+1
445	10/05/2023	13:30:28.518	0.00000E+0	0.00000E+0	1.15204E+1	1.26374E+1	0.00000E+0	0.00000E+0	1.95200E+1	1.35000E+1	1.95209E+1	1.35020E+1
446	10/05/2023	13:30:29.995	0.00000E+0	0.00000E+0	1.07858E+1	9.46423E+0	0.00000E+0	0.00000E+0	1.95200E+1	1.35000E+1	1.95191E+1	1.35012E+1
447	10/05/2023	13:30:31.570	0.00000E+0	0.00000E+0	1.49311E+1	1.70096E+1	0.00000E+0	0.00000E+0	1.95200E+1	1.35000E+1	1.95170E+1	1.35008E+1
448	10/05/2023	13:30:33.032	0.00000E+0	0.00000E+0	7.15261E+0	7.23783E+0	0.00000E+0	0.00000E+0	1.95200E+1	1.35000E+1	1.95191E+1	1.35011E+1
449	10/05/2023	13:30:34.502	0.00000E+0	0.00000E+0	1.27459E+1	1.22098E+1	0.00000E+0	0.00000E+0	1.95200E+1	1.35000E+1	1.95190E+1	1.35011E+1
450	10/05/2023	13:30:35.974	0.00000E+0	0.00000E+0	1.88333E+1	2.01485E+1	0.00000E+0	0.00000E+0	1.95200E+1	1.35000E+1	1.95226E+1	1.35010E+1
451	10/05/2023	13:30:37.484	0.00000E+0	0.00000E+0	6.18319E+0	7.47367E+0	0.00000E+0	0.00000E+0	1.95200E+1	1.35000E+1	1.95217E+1	1.35013E+1
452	10/05/2023	13:30:39.058	0.00000E+0	0.00000E+0	4.14272E+0	8.40618E+0	0.00000E+0	0.00000E+0	1.95200E+1	1.35000E+1	1.95199E+1	1.35010E+1
453	10/05/2023	13:30:40.516	0.00000E+0	0.00000E+0	1.39577E+1	1.75314E+1	0.00000E+0	0.00000E+0	1.95200E+1	1.35000E+1	1.95211E+1	1.34995E+1
454	10/05/2023	13:30:42.009	0.00000E+0	0.00000E+0	1.48697E+1	1.34663E+1	0.00000E+0	0.00000E+0	1.95200E+1	1.35000E+1	1.95185E+1	1.35002E+1
455	10/05/2023	13:30:43.475	0.00000E+0	0.00000E+0	1.55299E+1	1.62234E+1	0.00000E+0	0.00000E+0	1.95200E+1	1.35000E+1	1.95202E+1	1.34993E+1
456	10/05/2023	13:30:44.955	0.00000E+0	0.00000E+0	1.37563E+1	1.53785E+1	0.00000E+0	0.00000E+0	1.95200E+1	1.35000E+1	1.95194E+1	1.34980E+1
457	10/05/2023	13:30:46.494	0.00000E+0	0.00000E+0	1.55163E+1	1.35675E+1	0.00000E+0	0.00000E+0	1.95200E+1	1.35000E+1	1.95184E+1	1.34999E+1
458	10/05/2023	13:30:47.962	0.00000E+0	0.00000E+0	1.65258E+1	1.67659E+1	0.00000E+0	0.00000E+0	1.95200E+1	1.35000E+1	1.95216E+1	1.34977E+1
459	10/05/2023	13:30:49.446	0.00000E+0	0.00000E+0	-2.14914E+1	-2.12785E+1	0.00000E+0	0.00000E+0	1.95200E+1	1.35000E+1	1.95208E+1	1.34992E+1
460	10/05/2023	13:30:51.012	0.00000E+0	0.00000E+0	-1.63476E+1	-1.74889E+1	0.00000E+0	0.00000E+0	1.95200E+1	1.35000E+1	1.95192E+1	1.35010E+1
461	10/05/2023	13:30:52.473	0.00000E+0	0.00000E+0	-1.23099E+1	-1.18915E+1	0.00000E+0	0.00000E+0	1.95200E+1	1.35000E+1	1.95202E+1	1.34986E+1
462	10/05/2023	13:30:53.957	0.00000E+0	0.00000E+0	-1.95029E+1	-1.91621E+1	0.00000E+0	0.00000E+0	1.95200E+1	1.35000E+1	1.95221E+1	1.34992E+1
463	10/05/2023	13:30:55.446	0.00000E+0	0.00000E+0	-1.21468E+1	-1.16966E+1	0.00000E+0	0.00000E+0	1.95200E+1	1.35000E+1	1.95218E+1	1.35001E+1
464	10/05/2023	13:30:56.930	0.00000E+0	0.00000E+0	-2.12401E+1	-2.17163E+1	0.00000E+0	0.00000E+0	1.95200E+1	1.35000E+1	1.95178E+1	1.34993E+1
465	10/05/2023	13:30:58.529	0.00000E+0	0.00000E+0	-2.31825E+1	-2.23359E+1	0.00000E+0	0.00000E+0	1.95200E+1	1.35000E+1	1.95201E+1	1.34991E+1
466	10/05/2023	13:30:59.976	0.00000E+0	0.00000E+0	-1.83008E+1	-1.90226E+1	0.00000E+0	0.00000E+0	1.95200E+1	1.35000E+1	1.95174E+1	1.35023E+1
467	10/05/2023	13:31:01.428	0.00000E+0	0.00000E+0	-1.24767E+1	-1.19693E+1	0.00000E+0	0.00000E+0	1.95200E+1	1.35000E+1	1.95204E+1	1.34996E+1
468	10/05/2023	13:31:02.992	0.00000E+0	0.00000E+0	-1.60921E+1	-1.66329E+1	0.00000E+0	0.00000E+0	1.95200E+1	1.35000E+1	1.95206E+1	1.34992E+1
469	10/05/2023	13:31:04.511	0.00000E+0	0.00000E+0	-2.49464E+1	-2.56729E+1	0.00000E+0	0.00000E+0	1.95200E+1	1.35000E+1	1.95196E+1	1.34985E+1
470	10/05/2023	13:31:06.022	0.00000E+0	0.00000E+0	-5.28356E+0	-7.67649E+0	0.00000E+0	0.00000E+0	1.95200E+1	1.35000E+1	1.95192E+1	1.35004E+1
471	10/05/2023	13:31:07.491	0.00000E+0	0.00000E+0	-2.42468E+1	-2.39533E+1	0.00000E+0	0.00000E+0	1.95200E+1	1.35000E+1	1.95202E+1	1.35015E+1
472	10/05/2023	13:31:08.958	0.00000E+0	0.00000E+0	-8.20050E+0	-5.24005E+0	0.00000E+0	0.00000E+0	1.95200E+1	1.35000E+1	1.95231E+1	1.35013E+1
473	10/05/2023	13:31:10.549	0.00000E+0	0.00000E+0	1.66607E+1	1.76344E+1	0.00000E+0	0.00000E+0	1.95200E+1	1.35000E+1	1.95204E+1	1.34999E+1
474	10/05/2023	13:31:12.014	0.00000E+0	0.00000E+0	2.30558E+1	2.32860E+1	0.00000E+0	0.00000E+0	1.95200E+1	1.35000E+1	1.95210E+1	1.34997E+1
475	10/05/2023	13:31:13.460	0.00000E+0	0.00000E+0	3.31239E+1	3.33595E+1	0.00000E+0	0.00000E+0	1.95200E+1	1.35000E+1	1.95208E+1	1.34998E+1
476	10/05/2023	13:31:15.038	0.00000E+0	0.00000E+0	8.03213E+0	1.01151E+1	0.00000E+0	0.00000E+0	1.95200E+1	1.35000E+1	1.95197E+1	1.35024E+1
477	10/05/2023	13:31:16.519	0.00000E+0	0.00000E+0	1.48467E+1	1.71402E+1	0.00000E+0	0.00000E+0	1.95200E+1	1.35000E+1	1.95207E+1	1.35019E+1
478	10/05/2023	13:31:17.994	0.00000E+0	0.00000E+0	2.52906E+1	2.90133E+1	0.00000E+0	0.00000E+0	1.95200E+1	1.35000E+1	1.95211E+1	1.35002E+1
479	10/05/2023	13:31:19.463	0.00000E+0	0.00000E+0	2.47587E+1	2.67485E+1	0.00000E+0	0.00000E+0	1.95200E+1	1.35000E+1	1.95199E+1	1.34996E+1
480	10/05/2023	13:31:20.912	0.00000E+0	0.00000E+0	7.67745E+0	7.86597E+0	0.00000E+0	0.00000E+0	1.95200E+1	1.35000E+1	1.95213E+1	1.35022E+1
481	10/05/2023	13:31:22.470	0.00000E+0	0.00000E+0	3.30291E+1	3.15220E+1	0.00000E+0	0.00000E+0	1.95200E+1	1.35000E+1	1.95203E+1	1.35001E+1
482	10/05/2023	13:31:23.978	0.00000E+0	0.00000E+0	1.76194E+1	1.68390E+1	0.00000E+0	0.00000E+0	1.95200E+1	1.35000E+1	1.95195E+1	1.34972E+1
483	10/05/2023	13:31:25.424	0.00000E+0	0.00000E+0	2.05295E+1	1.94563E+1	0.00000E+0	0.00000E+0	1.95200E+1	1.35000E+1	1.95203E+1	1.35002E+1
484	10/05/2023	13:31:26.895	0.00000E+0	0.00000E+0	8.70253E+0	1.03826E+1	0.00000E+0	0.00000E+0	1.95200E+1	1.35000E+1	1.95183E+1	1.34998E+1
485	10/05/2023	13:31:28.370	0.00000E+0	0.00000E+0	1.17279E+1	1.15720E+1	0.00000E+0	0.00000E+0	1.95200E+1	1.35000E+1	1.95201E+1	1.35018E+1
486	10/05/2023	13:31:29.914	0.00000E+0	0.00000E+0	1.15348E+1	1.26767E+1	0.00000E+0	0.00000E+0	1.95200E+1	1.35000E+1	1.95199E+1	1.35021E+1
487	10/05/2023	13:31:31.379	0.00000E+0	0.00000E+0	-1.49536E+1	-1.50158E+1	0.00000E+0	0.00000E+0	1.95200E+1	1.35000E+1	1.95182E+1	1.34973E+1
488	10/05/2023	13:31:32.858	0.00000E+0	0.00000E+0	-8.74230E+0	-9.22310E+0	0.00000E+0	0.00000E+0	1.95200E+1	1.35000E+1	1.95191E+1	1.35011E+1
489	10/05/2023	13:31:34.307	0.00000E+0	0.00000E+0	-2.17247E+1	-2.16043E+1	0.00000E+0	0.00000E+0	1.95200E+1	1.35000E+1	1.95185E+1	1.34978E+1
490	10/05/2023	13:31:35.792	0.00000E+0	0.00000E+0	-9.85533E+0	-9.65907E+0	0.00000E+0	0.00000E+0	1.95200E+1	1.35000E+1	1.95184E+1	1.35035E+1
491	10/05/2023	13:31:37.316	0.00000E+0	0.00000E+0	-2.02763E+1	-2.00898E+1	0.00000E+0	0.00000E+0	1.95200E+1	1.35000E+1	1.95205E+1	1.35005E+1
492	10/05/2023	13:31:38.760	0.00000E+0	0.00000E+0	-1.49422E+1	-1.46167E+1	0.00000E+0	0.00000E+0	1.95200E+1	1.35000E+1	1.95203E+1	1.34988E+1
493	10/05/2023	13:31:40.244	0.00000E+0	0.00000E+0	-1.22675E+1	-1.21204E+1	0.00000E+0	0.00000E+0	1.95200E+1	1.35000E+1	1.95209E+1	1.34984E+1
494	10/05/2023	13:31:41.871	0.00000E+0	0.00000E+0	-4.61426E+1	-4.92068E+1	0.00000E+0	0.00000E+0	1.95200E+1	1.35000E+1	1.95214E+1	1.34997E+1
495	10/05/2023	13:31:43.343	0.00000E+0	0.00000E+0	-3.71325E+1	-3.88574E+1	0.00000E+0	0.00000E+0	1.95200E+1	1.35000E+1	1.95203E+1	1.34971E+1
496	10/05/2023	13:31:44.843	0.00000E+0	0.00000E+0	-1.98127E+1	-2.21198E+1	0.00000E+0	0.00000E+0	1.95200E+1	1.35000E+1	1.95204E+1	1.35006E+1
497	10/05/2023	13:31:46.344	0.00000E+0	0.00000E+0	-1.63283E+1	-1.90294E+1	0.00000E+0	0.00000E+0	1.95200E+1	1.35000E+1	1.95173E+1	1.35003E+1
498	10/05/2023	13:31:47.809	0.00000E+0	0.00000E+0	-1.85301E+1	-1.91233E+1	0.00000E+0	0.00000E+0	1.95200E+1	1.35000E+1	1.95216E+1	1.34992E+1
499	10/05/2023	13:31:49.273	0.00000E+0	0.00000E+0	-2.07499E+1	-1.94960E+1	0.00000E+0	0.00000E+0	1.95200E+1	1.35000E+1	1.95211E+1	1.35019E+1
500	10/05/2023	13:31:50.760	0.00000E+0	0.00000E+0	1.04210E+1	1.27018E+1	0.00000E+0	0.00000E+0	1.95200E+1	1.35000E+1	1.95168E+1	1.34987E+1
