#Iteration	Date	Time	RTPhase	NFringe	AccelAxis	AccelMean	AccelTemp
1	10/05/2023	13:19:17.432	7.88466125E-1	-8.80000000E+2	2.00000000E+0	-9.52553159E+0	7.15798100E+6
2	10/05/2023	13:19:19.006	2.69942269E+0	-8.78000000E+2	2.00000000E+0	-9.52553159E+0	7.15798100E+6
3	10/05/2023	13:19:20.460	6.01819013E+0	-8.69000000E+2	2.00000000E+0	-9.52553159E+0	7.15798100E+6
4	10/05/2023	13:19:21.919	1.62371866E+0	-8.51000000E+2	2.00000000E+0	-9.52553159E+0	7.15798100E+6
5	10/05/2023	13:19:23.482	2.76154891E+0	-8.58000000E+2	2.00000000E+0	-9.52553159E+0	7.15798100E+6
6	10/05/2023	13:19:24.959	1.28854386E+0	-8.85000000E+2	2.00000000E+0	-9.52553159E+0	7.15798100E+6
7	10/05/2023	13:19:26.495	2.95368001E+0	-8.96000000E+2	2.00000000E+0	-9.52553159E+0	7.15798100E+6
8	10/05/2023	13:19:28.030	2.18745660E+0	-8.99000000E+2	2.00000000E+0	-9.52553159E+0	7.15798100E+6
9	10/05/2023	13:19:29.546	1.27358755E+0	-9.05000000E+2	2.00000000E+0	-9.52553159E+0	7.15798100E+6
10	10/05/2023	13:19:31.223	5.14382108E+0	-9.05000000E+2	2.00000000E+0	-9.52553159E+0	7.15798100E+6
11	10/05/2023	13:19:32.687	5.77812213E+0	-9.05000000E+2	2.00000000E+0	-9.52553159E+0	7.15798100E+6
12	10/05/2023	13:19:34.117	5.80228233E+0	-9.06000000E+2	2.00000000E+0	-9.52553159E+0	7.15798100E+6
13	10/05/2023	13:19:35.622	2.02523814E+0	-9.04000000E+2	2.00000000E+0	-9.52553159E+0	7.15798100E+6
14	10/05/2023	13:19:37.105	1.79168956E+0	-8.94000000E+2	2.00000000E+0	-9.52553159E+0	7.15798100E+6
15	10/05/2023	13:19:38.703	5.13921913E+0	-8.93000000E+2	2.00000000E+0	-9.52553159E+0	7.15798100E+6
16	10/05/2023	13:19:40.173	3.46948105E+0	-8.73000000E+2	2.00000000E+0	-9.52553159E+0	7.15798100E+6
17	10/05/2023	13:19:41.651	4.66982101E+0	-8.53000000E+2	2.00000000E+0	-9.52553159E+0	7.15798100E+6
18	10/05/2023	13:19:43.240	5.06098611E+0	-8.22000000E+2	2.00000000E+0	-9.52553159E+0	7.15798100E+6
19	10/05/2023	13:19:44.738	2.61773821E+0	-7.98000000E+2	2.00000000E+0	-9.52553159E+0	7.15798100E+6
20	10/05/2023	13:19:46.268	2.09771873E-1	-7.81000000E+2	2.00000000E+0	-9.52553159E+0	7.15798100E+6
21	10/05/2023	13:19:47.785	1.00092246E-1	-8.08000000E+2	2.00000000E+0	-9.52553159E+0	7.15798100E+6
22	10/05/2023	13:19:49.270	5.47209297E+0	-8.40000000E+2	2.00000000E+0	-9.52553159E+0	7.15798100E+6
23	10/05/2023	13:19:50.837	3.46449561E+0	-8.62000000E+2	2.00000000E+0	-9.52553159E+0	7.15798100E+6
24	10/05/2023	13:19:52.298	5.71292795E+0	-8.79000000E+2	2.00000000E+0	-9.52553159E+0	7.15798100E+6
25	10/05/2023	13:19:53.800	4.45046176E+0	-8.96000000E+2	2.00000000E+0	-9.52553159E+0	7.15798100E+6
26	10/05/2023	13:19:55.384	4.53214624E+0	-9.07000000E+2	2.00000000E+0	-9.52553159E+0	7.15798100E+6
27	10/05/2023	13:19:56.874	5.99709789E+0	-9.06000000E+2	2.00000000E+0	-9.52553159E+0	7.15798100E+6
28	10/05/2023	13:19:58.412	9.47233137E-1	-9.01000000E+2	2.00000000E+0	-9.52553159E+0	7.15798100E+6
29	10/05/2023	13:19:59.888	1.46686913E+0	-8.77000000E+2	2.00000000E+0	-9.52553159E+0	7.15798100E+6
30	10/05/2023	13:20:01.369	2.00644687E+0	-8.54000000E+2	2.00000000E+0	-9.52553159E+0	7.15798100E+6
31	10/05/2023	13:20:03.013	3.85566071E+0	-8.23000000E+2	2.00000000E+0	-9.52553159E+0	7.15798100E+6
32	10/05/2023	13:20:04.560	1.27818949E+0	-7.95000000E+2	2.00000000E+0	-9.52553159E+0	7.15798100E+6
33	10/05/2023	13:20:06.075	2.39799547E+0	-7.87000000E+2	2.00000000E+0	-9.52553159E+0	7.15798100E+6
34	10/05/2023	13:20:07.635	9.28058377E-1	-7.84000000E+2	2.00000000E+0	-9.52553159E+0	7.15798100E+6
35	10/05/2023	13:20:09.139	5.60861726E+0	-7.98000000E+2	2.00000000E+0	-9.52553159E+0	7.15798100E+6
36	10/05/2023	13:20:10.655	3.64703932E-1	-8.07000000E+2	2.00000000E+0	-9.52553159E+0	7.15798100E+6
37	10/05/2023	13:20:12.139	1.95007308E+0	-8.23000000E+2	2.00000000E+0	-9.52553159E+0	7.15798100E+6
38	10/05/2023	13:20:13.612	4.74728704E+0	-8.42000000E+2	2.00000000E+0	-9.52553159E+0	7.15798100E+6
39	10/05/2023	13:20:15.174	1.76139344E+0	-8.58000000E+2	2.00000000E+0	-9.52553159E+0	7.15798100E+6
40	10/05/2023	13:20:16.627	5.36739878E+0	-8.65000000E+2	2.00000000E+0	-9.52553159E+0	7.15798100E+6
41	10/05/2023	13:20:18.161	3.39623346E+0	-8.78000000E+2	2.00000000E+0	-9.52553159E+0	7.15798100E+6
42	10/05/2023	13:20:19.649	2.67909745E+0	-8.85000000E+2	2.00000000E+0	-9.52553159E+0	7.15798100E+6
43	10/05/2023	13:20:21.207	3.98413160E+0	-8.95000000E+2	2.00000000E+0	-9.52553159E+0	7.15798100E+6
44	10/05/2023	13:20:22.820	1.86762161E-1	-8.97000000E+2	2.00000000E+0	-9.52553159E+0	7.15798100E+6
45	10/05/2023	13:20:24.474	5.38427257E+0	-9.03000000E+2	2.00000000E+0	-9.52553159E+0	7.15798100E+6
46	10/05/2023	13:20:26.382	6.22834549E+0	-9.05000000E+2	2.00000000E+0	-9.52553159E+0	7.15798100E+6
47	10/05/2023	13:20:27.847	9.82514695E-1	-9.06000000E+2	2.00000000E+0	-9.52553159E+0	7.15798100E+6
48	10/05/2023	13:20:29.350	2.92683534E+0	-9.07000000E+2	2.00000000E+0	-9.52553159E+0	7.15798100E+6
49	10/05/2023	13:20:30.848	3.11398100E-1	-9.06000000E+2	2.00000000E+0	-9.52553159E+0	7.15798100E+6
50	10/05/2023	13:20:32.322	2.94294214E+0	-9.05000000E+2	2.00000000E+0	-9.52553159E+0	7.15798100E+6
51	10/05/2023	13:20:33.826	2.45551975E+0	-9.03000000E+2	2.00000000E+0	-9.52553159E+0	7.15798100E+6
52	10/05/2023	13:20:35.419	2.65608773E+0	-9.03000000E+2	2.00000000E+0	-9.52553159E+0	7.15798100E+6
53	10/05/2023	13:20:36.910	1.23753900E+0	-9.00000000E+2	2.00000000E+0	-9.52553159E+0	7.15798100E+6
54	10/05/2023	13:20:38.426	1.78823810E+0	-8.96000000E+2	2.00000000E+0	-9.52553159E+0	7.15798100E+6
55	10/05/2023	13:20:39.998	5.02493757E+0	-8.90000000E+2	2.00000000E+0	-9.52553159E+0	7.15798100E+6
56	10/05/2023	13:20:41.460	1.62141769E+0	-8.77000000E+2	2.00000000E+0	-9.52553159E+0	7.15798100E+6
57	10/05/2023	13:20:43.050	4.92484532E+0	-8.65000000E+2	2.00000000E+0	-9.52553159E+0	7.15798100E+6
58	10/05/2023	13:20:44.529	1.13169433E+0	-8.47000000E+2	2.00000000E+0	-9.52553159E+0	7.15798100E+6
59	10/05/2023	13:20:45.997	3.47638396E+0	-8.25000000E+2	2.00000000E+0	-9.52553159E+0	7.15798100E+6
60	10/05/2023	13:20:47.563	1.45996621E+0	-8.16000000E+2	2.00000000E+0	-9.52553159E+0	7.15798100E+6
61	10/05/2023	13:20:49.107	5.36893276E-3	-7.90000000E+2	2.00000000E+0	-9.52553159E+0	7.15798100E+6
62	10/05/2023	13:20:50.642	4.42630156E+0	-7.90000000E+2	2.00000000E+0	-9.52553159E+0	7.15798100E+6
63	10/05/2023	13:20:52.102	5.93573866E+0	-8.29000000E+2	2.00000000E+0	-9.52553159E+0	7.15798100E+6
64	10/05/2023	13:20:53.585	2.42215566E+0	-8.68000000E+2	2.00000000E+0	-9.52553159E+0	7.15798100E+6
65	10/05/2023	13:20:55.157	3.66583059E+0	-8.97000000E+2	2.00000000E+0	-9.52553159E+0	7.15798100E+6
66	10/05/2023	13:20:56.684	6.08568528E+0	-9.08000000E+2	2.00000000E+0	-9.52553159E+0	7.15798100E+6
67	10/05/2023	13:20:58.125	5.48513180E+0	-9.07000000E+2	2.00000000E+0	-9.52553159E+0	7.15798100E+6
68	10/05/2023	13:20:59.726	3.36056841E+0	-9.06000000E+2	2.00000000E+0	-9.52553159E+0	7.15798100E+6
69	10/05/2023	13:21:01.208	4.23455396E+0	-8.90000000E+2	2.00000000E+0	-9.52553159E+0	7.15798100E+6
70	10/05/2023	13:21:02.724	3.24091791E+0	-8.78000000E+2	2.00000000E+0	-9.52553159E+0	7.15798100E+6
71	10/05/2023	13:21:04.195	5.74475805E+0	-8.58000000E+2	2.00000000E+0	-9.52553159E+0	7.15798100E+6
72	10/05/2023	13:21:05.725	2.62310715E+0	-8.23000000E+2	2.00000000E+0	-9.52553159E+0	7.15798100E+6
73	10/05/2023	13:21:07.318	2.90651010E+0	-8.08000000E+2	2.00000000E+0	-9.52553159E+0	7.15798100E+6
74	10/05/2023	13:21:08.835	5.81263670E+0	-7.77000000E+2	2.00000000E+0	-9.52553159E+0	7.15798100E+6
75	10/05/2023	13:21:10.330	2.98205865E+0	-8.12000000E+2	2.00000000E+0	-9.52553159E+0	7.15798100E+6
76	10/05/2023	13:21:11.785	2.07931096E+0	-8.55000000E+2	2.00000000E+0	-9.52553159E+0	7.15798100E+6
77	10/05/2023	13:21:13.266	5.51734540E+0	-8.86000000E+2	2.00000000E+0	-9.52553159E+0	7.15798100E+6
78	10/05/2023	13:21:14.851	6.05347168E+0	-9.05000000E+2	2.00000000E+0	-9.52553159E+0	7.15798100E+6
79	10/05/2023	13:21:16.321	1.20839337E+0	-9.07000000E+2	2.00000000E+0	-9.52553159E+0	7.15798100E+6
80	10/05/2023	13:21:17.823	2.99356351E+0	-9.07000000E+2	2.00000000E+0	-9.52553159E+0	7.15798100E+6
81	10/05/2023	13:21:19.298	6.15854937E+0	-9.01000000E+2	2.00000000E+0	-9.52553159E+0	7.15798100E+6
82	10/05/2023	13:21:20.823	6.59611739E-1	-8.94000000E+2	2.00000000E+0	-9.52553159E+0	7.15798100E+6
83	10/05/2023	13:21:22.341	2.63537899E+0	-8.67000000E+2	2.00000000E+0	-9.52553159E+0	7.15798100E+6
84	10/05/2023	13:21:23.854	5.23355895E+0	-8.38000000E+2	2.00000000E+0	-9.52553159E+0	7.15798100E+6
85	10/05/2023	13:21:25.355	4.63032101E+0	-8.00000000E+2	2.00000000E+0	-9.52553159E+0	7.15798100E+6
86	10/05/2023	13:21:26.922	1.12402442E+0	-7.83000000E+2	2.00000000E+0	-9.52553159E+0	7.15798100E+6
87	10/05/2023	13:21:28.393	2.04594688E+0	-8.24000000E+2	2.00000000E+0	-9.52553159E+0	7.15798100E+6
88	10/05/2023	13:21:29.913	2.55254403E+0	-8.76000000E+2	2.00000000E+0	-9.52553159E+0	7.15798100E+6
89	10/05/2023	13:21:31.403	6.07878237E+0	-8.98000000E+2	2.00000000E+0	-9.52553159E+0	7.15798100E+6
90	10/05/2023	13:21:32.903	2.51189354E-1	-9.05000000E+2	2.00000000E+0	-9.52553159E+0	7.15798100E+6
91	10/05/2023	13:21:34.480	5.02838902E+0	-9.07000000E+2	2.00000000E+0	-9.52553159E+0	7.15798100E+6
92	10/05/2023	13:21:35.964	5.97830663E+0	-9.08000000E+2	2.00000000E+0	-9.52553159E+0	7.15798100E+6
93	10/05/2023	13:21:37.408	1.16659239E+0	-9.02000000E+2	2.00000000E+0	-9.52553159E+0	7.15798100E+6
94	10/05/2023	13:21:39.005	8.37170015E-1	-8.83000000E+2	2.00000000E+0	-9.52553159E+0	7.15798100E+6
95	10/05/2023	13:21:40.507	3.90091314E+0	-8.69000000E+2	2.00000000E+0	-9.52553159E+0	7.15798100E+6
96	10/05/2023	13:21:42.030	7.32475826E-2	-8.47000000E+2	2.00000000E+0	-9.52553159E+0	7.15798100E+6
97	10/05/2023	13:21:43.531	6.18577753E-1	-8.03000000E+2	2.00000000E+0	-9.52553159E+0	7.15798100E+6
98	10/05/2023	13:21:44.977	2.75809746E+0	-7.82000000E+2	2.00000000E+0	-9.52553159E+0	7.15798100E+6
99	10/05/2023	13:21:46.569	1.38211669E+0	-8.26000000E+2	2.00000000E+0	-9.52553159E+0	7.15798100E+6
100	10/05/2023	13:21:48.082	4.06619957E+0	-8.61000000E+2	2.00000000E+0	-9.52553159E+0	7.15798100E+6
101	10/05/2023	13:21:49.662	5.44486481E+0	-8.84000000E+2	2.00000000E+0	-9.52553159E+0	7.15798100E+6
102	10/05/2023	13:21:51.166	6.01282119E+0	-9.05000000E+2	2.00000000E+0	-9.52553159E+0	7.15798100E+6
103	10/05/2023	13:21:52.627	3.37437424E+0	-9.07000000E+2	2.00000000E+0	-9.52553159E+0	7.15798100E+6
104	10/05/2023	13:21:54.191	5.79077747E-2	-9.06000000E+2	2.00000000E+0	-9.52553159E+0	7.15798100E+6
105	10/05/2023	13:21:55.655	3.82229663E+0	-9.06000000E+2	2.00000000E+0	-9.52553159E+0	7.15798100E+6
106	10/05/2023	13:21:57.134	1.45114583E+0	-8.91000000E+2	2.00000000E+0	-9.52553159E+0	7.15798100E+6
107	10/05/2023	13:21:58.739	2.43404402E+0	-8.59000000E+2	2.00000000E+0	-9.52553159E+0	7.15798100E+6
108	10/05/2023	13:22:00.234	3.91548596E-1	-8.16000000E+2	2.00000000E+0	-9.52553159E+0	7.15798100E+6
109	10/05/2023	13:22:01.755	3.81577721E+0	-7.82000000E+2	2.00000000E+0	-9.52553159E+0	7.15798100E+6
110	10/05/2023	13:22:03.261	3.11014605E-1	-7.96000000E+2	2.00000000E+0	-9.52553159E+0	7.15798100E+6
111	10/05/2023	13:22:04.760	5.58560754E+0	-8.36000000E+2	2.00000000E+0	-9.52553159E+0	7.15798100E+6
112	10/05/2023	13:22:06.347	1.45728175E+0	-8.72000000E+2	2.00000000E+0	-9.52553159E+0	7.15798100E+6
113	10/05/2023	13:22:07.833	2.32321390E+0	-8.76000000E+2	2.00000000E+0	-9.52553159E+0	7.15798100E+6
114	10/05/2023	13:22:09.309	1.79935946E+0	-8.73000000E+2	2.00000000E+0	-9.52553159E+0	7.15798100E+6
115	10/05/2023	13:22:10.792	6.17772413E+0	-8.51000000E+2	2.00000000E+0	-9.52553159E+0	7.15798100E+6
116	10/05/2023	13:22:12.336	2.35581099E+0	-8.18000000E+2	2.00000000E+0	-9.52553159E+0	7.15798100E+6
117	10/05/2023	13:22:13.893	1.20609239E+0	-7.81000000E+2	2.00000000E+0	-9.52553159E+0	7.15798100E+6
118	10/05/2023	13:22:15.407	6.10869499E+0	-7.95000000E+2	2.00000000E+0	-9.52553159E+0	7.15798100E+6
119	10/05/2023	13:22:16.872	6.18961248E-1	-8.13000000E+2	2.00000000E+0	-9.52553159E+0	7.15798100E+6
120	10/05/2023	13:22:18.439	1.39937397E+0	-7.91000000E+2	2.00000000E+0	-9.52553159E+0	7.15798100E+6
121	10/05/2023	13:22:19.934	2.36424789E+0	-7.86000000E+2	2.00000000E+0	-9.52553159E+0	7.15798100E+6
122	10/05/2023	13:22:21.501	2.18975757E-1	-8.17000000E+2	2.00000000E+0	-9.52553159E+0	7.15798100E+6
123	10/05/2023	13:22:22.961	1.31270406E+0	-8.51000000E+2	2.00000000E+0	-9.52553159E+0	7.15798100E+6
124	10/05/2023	13:22:24.431	5.56835026E-1	-8.61000000E+2	2.00000000E+0	-9.52553159E+0	7.15798100E+6
125	10/05/2023	13:22:25.965	4.03130151E+0	-8.60000000E+2	2.00000000E+0	-9.52553159E+0	7.15798100E+6
126	10/05/2023	13:22:27.450	3.57110727E+0	-8.68000000E+2	2.00000000E+0	-9.52553159E+0	7.15798100E+6
127	10/05/2023	13:22:28.910	4.51527245E+0	-8.84000000E+2	2.00000000E+0	-9.52553159E+0	7.15798100E+6
128	10/05/2023	13:22:30.504	2.08621387E+0	-8.97000000E+2	2.00000000E+0	-9.52553159E+0	7.15798100E+6
129	10/05/2023	13:22:31.984	4.09074327E+0	-8.94000000E+2	2.00000000E+0	-9.52553159E+0	7.15798100E+6
130	10/05/2023	13:22:33.486	5.51849588E+0	-8.69000000E+2	2.00000000E+0	-9.52553159E+0	7.15798100E+6
131	10/05/2023	13:22:35.017	2.28601487E+0	-8.31000000E+2	2.00000000E+0	-9.52553159E+0	7.15798100E+6
132	10/05/2023	13:22:36.515	6.08760276E+0	-8.25000000E+2	2.00000000E+0	-9.52553159E+0	7.15798100E+6
133	10/05/2023	13:22:38.134	1.32152445E+0	-8.77000000E+2	2.00000000E+0	-9.52553159E+0	7.15798100E+6
134	10/05/2023	13:22:39.631	1.23868949E+0	-9.03000000E+2	2.00000000E+0	-9.52553159E+0	7.15798100E+6
135	10/05/2023	13:22:41.269	6.27129696E+0	-9.07000000E+2	2.00000000E+0	-9.52553159E+0	7.15798100E+6
136	10/05/2023	13:22:42.753	4.47232099E+0	-9.05000000E+2	2.00000000E+0	-9.52553159E+0	7.15798100E+6
137	10/05/2023	13:22:44.233	4.31815592E-1	-9.01000000E+2	2.00000000E+0	-9.52553159E+0	7.15798100E+6
138	10/05/2023	13:22:45.853	1.88794685E+0	-8.85000000E+2	2.00000000E+0	-9.52553159E+0	7.15798100E+6
139	10/05/2023	13:22:47.350	1.10446617E+0	-8.53000000E+2	2.00000000E+0	-9.52553159E+0	7.15798100E+6
140	10/05/2023	13:22:48.849	3.65854418E+0	-8.12000000E+2	2.00000000E+0	-9.52553159E+0	7.15798100E+6
141	10/05/2023	13:22:50.401	3.70839855E-1	-8.50000000E+2	2.00000000E+0	-9.52553159E+0	7.15798100E+6
142	10/05/2023	13:22:51.868	1.03888849E+0	-8.83000000E+2	2.00000000E+0	-9.52553159E+0	7.15798100E+6
143	10/05/2023	13:22:53.502	6.11406393E+0	-9.05000000E+2	2.00000000E+0	-9.52553159E+0	7.15798100E+6
144	10/05/2023	13:22:54.981	7.93068067E-1	-9.05000000E+2	2.00000000E+0	-9.52553159E+0	7.15798100E+6
145	10/05/2023	13:22:56.466	4.81554919E+0	-8.99000000E+2	2.00000000E+0	-9.52553159E+0	7.15798100E+6
146	10/05/2023	13:22:58.051	3.47945192E+0	-8.83000000E+2	2.00000000E+0	-9.52553159E+0	7.15798100E+6
147	10/05/2023	13:22:59.530	1.83579151E+0	-8.72000000E+2	2.00000000E+0	-9.52553159E+0	7.15798100E+6
148	10/05/2023	13:23:00.992	2.47891295E+0	-8.71000000E+2	2.00000000E+0	-9.52553159E+0	7.15798100E+6
149	10/05/2023	13:23:02.441	6.71883585E-1	-8.76000000E+2	2.00000000E+0	-9.52553159E+0	7.15798100E+6
150	10/05/2023	13:23:03.940	4.52639381E+0	-8.80000000E+2	2.00000000E+0	-9.52553159E+0	7.15798100E+6
151	10/05/2023	13:23:05.590	5.94302507E+0	-8.90000000E+2	2.00000000E+0	-9.52553159E+0	7.15798100E+6
152	10/05/2023	13:23:07.066	3.91548596E+0	-8.94000000E+2	2.00000000E+0	-9.52553159E+0	7.15798100E+6
153	10/05/2023	13:23:08.543	4.75303947E+0	-8.98000000E+2	2.00000000E+0	-9.52553159E+0	7.15798100E+6
154	10/05/2023	13:23:10.149	3.77435973E+0	-9.02000000E+2	2.00000000E+0	-9.52553159E+0	7.15798100E+6
155	10/05/2023	13:23:11.630	3.31378200E+0	-9.05000000E+2	2.00000000E+0	-9.52553159E+0	7.15798100E+6
156	10/05/2023	13:23:13.188	5.85635515E+0	-9.07000000E+2	2.00000000E+0	-9.52553159E+0	7.15798100E+6
157	10/05/2023	13:23:14.675	1.66130119E+0	-9.07000000E+2	2.00000000E+0	-9.52553159E+0	7.15798100E+6
158	10/05/2023	13:23:16.172	1.31001959E+0	-9.05000000E+2	2.00000000E+0	-9.52553159E+0	7.15798100E+6
159	10/05/2023	13:23:17.717	5.14458807E+0	-9.06000000E+2	2.00000000E+0	-9.52553159E+0	7.15798100E+6
160	10/05/2023	13:23:19.217	4.11605395E+0	-9.04000000E+2	2.00000000E+0	-9.52553159E+0	7.15798100E+6
161	10/05/2023	13:23:20.662	2.38150517E+0	-9.03000000E+2	2.00000000E+0	-9.52553159E+0	7.15798100E+6
162	10/05/2023	13:23:22.233	2.47354402E-1	-9.01000000E+2	2.00000000E+0	-9.52553159E+0	7.15798100E+6
163	10/05/2023	13:23:23.731	4.23493746E+0	-8.99000000E+2	2.00000000E+0	-9.52553159E+0	7.15798100E+6
164	10/05/2023	13:23:25.285	2.01066532E+0	-8.96000000E+2	2.00000000E+0	-9.52553159E+0	7.15798100E+6
165	10/05/2023	13:23:26.769	7.09082619E-1	-8.91000000E+2	2.00000000E+0	-9.52553159E+0	7.15798100E+6
166	10/05/2023	13:23:28.259	5.87706389E+0	-8.87000000E+2	2.00000000E+0	-9.52553159E+0	7.15798100E+6
167	10/05/2023	13:23:29.867	4.04050540E+0	-8.79000000E+2	2.00000000E+0	-9.52553159E+0	7.15798100E+6
168	10/05/2023	13:23:31.383	5.55301045E-1	-8.71000000E+2	2.00000000E+0	-9.52553159E+0	7.15798100E+6
169	10/05/2023	13:23:33.024	1.01089334E+0	-8.62000000E+2	2.00000000E+0	-9.52553159E+0	7.15798100E+6
170	10/05/2023	13:23:34.517	3.03037905E+0	-8.57000000E+2	2.00000000E+0	-9.52553159E+0	7.15798100E+6
171	10/05/2023	13:23:35.991	1.07263607E+0	-8.48000000E+2	2.00000000E+0	-9.52553159E+0	7.15798100E+6
172	10/05/2023	13:23:37.662	1.88679637E+0	-8.48000000E+2	2.00000000E+0	-9.52553159E+0	7.15798100E+6
173	10/05/2023	13:23:39.141	2.24728185E+0	-8.40000000E+2	2.00000000E+0	-9.52553159E+0	7.15798100E+6
174	10/05/2023	13:23:40.708	6.02854450E+0	-8.26000000E+2	2.00000000E+0	-9.52553159E+0	7.15798100E+6
175	10/05/2023	13:23:42.292	3.65355874E+0	-8.20000000E+2	2.00000000E+0	-9.52553159E+0	7.15798100E+6
176	10/05/2023	13:23:43.748	7.30174855E-1	-8.10000000E+2	2.00000000E+0	-9.52553159E+0	7.15798100E+6
177	10/05/2023	13:23:45.238	1.33839824E-1	-8.00000000E+2	2.00000000E+0	-9.52553159E+0	7.15798100E+6
178	10/05/2023	13:23:46.734	2.28294691E+0	-7.92000000E+2	2.00000000E+0	-9.52553159E+0	7.15798100E+6
179	10/05/2023	13:23:48.209	4.41901515E+0	-7.84000000E+2	2.00000000E+0	-9.52553159E+0	7.15798100E+6
180	10/05/2023	13:23:49.831	5.96335031E-1	-7.98000000E+2	2.00000000E+0	-9.52553159E+0	7.15798100E+6
181	10/05/2023	13:23:51.289	5.47055898E+0	-8.27000000E+2	2.00000000E+0	-9.52553159E+0	7.15798100E+6
182	10/05/2023	13:23:52.777	4.06504909E+0	-8.60000000E+2	2.00000000E+0	-9.52553159E+0	7.15798100E+6
183	10/05/2023	13:23:54.256	1.46034971E+0	-8.84000000E+2	2.00000000E+0	-9.52553159E+0	7.15798100E+6
184	10/05/2023	13:23:55.746	3.99180151E+0	-9.00000000E+2	2.00000000E+0	-9.52553159E+0	7.15798100E+6
185	10/05/2023	13:23:57.223	1.79015558E+0	-9.05000000E+2	2.00000000E+0	-9.52553159E+0	7.15798100E+6
186	10/05/2023	13:23:58.702	4.58085013E+0	-9.07000000E+2	2.00000000E+0	-9.52553159E+0	7.15798100E+6
187	10/05/2023	13:24:00.467	6.26094259E+0	-9.06000000E+2	2.00000000E+0	-9.52553159E+0	7.15798100E+6
188	10/05/2023	13:24:02.072	3.94769956E+0	-9.04000000E+2	2.00000000E+0	-9.52553159E+0	7.15798100E+6
189	10/05/2023	13:24:03.562	1.17809725E+0	-9.06000000E+2	2.00000000E+0	-9.52553159E+0	7.15798100E+6
190	10/05/2023	13:24:05.109	5.14113661E+0	-9.05000000E+2	2.00000000E+0	-9.52553159E+0	7.15798100E+6
191	10/05/2023	13:24:06.574	3.37705870E+0	-8.99000000E+2	2.00000000E+0	-9.52553159E+0	7.15798100E+6
192	10/05/2023	13:24:08.054	6.20035034E+0	-8.91000000E+2	2.00000000E+0	-9.52553159E+0	7.15798100E+6
193	10/05/2023	13:24:09.560	5.60248133E+0	-8.65000000E+2	2.00000000E+0	-9.52553159E+0	7.15798100E+6
194	10/05/2023	13:24:11.059	5.32866576E+0	-8.25000000E+2	2.00000000E+0	-9.52553159E+0	7.15798100E+6
195	10/05/2023	13:24:12.551	2.39377702E+0	-8.35000000E+2	2.00000000E+0	-9.52553159E+0	7.15798100E+6
196	10/05/2023	13:24:14.126	2.78762659E+0	-8.81000000E+2	2.00000000E+0	-9.52553159E+0	7.15798100E+6
197	10/05/2023	13:24:15.630	6.09182120E+0	-9.05000000E+2	2.00000000E+0	-9.52553159E+0	7.15798100E+6
198	10/05/2023	13:24:17.253	3.73524322E-1	-9.04000000E+2	2.00000000E+0	-9.52553159E+0	7.15798100E+6
199	10/05/2023	13:24:18.736	2.06895659E+0	-9.06000000E+2	2.00000000E+0	-9.52553159E+0	7.15798100E+6
200	10/05/2023	13:24:20.290	4.04357336E+0	-8.98000000E+2	2.00000000E+0	-9.52553159E+0	7.15798100E+6
201	10/05/2023	13:24:21.858	2.01334978E+0	-8.72000000E+2	2.00000000E+0	-9.52553159E+0	7.15798100E+6
202	10/05/2023	13:24:23.379	2.65915570E+0	-8.08000000E+2	2.00000000E+0	-9.52553159E+0	7.15798100E+6
203	10/05/2023	13:24:24.917	3.90014615E-1	-8.34000000E+2	2.00000000E+0	-9.52553159E+0	7.15798100E+6
204	10/05/2023	13:24:26.386	4.49839866E+0	-8.82000000E+2	2.00000000E+0	-9.52553159E+0	7.15798100E+6
205	10/05/2023	13:24:27.869	3.39776745E+0	-8.96000000E+2	2.00000000E+0	-9.52553159E+0	7.15798100E+6
206	10/05/2023	13:24:29.410	5.35167547E+0	-9.04000000E+2	2.00000000E+0	-9.52553159E+0	7.15798100E+6
207	10/05/2023	13:24:30.888	1.91670899E+0	-9.07000000E+2	2.00000000E+0	-9.52553159E+0	7.15798100E+6
208	10/05/2023	13:24:32.334	7.92684572E-1	-9.00000000E+2	2.00000000E+0	-9.52553159E+0	7.15798100E+6
209	10/05/2023	13:24:33.901	3.29805869E-1	-8.72000000E+2	2.00000000E+0	-9.52553159E+0	7.15798100E+6
210	10/05/2023	13:24:35.369	4.07003453E+0	-8.25000000E+2	2.00000000E+0	-9.52553159E+0	7.15798100E+6
211	10/05/2023	13:24:36.923	2.26875759E+0	-8.32000000E+2	2.00000000E+0	-9.52553159E+0	7.15798100E+6
212	10/05/2023	13:24:38.397	4.19543745E+0	-8.85000000E+2	2.00000000E+0	-9.52553159E+0	7.15798100E+6
213	10/05/2023	13:24:39.868	1.98036920E+0	-9.02000000E+2	2.00000000E+0	-9.52553159E+0	7.15798100E+6
214	10/05/2023	13:24:41.418	1.29774775E+0	-9.05000000E+2	2.00000000E+0	-9.52553159E+0	7.15798100E+6
215	10/05/2023	13:24:42.912	3.88864130E+0	-9.07000000E+2	2.00000000E+0	-9.52553159E+0	7.15798100E+6
216	10/05/2023	13:24:44.367	3.54848106E+0	-9.03000000E+2	2.00000000E+0	-9.52553159E+0	7.15798100E+6
217	10/05/2023	13:24:45.842	5.76124834E+0	-8.87000000E+2	2.00000000E+0	-9.52553159E+0	7.15798100E+6
218	10/05/2023	13:24:47.316	1.75602451E+0	-8.53000000E+2	2.00000000E+0	-9.52553159E+0	7.15798100E+6
219	10/05/2023	13:24:48.870	2.49847121E+0	-8.11000000E+2	2.00000000E+0	-9.52553159E+0	7.15798100E+6
220	10/05/2023	13:24:50.360	2.43097605E+0	-7.82000000E+2	2.00000000E+0	-9.52553159E+0	7.15798100E+6
221	10/05/2023	13:24:51.840	2.16252942E+0	-8.01000000E+2	2.00000000E+0	-9.52553159E+0	7.15798100E+6
222	10/05/2023	13:24:53.406	5.39347645E+0	-8.46000000E+2	2.00000000E+0	-9.52553159E+0	7.15798100E+6
223	10/05/2023	13:24:54.855	3.95767043E-1	-8.61000000E+2	2.00000000E+0	-9.52553159E+0	7.15798100E+6
224	10/05/2023	13:24:56.386	5.31831139E+0	-8.84000000E+2	2.00000000E+0	-9.52553159E+0	7.15798100E+6
225	10/05/2023	13:24:57.843	8.94694295E-1	-8.98000000E+2	2.00000000E+0	-9.52553159E+0	7.15798100E+6
226	10/05/2023	13:24:59.329	1.14818462E+0	-9.05000000E+2	2.00000000E+0	-9.52553159E+0	7.15798100E+6
227	10/05/2023	13:25:00.915	6.15624840E+0	-9.06000000E+2	2.00000000E+0	-9.52553159E+0	7.15798100E+6
228	10/05/2023	13:25:02.393	6.16161733E+0	-8.95000000E+2	2.00000000E+0	-9.52553159E+0	7.15798100E+6
229	10/05/2023	13:25:03.843	8.69383612E-1	-9.05000000E+2	2.00000000E+0	-9.52553159E+0	7.15798100E+6
230	10/05/2023	13:25:05.374	1.82582063E+0	-9.06000000E+2	2.00000000E+0	-9.52553159E+0	7.15798100E+6
231	10/05/2023	13:25:06.841	5.80343282E+0	-9.02000000E+2	2.00000000E+0	-9.52553159E+0	7.15798100E+6
232	10/05/2023	13:25:08.364	3.40927230E+0	-8.80000000E+2	2.00000000E+0	-9.52553159E+0	7.15798100E+6
233	10/05/2023	13:25:09.851	4.35650544E+0	-8.51000000E+2	2.00000000E+0	-9.52553159E+0	7.15798100E+6
234	10/05/2023	13:25:11.312	5.34247159E+0	-8.04000000E+2	2.00000000E+0	-9.52553159E+0	7.15798100E+6
235	10/05/2023	13:25:12.872	3.45605872E+0	-7.94000000E+2	2.00000000E+0	-9.52553159E+0	7.15798100E+6
236	10/05/2023	13:25:14.341	1.49946622E-1	-8.35000000E+2	2.00000000E+0	-9.52553159E+0	7.15798100E+6
237	10/05/2023	13:25:15.886	3.49134027E+0	-8.76000000E+2	2.00000000E+0	-9.52553159E+0	7.15798100E+6
238	10/05/2023	13:25:17.439	2.32551487E+0	-8.96000000E+2	2.00000000E+0	-9.52553159E+0	7.15798100E+6
239	10/05/2023	13:25:18.905	2.73547124E+0	-9.01000000E+2	2.00000000E+0	-9.52553159E+0	7.15798100E+6
240	10/05/2023	13:25:20.380	2.50460713E+0	-9.06000000E+2	2.00000000E+0	-9.52553159E+0	7.15798100E+6
241	10/05/2023	13:25:21.878	4.99195698E+0	-9.10000000E+2	2.00000000E+0	-9.52553159E+0	7.15798100E+6
242	10/05/2023	13:25:23.360	8.57111765E-1	-8.86000000E+2	2.00000000E+0	-9.52553159E+0	7.15798100E+6
243	10/05/2023	13:25:24.967	2.10999057E+0	-8.52000000E+2	2.00000000E+0	-9.52553159E+0	7.15798100E+6
244	10/05/2023	13:25:26.408	5.84139884E+0	-8.88000000E+2	2.00000000E+0	-9.52553159E+0	7.15798100E+6
245	10/05/2023	13:25:27.886	7.99203990E-1	-9.04000000E+2	2.00000000E+0	-9.52553159E+0	7.15798100E+6
246	10/05/2023	13:25:29.332	8.47140890E-1	-9.05000000E+2	2.00000000E+0	-9.52553159E+0	7.15798100E+6
247	10/05/2023	13:25:30.776	5.43029199E+0	-9.05000000E+2	2.00000000E+0	-9.52553159E+0	7.15798100E+6
248	10/05/2023	13:25:32.338	2.86240815E+0	-8.93000000E+2	2.00000000E+0	-9.52553159E+0	7.15798100E+6
249	10/05/2023	13:25:33.842	2.47891295E+0	-8.57000000E+2	2.00000000E+0	-9.52553159E+0	7.15798100E+6
250	10/05/2023	13:25:35.300	4.97469970E+0	-8.36000000E+2	2.00000000E+0	-9.52553159E+0	7.15798100E+6
251	10/05/2023	13:25:36.747	6.15624840E+0	-8.83000000E+2	2.00000000E+0	-9.52553159E+0	7.15798100E+6
252	10/05/2023	13:25:38.215	2.32283041E+0	-9.05000000E+2	2.00000000E+0	-9.52553159E+0	7.15798100E+6
253	10/05/2023	13:25:39.684	4.73731617E+0	-9.04000000E+2	2.00000000E+0	-9.52553159E+0	7.15798100E+6
254	10/05/2023	13:25:41.131	2.83594698E+0	-9.07000000E+2	2.00000000E+0	-9.52553159E+0	7.15798100E+6
255	10/05/2023	13:25:42.616	2.17480126E+0	-8.91000000E+2	2.00000000E+0	-9.52553159E+0	7.15798100E+6
256	10/05/2023	13:25:44.170	5.30488906E+0	-8.49000000E+2	2.00000000E+0	-9.52553159E+0	7.15798100E+6
257	10/05/2023	13:25:45.635	6.01128721E+0	-8.16000000E+2	2.00000000E+0	-9.52553159E+0	7.15798100E+6
258	10/05/2023	13:25:47.152	2.56251491E+0	-8.21000000E+2	2.00000000E+0	-9.52553159E+0	7.15798100E+6
259	10/05/2023	13:25:48.635	5.83411243E+0	-8.75000000E+2	2.00000000E+0	-9.52553159E+0	7.15798100E+6
260	10/05/2023	13:25:50.120	1.52784486E+0	-9.02000000E+2	2.00000000E+0	-9.52553159E+0	7.15798100E+6
261	10/05/2023	13:25:51.661	5.78886000E+0	-9.09000000E+2	2.00000000E+0	-9.52553159E+0	7.15798100E+6
262	10/05/2023	13:25:53.139	5.73632116E+0	-9.04000000E+2	2.00000000E+0	-9.52553159E+0	7.15798100E+6
263	10/05/2023	13:25:54.608	7.28640874E-3	-8.70000000E+2	2.00000000E+0	-9.52553159E+0	7.15798100E+6
264	10/05/2023	13:25:56.153	4.74536957E+0	-8.46000000E+2	2.00000000E+0	-9.52553159E+0	7.15798100E+6
265	10/05/2023	13:25:57.629	9.10801093E-1	-8.37000000E+2	2.00000000E+0	-9.52553159E+0	7.15798100E+6
266	10/05/2023	13:25:59.202	1.62333517E+0	-8.45000000E+2	2.00000000E+0	-9.52553159E+0	7.15798100E+6
267	10/05/2023	13:26:00.667	5.89355419E+0	-8.55000000E+2	2.00000000E+0	-9.52553159E+0	7.15798100E+6
268	10/05/2023	13:26:02.129	5.76968524E+0	-8.63000000E+2	2.00000000E+0	-9.52553159E+0	7.15798100E+6
269	10/05/2023	13:26:03.686	6.64597176E-1	-8.65000000E+2	2.00000000E+0	-9.52553159E+0	7.15798100E+6
270	10/05/2023	13:26:05.164	1.98228667E+0	-8.78000000E+2	2.00000000E+0	-9.52553159E+0	7.15798100E+6
271	10/05/2023	13:26:06.663	4.37568020E-1	-8.84000000E+2	2.00000000E+0	-9.52553159E+0	7.15798100E+6
272	10/05/2023	13:26:08.182	5.20671429E+0	-8.95000000E+2	2.00000000E+0	-9.52553159E+0	7.15798100E+6
273	10/05/2023	13:26:09.658	6.23831637E+0	-8.99000000E+2	2.00000000E+0	-9.52553159E+0	7.15798100E+6
274	10/05/2023	13:26:11.173	1.55085458E+0	-9.01000000E+2	2.00000000E+0	-9.52553159E+0	7.15798100E+6
275	10/05/2023	13:26:12.643	1.41279631E+0	-9.04000000E+2	2.00000000E+0	-9.52553159E+0	7.15798100E+6
276	10/05/2023	13:26:14.115	6.64980672E-1	-9.06000000E+2	2.00000000E+0	-9.52553159E+0	7.15798100E+6
277	10/05/2023	13:26:15.683	3.52623834E+0	-9.06000000E+2	2.00000000E+0	-9.52553159E+0	7.15798100E+6
278	10/05/2023	13:26:17.127	2.25878671E-1	-9.05000000E+2	2.00000000E+0	-9.52553159E+0	7.15798100E+6
279	10/05/2023	13:26:18.622	4.89608318E+0	-9.04000000E+2	2.00000000E+0	-9.52553159E+0	7.15798100E+6
280	10/05/2023	13:26:20.071	9.40713718E-1	-9.04000000E+2	2.00000000E+0	-9.52553159E+0	7.15798100E+6
281	10/05/2023	13:26:21.551	1.04003897E+0	-9.02000000E+2	2.00000000E+0	-9.52553159E+0	7.15798100E+6
282	10/05/2023	13:26:23.123	5.91004448E+0	-8.98000000E+2	2.00000000E+0	-9.52553159E+0	7.15798100E+6
283	10/05/2023	13:26:24.610	3.06029167E+0	-8.96000000E+2	2.00000000E+0	-9.52553159E+0	7.15798100E+6
284	10/05/2023	13:26:26.062	6.74568051E-1	-8.92000000E+2	2.00000000E+0	-9.52553159E+0	7.15798100E+6
285	10/05/2023	13:26:27.538	3.51588397E+0	-8.78000000E+2	2.00000000E+0	-9.52553159E+0	7.15798100E+6
286	10/05/2023	13:26:29.049	9.33043814E-1	-8.67000000E+2	2.00000000E+0	-9.52553159E+0	7.15798100E+6
287	10/05/2023	13:26:30.577	3.51051503E+0	-8.50000000E+2	2.00000000E+0	-9.52553159E+0	7.15798100E+6
288	10/05/2023	13:26:32.026	2.31746148E+0	-8.24000000E+2	2.00000000E+0	-9.52553159E+0	7.15798100E+6
289	10/05/2023	13:26:33.509	5.47937937E+0	-7.97000000E+2	2.00000000E+0	-9.52553159E+0	7.15798100E+6
290	10/05/2023	13:26:35.058	3.88097139E+0	-7.83000000E+2	2.00000000E+0	-9.52553159E+0	7.15798100E+6
291	10/05/2023	13:26:36.534	2.19896146E+0	-8.21000000E+2	2.00000000E+0	-9.52553159E+0	7.15798100E+6
292	10/05/2023	13:26:38.052	5.95146196E+0	-8.71000000E+2	2.00000000E+0	-9.52553159E+0	7.15798100E+6
293	10/05/2023	13:26:39.525	3.21407325E+0	-9.01000000E+2	2.00000000E+0	-9.52553159E+0	7.15798100E+6
294	10/05/2023	13:26:41.009	5.33825314E+0	-9.08000000E+2	2.00000000E+0	-9.52553159E+0	7.15798100E+6
295	10/05/2023	13:26:42.551	5.62510755E+0	-9.08000000E+2	2.00000000E+0	-9.52553159E+0	7.15798100E+6
296	10/05/2023	13:26:44.018	3.99525296E+0	-8.97000000E+2	2.00000000E+0	-9.52553159E+0	7.15798100E+6
297	10/05/2023	13:26:45.489	1.44040796E+0	-8.67000000E+2	2.00000000E+0	-9.52553159E+0	7.15798100E+6
298	10/05/2023	13:26:47.036	4.22228212E+0	-8.22000000E+2	2.00000000E+0	-9.52553159E+0	7.15798100E+6
299	10/05/2023	13:26:48.496	3.97914616E+0	-7.81000000E+2	2.00000000E+0	-9.52553159E+0	7.15798100E+6
300	10/05/2023	13:26:50.048	2.36233041E+0	-8.06000000E+2	2.00000000E+0	-9.52553159E+0	7.15798100E+6
301	10/05/2023	13:26:51.524	3.07946643E-1	-8.59000000E+2	2.00000000E+0	-9.52553159E+0	7.15798100E+6
302	10/05/2023	13:26:53.003	1.81393228E-1	-8.95000000E+2	2.00000000E+0	-9.52553159E+0	7.15798100E+6
303	10/05/2023	13:26:54.535	3.96418985E+0	-9.06000000E+2	2.00000000E+0	-9.52553159E+0	7.15798100E+6
304	10/05/2023	13:26:56.034	1.68546139E+0	-9.07000000E+2	2.00000000E+0	-9.52553159E+0	7.15798100E+6
305	10/05/2023	13:26:57.553	2.27949545E+0	-9.02000000E+2	2.00000000E+0	-9.52553159E+0	7.15798100E+6
306	10/05/2023	13:26:59.069	4.33579670E+0	-8.83000000E+2	2.00000000E+0	-9.52553159E+0	7.15798100E+6
307	10/05/2023	13:27:00.537	5.99402993E+0	-8.44000000E+2	2.00000000E+0	-9.52553159E+0	7.15798100E+6
308	10/05/2023	13:27:02.006	4.79752491E-1	-7.98000000E+2	2.00000000E+0	-9.52553159E+0	7.15798100E+6
309	10/05/2023	13:27:03.527	3.62211214E+0	-7.73000000E+2	2.00000000E+0	-9.52553159E+0	7.15798100E+6
310	10/05/2023	13:27:04.978	7.52801072E-1	-8.20000000E+2	2.00000000E+0	-9.52553159E+0	7.15798100E+6
311	10/05/2023	13:27:06.538	4.68209286E+0	-8.75000000E+2	2.00000000E+0	-9.52553159E+0	7.15798100E+6
312	10/05/2023	13:27:08.019	1.67664100E+0	-9.03000000E+2	2.00000000E+0	-9.52553159E+0	7.15798100E+6
313	10/05/2023	13:27:09.533	3.93887917E+0	-9.07000000E+2	2.00000000E+0	-9.52553159E+0	7.15798100E+6
314	10/05/2023	13:27:11.011	2.35466051E+0	-9.04000000E+2	2.00000000E+0	-9.52553159E+0	7.15798100E+6
315	10/05/2023	13:27:12.488	1.61873323E+0	-8.93000000E+2	2.00000000E+0	-9.52553159E+0	7.15798100E+6
316	10/05/2023	13:27:14.033	2.20471389E+0	-8.61000000E+2	2.00000000E+0	-9.52553159E+0	7.15798100E+6
317	10/05/2023	13:27:15.542	7.49733110E-1	-8.11000000E+2	2.00000000E+0	-9.52553159E+0	7.15798100E+6
318	10/05/2023	13:27:17.011	5.40344733E-1	-7.71000000E+2	2.00000000E+0	-9.52553159E+0	7.15798100E+6
319	10/05/2023	13:27:18.459	8.82038953E-1	-8.14000000E+2	2.00000000E+0	-9.52553159E+0	7.15798100E+6
320	10/05/2023	13:27:19.895	3.39508298E+0	-8.80000000E+2	2.00000000E+0	-9.52553159E+0	7.15798100E+6
321	10/05/2023	13:27:21.467	2.53758772E+0	-9.06000000E+2	2.00000000E+0	-9.52553159E+0	7.15798100E+6
322	10/05/2023	13:27:22.953	6.15356393E+0	-9.07000000E+2	2.00000000E+0	-9.52553159E+0	7.15798100E+6
323	10/05/2023	13:27:24.431	3.81270925E+0	-9.02000000E+2	2.00000000E+0	-9.52553159E+0	7.15798100E+6
324	10/05/2023	13:27:25.973	1.91402453E+0	-8.86000000E+2	2.00000000E+0	-9.52553159E+0	7.15798100E+6
325	10/05/2023	13:27:27.467	5.41456869E+0	-8.77000000E+2	2.00000000E+0	-9.52553159E+0	7.15798100E+6
326	10/05/2023	13:27:28.975	4.45084526E+0	-8.80000000E+2	2.00000000E+0	-9.52553159E+0	7.15798100E+6
327	10/05/2023	13:27:30.491	2.89615573E+0	-8.94000000E+2	2.00000000E+0	-9.52553159E+0	7.15798100E+6
328	10/05/2023	13:27:31.987	5.60900075E+0	-8.95000000E+2	2.00000000E+0	-9.52553159E+0	7.15798100E+6
329	10/05/2023	13:27:33.510	2.92376738E+0	-9.00000000E+2	2.00000000E+0	-9.52553159E+0	7.15798100E+6
330	10/05/2023	13:27:34.974	5.15801040E+0	-8.98000000E+2	2.00000000E+0	-9.52553159E+0	7.15798100E+6
331	10/05/2023	13:27:36.466	1.39860698E+0	-8.95000000E+2	2.00000000E+0	-9.52553159E+0	7.15798100E+6
332	10/05/2023	13:27:38.023	3.88940829E+0	-8.95000000E+2	2.00000000E+0	-9.52553159E+0	7.15798100E+6
333	10/05/2023	13:27:39.494	3.40428686E+0	-8.81000000E+2	2.00000000E+0	-9.52553159E+0	7.15798100E+6
334	10/05/2023	13:27:40.961	2.42560712E+0	-8.50000000E+2	2.00000000E+0	-9.52553159E+0	7.15798100E+6
335	10/05/2023	13:27:42.404	5.06213660E-2	-8.13000000E+2	2.00000000E+0	-9.52553159E+0	7.15798100E+6
336	10/05/2023	13:27:43.888	2.62349064E+0	-7.75000000E+2	2.00000000E+0	-9.52553159E+0	7.15798100E+6
337	10/05/2023	13:27:45.449	4.39102001E+0	-7.91000000E+2	2.00000000E+0	-9.52553159E+0	7.15798100E+6
338	10/05/2023	13:27:46.942	2.65877220E+0	-8.23000000E+2	2.00000000E+0	-9.52553159E+0	7.15798100E+6
339	10/05/2023	13:27:48.492	1.76714587E+0	-8.59000000E+2	2.00000000E+0	-9.52553159E+0	7.15798100E+6
340	10/05/2023	13:27:49.966	5.80803476E+0	-8.71000000E+2	2.00000000E+0	-9.52553159E+0	7.15798100E+6
341	10/05/2023	13:27:51.517	4.98045212E+0	-8.91000000E+2	2.00000000E+0	-9.52553159E+0	7.15798100E+6
342	10/05/2023	13:27:53.050	4.14941803E-1	-8.98000000E+2	2.00000000E+0	-9.52553159E+0	7.15798100E+6
343	10/05/2023	13:27:54.508	1.84461190E+0	-9.00000000E+2	2.00000000E+0	-9.52553159E+0	7.15798100E+6
344	10/05/2023	13:27:55.980	5.91004448E+0	-9.03000000E+2	2.00000000E+0	-9.52553159E+0	7.15798100E+6
345	10/05/2023	13:27:57.551	3.05415575E+0	-9.05000000E+2	2.00000000E+0	-9.52553159E+0	7.15798100E+6
346	10/05/2023	13:27:59.013	5.04181135E+0	-9.07000000E+2	2.00000000E+0	-9.52553159E+0	7.15798100E+6
347	10/05/2023	13:28:00.585	2.42023819E+0	-9.05000000E+2	2.00000000E+0	-9.52553159E+0	7.15798100E+6
348	10/05/2023	13:28:02.044	1.39208757E+0	-9.02000000E+2	2.00000000E+0	-9.52553159E+0	7.15798100E+6
349	10/05/2023	13:28:03.500	4.29131125E-1	-8.98000000E+2	2.00000000E+0	-9.52553159E+0	7.15798100E+6
350	10/05/2023	13:28:05.079	2.35120905E+0	-8.91000000E+2	2.00000000E+0	-9.52553159E+0	7.15798100E+6
351	10/05/2023	13:28:06.564	1.53781574E+0	-8.82000000E+2	2.00000000E+0	-9.52553159E+0	7.15798100E+6
352	10/05/2023	13:28:08.049	5.30258809E+0	-8.72000000E+2	2.00000000E+0	-9.52553159E+0	7.15798100E+6
353	10/05/2023	13:28:09.509	3.19834994E-1	-8.59000000E+2	2.00000000E+0	-9.52553159E+0	7.15798100E+6
354	10/05/2023	13:28:10.979	4.72120937E+0	-8.42000000E+2	2.00000000E+0	-9.52553159E+0	7.15798100E+6
355	10/05/2023	13:28:12.568	1.50521865E+0	-8.21000000E+2	2.00000000E+0	-9.52553159E+0	7.15798100E+6
356	10/05/2023	13:28:14.033	4.22419959E+0	-7.98000000E+2	2.00000000E+0	-9.52553159E+0	7.15798100E+6
357	10/05/2023	13:28:15.511	2.26990807E+0	-7.81000000E+2	2.00000000E+0	-9.52553159E+0	7.15798100E+6
358	10/05/2023	13:28:17.041	3.88097139E-1	-8.08000000E+2	2.00000000E+0	-9.52553159E+0	7.15798100E+6
359	10/05/2023	13:28:18.585	3.78931604E+0	-8.31000000E+2	2.00000000E+0	-9.52553159E+0	7.15798100E+6
360	10/05/2023	13:28:20.131	4.13714618E+0	-8.00000000E+2	2.00000000E+0	-9.52553159E+0	7.15798100E+6
361	10/05/2023	13:28:21.585	5.38043761E+0	-7.98000000E+2	2.00000000E+0	-9.52553159E+0	7.15798100E+6
362	10/05/2023	13:28:23.034	5.55416094E+0	-8.23000000E+2	2.00000000E+0	-9.52553159E+0	7.15798100E+6
363	10/05/2023	13:28:24.594	5.21591817E+0	-8.49000000E+2	2.00000000E+0	-9.52553159E+0	7.15798100E+6
364	10/05/2023	13:28:26.064	2.16521388E+0	-8.28000000E+2	2.00000000E+0	-9.52553159E+0	7.15798100E+6
365	10/05/2023	13:28:27.536	1.48757787E+0	-8.23000000E+2	2.00000000E+0	-9.52553159E+0	7.15798100E+6
366	10/05/2023	13:28:29.109	1.76906334E+0	-8.53000000E+2	2.00000000E+0	-9.52553159E+0	7.15798100E+6
367	10/05/2023	13:28:30.589	8.86640895E-1	-8.68000000E+2	2.00000000E+0	-9.52553159E+0	7.15798100E+6
368	10/05/2023	13:28:32.081	2.86202465E+0	-8.84000000E+2	2.00000000E+0	-9.52553159E+0	7.15798100E+6
369	10/05/2023	13:28:33.620	5.41763665E+0	-8.97000000E+2	2.00000000E+0	-9.52553159E+0	7.15798100E+6
370	10/05/2023	13:28:35.078	5.83602991E+0	-9.05000000E+2	2.00000000E+0	-9.52553159E+0	7.15798100E+6
371	10/05/2023	13:28:36.645	4.03053452E+0	-9.09000000E+2	2.00000000E+0	-9.52553159E+0	7.15798100E+6
372	10/05/2023	13:28:38.125	1.85611675E+0	-9.06000000E+2	2.00000000E+0	-9.52553159E+0	7.15798100E+6
373	10/05/2023	13:28:39.686	2.87122854E+0	-9.06000000E+2	2.00000000E+0	-9.52553159E+0	7.15798100E+6
374	10/05/2023	13:28:41.247	2.13530126E+0	-9.01000000E+2	2.00000000E+0	-9.52553159E+0	7.15798100E+6
375	10/05/2023	13:28:42.714	5.66038911E+0	-8.75000000E+2	2.00000000E+0	-9.52553159E+0	7.15798100E+6
376	10/05/2023	13:28:44.299	4.15056852E+0	-8.38000000E+2	2.00000000E+0	-9.52553159E+0	7.15798100E+6
377	10/05/2023	13:28:45.743	8.87791381E-1	-8.48000000E+2	2.00000000E+0	-9.52553159E+0	7.15798100E+6
378	10/05/2023	13:28:47.216	6.12250082E+0	-8.93000000E+2	2.00000000E+0	-9.52553159E+0	7.15798100E+6
379	10/05/2023	13:28:48.790	5.18255409E+0	-9.08000000E+2	2.00000000E+0	-9.52553159E+0	7.15798100E+6
380	10/05/2023	13:28:50.260	6.11214645E+0	-9.07000000E+2	2.00000000E+0	-9.52553159E+0	7.15798100E+6
381	10/05/2023	13:28:51.839	4.21844717E-1	-8.91000000E+2	2.00000000E+0	-9.52553159E+0	7.15798100E+6
382	10/05/2023	13:28:53.273	8.86640895E-1	-8.53000000E+2	2.00000000E+0	-9.52553159E+0	7.15798100E+6
383	10/05/2023	13:28:54.761	2.21851971E+0	-7.96000000E+2	2.00000000E+0	-9.52553159E+0	7.15798100E+6
384	10/05/2023	13:28:56.311	3.50131115E+0	-8.23000000E+2	2.00000000E+0	-9.52553159E+0	7.15798100E+6
385	10/05/2023	13:28:57.907	3.09864119E-1	-8.82000000E+2	2.00000000E+0	-9.52553159E+0	7.15798100E+6
386	10/05/2023	13:28:59.391	2.46242266E+0	-9.07000000E+2	2.00000000E+0	-9.52553159E+0	7.15798100E+6
387	10/05/2023	13:29:00.933	1.89791773E+0	-9.02000000E+2	2.00000000E+0	-9.52553159E+0	7.15798100E+6
388	10/05/2023	13:29:02.390	3.87253450E+0	-8.98000000E+2	2.00000000E+0	-9.52553159E+0	7.15798100E+6
389	10/05/2023	13:29:04.054	3.26201015E+0	-8.46000000E+2	2.00000000E+0	-9.52553159E+0	7.15798100E+6
390	10/05/2023	13:29:05.516	4.60155887E+0	-7.84000000E+2	2.00000000E+0	-9.52553159E+0	7.15798100E+6
391	10/05/2023	13:29:06.989	4.92254435E+0	-8.46000000E+2	2.00000000E+0	-9.52553159E+0	7.15798100E+6
392	10/05/2023	13:29:08.662	3.59526747E+0	-8.99000000E+2	2.00000000E+0	-9.52553159E+0	7.15798100E+6
393	10/05/2023	13:29:10.290	3.56113640E+0	-9.00000000E+2	2.00000000E+0	-9.52553159E+0	7.15798100E+6
394	10/05/2023	13:29:11.808	5.00576281E+0	-8.85000000E+2	2.00000000E+0	-9.52553159E+0	7.15798100E+6
395	10/05/2023	13:29:13.286	3.40812182E+0	-8.54000000E+2	2.00000000E+0	-9.52553159E+0	7.15798100E+6
396	10/05/2023	13:29:14.757	5.93957361E+0	-8.25000000E+2	2.00000000E+0	-9.52553159E+0	7.15798100E+6
397	10/05/2023	13:29:16.310	4.31163650E+0	-8.43000000E+2	2.00000000E+0	-9.52553159E+0	7.15798100E+6
398	10/05/2023	13:29:17.812	2.29790322E+0	-8.88000000E+2	2.00000000E+0	-9.52553159E+0	7.15798100E+6
399	10/05/2023	13:29:19.308	3.09288876E+0	-9.03000000E+2	2.00000000E+0	-9.52553159E+0	7.15798100E+6
400	10/05/2023	13:29:20.908	4.23838892E+0	-9.05000000E+2	2.00000000E+0	-9.52553159E+0	7.15798100E+6
401	10/05/2023	13:29:22.400	2.79951494E+0	-9.05000000E+2	2.00000000E+0	-9.52553159E+0	7.15798100E+6
402	10/05/2023	13:29:24.013	3.82689857E+0	-9.05000000E+2	2.00000000E+0	-9.52553159E+0	7.15798100E+6
403	10/05/2023	13:29:25.514	3.58874805E+0	-8.82000000E+2	2.00000000E+0	-9.52553159E+0	7.15798100E+6
404	10/05/2023	13:29:26.988	6.22757850E+0	-8.44000000E+2	2.00000000E+0	-9.52553159E+0	7.15798100E+6
405	10/05/2023	13:29:28.534	2.76193241E+0	-7.98000000E+2	2.00000000E+0	-9.52553159E+0	7.15798100E+6
406	10/05/2023	13:29:30.013	1.73416528E+0	-7.85000000E+2	2.00000000E+0	-9.52553159E+0	7.15798100E+6
407	10/05/2023	13:29:31.524	3.05914119E+0	-8.42000000E+2	2.00000000E+0	-9.52553159E+0	7.15798100E+6
408	10/05/2023	13:29:32.990	3.80695682E+0	-8.88000000E+2	2.00000000E+0	-9.52553159E+0	7.15798100E+6
409	10/05/2023	13:29:34.451	3.08138391E+0	-9.03000000E+2	2.00000000E+0	-9.52553159E+0	7.15798100E+6
410	10/05/2023	13:29:36.049	5.77352019E+0	-9.07000000E+2	2.00000000E+0	-9.52553159E+0	7.15798100E+6
411	10/05/2023	13:29:37.525	4.57663168E+0	-9.01000000E+2	2.00000000E+0	-9.52553159E+0	7.15798100E+6
412	10/05/2023	13:29:39.004	9.01597208E-1	-8.84000000E+2	2.00000000E+0	-9.52553159E+0	7.15798100E+6
413	10/05/2023	13:29:40.582	5.41035024E+0	-8.46000000E+2	2.00000000E+0	-9.52553159E+0	7.15798100E+6
414	10/05/2023	13:29:42.086	8.59029241E-1	-7.92000000E+2	2.00000000E+0	-9.52553159E+0	7.15798100E+6
415	10/05/2023	13:29:43.599	2.53336927E+0	-7.91000000E+2	2.00000000E+0	-9.52553159E+0	7.15798100E+6
416	10/05/2023	13:29:45.052	5.01074824E+0	-8.31000000E+2	2.00000000E+0	-9.52553159E+0	7.15798100E+6
417	10/05/2023	13:29:46.500	3.71951992E+0	-8.71000000E+2	2.00000000E+0	-9.52553159E+0	7.15798100E+6
418	10/05/2023	13:29:48.057	5.39961237E+0	-8.99000000E+2	2.00000000E+0	-9.52553159E+0	7.15798100E+6
419	10/05/2023	13:29:49.544	5.55952987E+0	-9.09000000E+2	2.00000000E+0	-9.52553159E+0	7.15798100E+6
420	10/05/2023	13:29:51.002	1.43925747E+0	-9.05000000E+2	2.00000000E+0	-9.52553159E+0	7.15798100E+6
421	10/05/2023	13:29:52.493	5.98060760E+0	-8.99000000E+2	2.00000000E+0	-9.52553159E+0	7.15798100E+6
422	10/05/2023	13:29:53.988	2.08966533E+0	-8.83000000E+2	2.00000000E+0	-9.52553159E+0	7.15798100E+6
423	10/05/2023	13:29:55.537	3.20832082E+0	-8.66000000E+2	2.00000000E+0	-9.52553159E+0	7.15798100E+6
424	10/05/2023	13:29:57.001	5.51351045E+0	-8.16000000E+2	2.00000000E+0	-9.52553159E+0	7.15798100E+6
425	10/05/2023	13:29:58.489	5.61168522E+0	-7.80000000E+2	2.00000000E+0	-9.52553159E+0	7.15798100E+6
426	10/05/2023	13:30:00.038	5.14688904E+0	-8.27000000E+2	2.00000000E+0	-9.52553159E+0	7.15798100E+6
427	10/05/2023	13:30:01.512	4.88151036E+0	-8.72000000E+2	2.00000000E+0	-9.52553159E+0	7.15798100E+6
428	10/05/2023	13:30:03.008	3.74137914E+0	-8.82000000E+2	2.00000000E+0	-9.52553159E+0	7.15798100E+6
429	10/05/2023	13:30:04.508	1.31922348E-1	-8.85000000E+2	2.00000000E+0	-9.52553159E+0	7.15798100E+6
430	10/05/2023	13:30:05.976	2.87544699E+0	-8.95000000E+2	2.00000000E+0	-9.52553159E+0	7.15798100E+6
431	10/05/2023	13:30:07.550	4.02094714E+0	-9.02000000E+2	2.00000000E+0	-9.52553159E+0	7.15798100E+6
432	10/05/2023	13:30:09.030	1.82620413E+0	-9.05000000E+2	2.00000000E+0	-9.52553159E+0	7.15798100E+6
433	10/05/2023	13:30:10.498	3.49862668E+0	-9.06000000E+2	2.00000000E+0	-9.52553159E+0	7.15798100E+6
434	10/05/2023	13:30:12.047	5.96986973E+0	-9.07000000E+2	2.00000000E+0	-9.52553159E+0	7.15798100E+6
435	10/05/2023	13:30:13.536	3.15923343E+0	-9.06000000E+2	2.00000000E+0	-9.52553159E+0	7.15798100E+6
436	10/05/2023	13:30:15.064	1.65094682E+0	-9.06000000E+2	2.00000000E+0	-9.52553159E+0	7.15798100E+6
437	10/05/2023	13:30:16.549	3.40160240E-1	-9.06000000E+2	2.00000000E+0	-9.52553159E+0	7.15798100E+6
438	10/05/2023	13:30:18.045	6.18155908E+0	-9.07000000E+2	2.00000000E+0	-9.52553159E+0	7.15798100E+6
439	10/05/2023	13:30:19.609	3.94309762E+0	-9.06000000E+2	2.00000000E+0	-9.52553159E+0	7.15798100E+6
440	10/05/2023	13:30:21.076	4.17012677E+0	-9.04000000E+2	2.00000000E+0	-9.52553159E+0	7.15798100E+6
441	10/05/2023	13:30:22.649	4.41633069E+0	-9.05000000E+2	2.00000000E+0	-9.52553159E+0	7.15798100E+6
442	10/05/2023	13:30:24.088	4.76301035E-1	-9.02000000E+2	2.00000000E+0	-9.52553159E+0	7.15798100E+6
443	10/05/2023	13:30:25.536	2.97477224E+0	-8.99000000E+2	2.00000000E+0	-9.52553159E+0	7.15798100E+6
444	10/05/2023	13:30:27.049	5.67572892E-1	-8.98000000E+2	2.00000000E+0	-9.52553159E+0	7.15798100E+6
445	10/05/2023	13:30:28.518	1.63100507E+0	-8.92000000E+2	2.00000000E+0	-9.52553159E+0	7.15798100E+6
446	10/05/2023	13:30:29.995	3.04150041E+0	-8.89000000E+2	2.00000000E+0	-9.52553159E+0	7.15798100E+6
447	10/05/2023	13:30:31.570	1.38518465E+0	-8.83000000E+2	2.00000000E+0	-9.52553159E+0	7.15798100E+6
448	10/05/2023	13:30:33.032	3.20103441E+0	-8.77000000E+2	2.00000000E+0	-9.52553159E+0	7.15798100E+6
449	10/05/2023	13:30:34.502	5.32828227E+0	-8.74000000E+2	2.00000000E+0	-9.52553159E+0	7.15798100E+6
450	10/05/2023	13:30:35.974	8.51359337E-1	-8.67000000E+2	2.00000000E+0	-9.52553159E+0	7.15798100E+6
451	10/05/2023	13:30:37.484	6.07226295E+0	-8.62000000E+2	2.00000000E+0	-9.52553159E+0	7.15798100E+6
452	10/05/2023	13:30:39.058	2.47047606E+0	-8.54000000E+2	2.00000000E+0	-9.52553159E+0	7.15798100E+6
453	10/05/2023	13:30:40.516	3.37935968E+0	-8.42000000E+2	2.00000000E+0	-9.52553159E+0	7.15798100E+6
454	10/05/2023	13:30:42.009	3.10401012E+0	-8.30000000E+2	2.00000000E+0	-9.52553159E+0	7.15798100E+6
455	10/05/2023	13:30:43.475	4.85389871E+0	-8.19000000E+2	2.00000000E+0	-9.52553159E+0	7.15798100E+6
456	10/05/2023	13:30:44.955	1.60300992E+0	-8.05000000E+2	2.00000000E+0	-9.52553159E+0	7.15798100E+6
457	10/05/2023	13:30:46.494	6.01052022E+0	-7.94000000E+2	2.00000000E+0	-9.52553159E+0	7.15798100E+6
458	10/05/2023	13:30:47.962	3.28233539E+0	-7.83000000E+2	2.00000000E+0	-9.52553159E+0	7.15798100E+6
459	10/05/2023	13:30:49.446	2.49271878E+0	-7.93000000E+2	2.00000000E+0	-9.52553159E+0	7.15798100E+6
460	10/05/2023	13:30:51.012	1.84077695E+0	-8.05000000E+2	2.00000000E+0	-9.52553159E+0	7.15798100E+6
461	10/05/2023	13:30:52.473	9.39563233E-1	-8.23000000E+2	2.00000000E+0	-9.52553159E+0	7.15798100E+6
462	10/05/2023	13:30:53.957	2.41141780E+0	-8.36000000E+2	2.00000000E+0	-9.52553159E+0	7.15798100E+6
463	10/05/2023	13:30:55.446	6.03429692E+0	-8.51000000E+2	2.00000000E+0	-9.52553159E+0	7.15798100E+6
464	10/05/2023	13:30:56.930	3.24283539E+0	-8.59000000E+2	2.00000000E+0	-9.52553159E+0	7.15798100E+6
465	10/05/2023	13:30:58.529	3.04955381E+0	-8.72000000E+2	2.00000000E+0	-9.52553159E+0	7.15798100E+6
466	10/05/2023	13:30:59.976	4.55247148E+0	-8.78000000E+2	2.00000000E+0	-9.52553159E+0	7.15798100E+6
467	10/05/2023	13:31:01.428	4.38066564E+0	-8.86000000E+2	2.00000000E+0	-9.52553159E+0	7.15798100E+6
468	10/05/2023	13:31:02.992	4.48382584E+0	-8.94000000E+2	2.00000000E+0	-9.52553159E+0	7.15798100E+6
469	10/05/2023	13:31:04.511	2.59587899E+0	-8.99000000E+2	2.00000000E+0	-9.52553159E+0	7.15798100E+6
470	10/05/2023	13:31:06.022	1.12709238E+0	-9.03000000E+2	2.00000000E+0	-9.52553159E+0	7.15798100E+6
471	10/05/2023	13:31:07.491	8.12242827E-1	-9.05000000E+2	2.00000000E+0	-9.52553159E+0	7.15798100E+6
472	10/05/2023	13:31:08.958	4.27673844E+0	-9.06000000E+2	2.00000000E+0	-9.52553159E+0	7.15798100E+6
473	10/05/2023	13:31:10.549	6.10140858E+0	-9.07000000E+2	2.00000000E+0	-9.52553159E+0	7.15798100E+6
474	10/05/2023	13:31:12.014	5.30642304E+0	-9.04000000E+2	2.00000000E+0	-9.52553159E+0	7.15798100E+6
475	10/05/2023	13:31:13.460	1.68354391E+0	-9.01000000E+2	2.00000000E+0	-9.52553159E+0	7.15798100E+6
476	10/05/2023	13:31:15.038	4.98543756E-3	-8.96000000E+2	2.00000000E+0	-9.52553159E+0	7.15798100E+6
477	10/05/2023	13:31:16.519	3.61981116E+0	-8.92000000E+2	2.00000000E+0	-9.52553159E+0	7.15798100E+6
478	10/05/2023	13:31:17.994	5.81493767E+0	-8.80000000E+2	2.00000000E+0	-9.52553159E+0	7.15798100E+6
479	10/05/2023	13:31:19.463	4.30741805E+0	-8.69000000E+2	2.00000000E+0	-9.52553159E+0	7.15798100E+6
480	10/05/2023	13:31:20.912	2.05745173E+0	-8.60000000E+2	2.00000000E+0	-9.52553159E+0	7.15798100E+6
481	10/05/2023	13:31:22.470	3.97377723E+0	-8.47000000E+2	2.00000000E+0	-9.52553159E+0	7.15798100E+6
482	10/05/2023	13:31:23.978	3.24551985E+0	-8.37000000E+2	2.00000000E+0	-9.52553159E+0	7.15798100E+6
483	10/05/2023	13:31:25.424	3.86179663E-1	-8.18000000E+2	2.00000000E+0	-9.52553159E+0	7.15798100E+6
484	10/05/2023	13:31:26.895	2.74160716E+0	-8.10000000E+2	2.00000000E+0	-9.52553159E+0	7.15798100E+6
485	10/05/2023	13:31:28.370	5.61130172E+0	-8.01000000E+2	2.00000000E+0	-9.52553159E+0	7.15798100E+6
486	10/05/2023	13:31:29.914	1.88756336E+0	-7.89000000E+2	2.00000000E+0	-9.52553159E+0	7.15798100E+6
487	10/05/2023	13:31:31.379	9.34194300E-1	-7.84000000E+2	2.00000000E+0	-9.52553159E+0	7.15798100E+6
488	10/05/2023	13:31:32.858	4.71430646E+0	-7.97000000E+2	2.00000000E+0	-9.52553159E+0	7.15798100E+6
489	10/05/2023	13:31:34.307	5.89470467E+0	-8.10000000E+2	2.00000000E+0	-9.52553159E+0	7.15798100E+6
490	10/05/2023	13:31:35.792	5.92730176E+0	-8.23000000E+2	2.00000000E+0	-9.52553159E+0	7.15798100E+6
491	10/05/2023	13:31:37.316	5.06021912E+0	-8.36000000E+2	2.00000000E+0	-9.52553159E+0	7.15798100E+6
492	10/05/2023	13:31:38.760	4.21269474E+0	-8.49000000E+2	2.00000000E+0	-9.52553159E+0	7.15798100E+6
493	10/05/2023	13:31:40.244	2.66375764E+0	-8.56000000E+2	2.00000000E+0	-9.52553159E+0	7.15798100E+6
494	10/05/2023	13:31:41.871	3.73064128E+0	-8.72000000E+2	2.00000000E+0	-9.52553159E+0	7.15798100E+6
495	10/05/2023	13:31:43.343	5.01611718E+0	-8.85000000E+2	2.00000000E+0	-9.52553159E+0	7.15798100E+6
496	10/05/2023	13:31:44.843	4.84354434E+0	-8.94000000E+2	2.00000000E+0	-9.52553159E+0	7.15798100E+6
497	10/05/2023	13:31:46.344	4.61268023E+0	-8.99000000E+2	2.00000000E+0	-9.52553159E+0	7.15798100E+6
498	10/05/2023	13:31:47.809	2.20778185E+0	-9.03000000E+2	2.00000000E+0	-9.52553159E+0	7.15798100E+6
499	10/05/2023	13:31:49.273	6.24483579E+0	-9.06000000E+2	2.00000000E+0	-9.52553159E+0	7.15798100E+6
500	10/05/2023	13:31:50.760	4.40559282E+0	-9.07000000E+2	2.00000000E+0	-9.52553159E+0	7.15798100E+6
