#Iteration	Date	Time	STSX	STSY	RotationRateX	RotationRateY	FrCntX	FrCntY	TiptiltCmd1	TiptiltCmd2	TiptiltMonitor1	TiptiltMonitor2
1	02/09/2022	14:22:54.715	0.00000E+0	0.00000E+0	2.00000E+1	0.00000E+0	0.00000E+0	0.00000E+0	2.00000E+1	1.40000E+1	1.99996E+1	1.39996E+1
2	02/09/2022	14:22:56.160	0.00000E+0	0.00000E+0	2.00000E+1	0.00000E+0	0.00000E+0	0.00000E+0	2.00000E+1	1.40000E+1	2.00003E+1	1.40005E+1
3	02/09/2022	14:22:57.538	0.00000E+0	0.00000E+0	2.00000E+1	0.00000E+0	0.00000E+0	0.00000E+0	2.00000E+1	1.40000E+1	2.00007E+1	1.40012E+1
4	02/09/2022	14:22:59.015	0.00000E+0	0.00000E+0	2.00000E+1	0.00000E+0	0.00000E+0	0.00000E+0	2.00000E+1	1.40000E+1	2.00006E+1	1.39989E+1
5	02/09/2022	14:23:00.399	0.00000E+0	0.00000E+0	2.00000E+1	0.00000E+0	0.00000E+0	0.00000E+0	2.00000E+1	1.40000E+1	1.99982E+1	1.40011E+1
6	02/09/2022	14:23:01.870	0.00000E+0	0.00000E+0	2.00000E+1	0.00000E+0	0.00000E+0	0.00000E+0	2.00000E+1	1.40000E+1	1.99996E+1	1.39967E+1
7	02/09/2022	14:23:03.390	0.00000E+0	0.00000E+0	2.00000E+1	0.00000E+0	0.00000E+0	0.00000E+0	2.00000E+1	1.40000E+1	2.00018E+1	1.39987E+1
8	02/09/2022	14:23:04.791	0.00000E+0	0.00000E+0	2.00000E+1	0.00000E+0	0.00000E+0	0.00000E+0	2.00000E+1	1.40000E+1	2.00025E+1	1.39998E+1
9	02/09/2022	14:23:06.349	0.00000E+0	0.00000E+0	2.00000E+1	0.00000E+0	0.00000E+0	0.00000E+0	2.00000E+1	1.40000E+1	2.00003E+1	1.40005E+1
10	02/09/2022	14:23:07.744	0.00000E+0	0.00000E+0	2.00000E+1	0.00000E+0	0.00000E+0	0.00000E+0	2.00000E+1	1.40000E+1	1.99997E+1	1.40009E+1
11	02/09/2022	14:23:09.131	0.00000E+0	0.00000E+0	2.00000E+1	0.00000E+0	0.00000E+0	0.00000E+0	2.00000E+1	1.40000E+1	1.99983E+1	1.39988E+1
12	02/09/2022	14:23:10.609	0.00000E+0	0.00000E+0	2.00000E+1	0.00000E+0	0.00000E+0	0.00000E+0	2.00000E+1	1.40000E+1	1.99975E+1	1.39993E+1
13	02/09/2022	14:23:12.020	0.00000E+0	0.00000E+0	2.00000E+1	0.00000E+0	0.00000E+0	0.00000E+0	2.00000E+1	1.40000E+1	2.00008E+1	1.40013E+1
14	02/09/2022	14:23:13.473	0.00000E+0	0.00000E+0	2.00000E+1	0.00000E+0	0.00000E+0	0.00000E+0	2.00000E+1	1.40000E+1	1.99976E+1	1.39982E+1
15	02/09/2022	14:23:14.964	0.00000E+0	0.00000E+0	2.00000E+1	0.00000E+0	0.00000E+0	0.00000E+0	2.00000E+1	1.40000E+1	2.00019E+1	1.40013E+1
16	02/09/2022	14:23:16.361	0.00000E+0	0.00000E+0	2.00000E+1	0.00000E+0	0.00000E+0	0.00000E+0	2.00000E+1	1.40000E+1	2.00003E+1	1.39996E+1
17	02/09/2022	14:23:17.898	0.00000E+0	0.00000E+0	2.00000E+1	0.00000E+0	0.00000E+0	0.00000E+0	2.00000E+1	1.40000E+1	2.00000E+1	1.40009E+1
18	02/09/2022	14:23:19.279	0.00000E+0	0.00000E+0	2.00000E+1	0.00000E+0	0.00000E+0	0.00000E+0	2.00000E+1	1.40000E+1	2.00026E+1	1.40005E+1
19	02/09/2022	14:23:20.674	0.00000E+0	0.00000E+0	2.00000E+1	0.00000E+0	0.00000E+0	0.00000E+0	2.00000E+1	1.40000E+1	2.00030E+1	1.40000E+1
20	02/09/2022	14:23:22.120	0.00000E+0	0.00000E+0	2.00000E+1	0.00000E+0	0.00000E+0	0.00000E+0	2.00000E+1	1.40000E+1	2.00037E+1	1.39983E+1
21	02/09/2022	14:23:23.505	0.00000E+0	0.00000E+0	2.00000E+1	0.00000E+0	0.00000E+0	0.00000E+0	2.00000E+1	1.40000E+1	2.00012E+1	1.40000E+1
22	02/09/2022	14:23:25.052	0.00000E+0	0.00000E+0	2.00000E+1	0.00000E+0	0.00000E+0	0.00000E+0	2.00000E+1	1.40000E+1	1.99991E+1	1.39981E+1
23	02/09/2022	14:23:26.476	0.00000E+0	0.00000E+0	2.00000E+1	0.00000E+0	0.00000E+0	0.00000E+0	2.00000E+1	1.40000E+1	2.00007E+1	1.40018E+1
24	02/09/2022	14:23:27.855	0.00000E+0	0.00000E+0	2.00000E+1	0.00000E+0	0.00000E+0	0.00000E+0	2.00000E+1	1.40000E+1	1.99998E+1	1.40027E+1
25	02/09/2022	14:23:29.394	0.00000E+0	0.00000E+0	2.00000E+1	0.00000E+0	0.00000E+0	0.00000E+0	2.00000E+1	1.40000E+1	1.99996E+1	1.39991E+1
26	02/09/2022	14:23:30.815	0.00000E+0	0.00000E+0	2.00000E+1	0.00000E+0	0.00000E+0	0.00000E+0	2.00000E+1	1.40000E+1	2.00009E+1	1.40001E+1
27	02/09/2022	14:23:32.267	0.00000E+0	0.00000E+0	2.00000E+1	0.00000E+0	0.00000E+0	0.00000E+0	2.00000E+1	1.40000E+1	1.99995E+1	1.40016E+1
28	02/09/2022	14:23:33.764	0.00000E+0	0.00000E+0	2.00000E+1	0.00000E+0	0.00000E+0	0.00000E+0	2.00000E+1	1.40000E+1	2.00005E+1	1.39992E+1
29	02/09/2022	14:23:35.152	0.00000E+0	0.00000E+0	2.00000E+1	0.00000E+0	0.00000E+0	0.00000E+0	2.00000E+1	1.40000E+1	2.00004E+1	1.39982E+1
30	02/09/2022	14:23:36.590	0.00000E+0	0.00000E+0	2.00000E+1	0.00000E+0	0.00000E+0	0.00000E+0	2.00000E+1	1.40000E+1	2.00012E+1	1.40000E+1
31	02/09/2022	14:23:38.005	0.00000E+0	0.00000E+0	2.00000E+1	0.00000E+0	0.00000E+0	0.00000E+0	2.00000E+1	1.40000E+1	2.00004E+1	1.39991E+1
32	02/09/2022	14:23:39.389	0.00000E+0	0.00000E+0	2.00000E+1	0.00000E+0	0.00000E+0	0.00000E+0	2.00000E+1	1.40000E+1	2.00002E+1	1.39991E+1
33	02/09/2022	14:23:40.942	0.00000E+0	0.00000E+0	2.00000E+1	0.00000E+0	0.00000E+0	0.00000E+0	2.00000E+1	1.40000E+1	2.00026E+1	1.39993E+1
34	02/09/2022	14:23:42.351	0.00000E+0	0.00000E+0	2.00000E+1	0.00000E+0	0.00000E+0	0.00000E+0	2.00000E+1	1.40000E+1	2.00005E+1	1.39996E+1
35	02/09/2022	14:23:43.797	0.00000E+0	0.00000E+0	2.00000E+1	0.00000E+0	0.00000E+0	0.00000E+0	2.00000E+1	1.40000E+1	1.99985E+1	1.39990E+1
36	02/09/2022	14:23:45.150	0.00000E+0	0.00000E+0	2.00000E+1	0.00000E+0	0.00000E+0	0.00000E+0	2.00000E+1	1.40000E+1	2.00022E+1	1.40004E+1
37	02/09/2022	14:23:46.542	0.00000E+0	0.00000E+0	2.00000E+1	0.00000E+0	0.00000E+0	0.00000E+0	2.00000E+1	1.40000E+1	2.00005E+1	1.39994E+1
38	02/09/2022	14:23:48.115	0.00000E+0	0.00000E+0	2.00000E+1	0.00000E+0	0.00000E+0	0.00000E+0	2.00000E+1	1.40000E+1	2.00002E+1	1.40016E+1
39	02/09/2022	14:23:49.501	0.00000E+0	0.00000E+0	2.00000E+1	0.00000E+0	0.00000E+0	0.00000E+0	2.00000E+1	1.40000E+1	2.00003E+1	1.39984E+1
40	02/09/2022	14:23:50.925	0.00000E+0	0.00000E+0	2.00000E+1	0.00000E+0	0.00000E+0	0.00000E+0	2.00000E+1	1.40000E+1	2.00000E+1	1.39990E+1
41	02/09/2022	14:23:52.456	0.00000E+0	0.00000E+0	2.00000E+1	0.00000E+0	0.00000E+0	0.00000E+0	2.00000E+1	1.40000E+1	2.00006E+1	1.40009E+1
42	02/09/2022	14:23:53.881	0.00000E+0	0.00000E+0	2.00000E+1	0.00000E+0	0.00000E+0	0.00000E+0	2.00000E+1	1.40000E+1	2.00001E+1	1.40002E+1
43	02/09/2022	14:23:55.409	0.00000E+0	0.00000E+0	2.00000E+1	0.00000E+0	0.00000E+0	0.00000E+0	2.00000E+1	1.40000E+1	1.99982E+1	1.40007E+1
44	02/09/2022	14:23:56.793	0.00000E+0	0.00000E+0	2.00000E+1	0.00000E+0	0.00000E+0	0.00000E+0	2.00000E+1	1.40000E+1	2.00005E+1	1.40017E+1
45	02/09/2022	14:23:58.173	0.00000E+0	0.00000E+0	2.00000E+1	0.00000E+0	0.00000E+0	0.00000E+0	2.00000E+1	1.40000E+1	1.99991E+1	1.40008E+1
46	02/09/2022	14:23:59.652	0.00000E+0	0.00000E+0	2.00000E+1	0.00000E+0	0.00000E+0	0.00000E+0	2.00000E+1	1.40000E+1	1.99973E+1	1.39996E+1
47	02/09/2022	14:24:01.041	0.00000E+0	0.00000E+0	2.00000E+1	0.00000E+0	0.00000E+0	0.00000E+0	2.00000E+1	1.40000E+1	1.99980E+1	1.39987E+1
48	02/09/2022	14:24:02.467	0.00000E+0	0.00000E+0	2.00000E+1	0.00000E+0	0.00000E+0	0.00000E+0	2.00000E+1	1.40000E+1	1.99989E+1	1.40005E+1
49	02/09/2022	14:24:03.954	0.00000E+0	0.00000E+0	2.00000E+1	0.00000E+0	0.00000E+0	0.00000E+0	2.00000E+1	1.40000E+1	2.00012E+1	1.40025E+1
50	02/09/2022	14:24:05.362	0.00000E+0	0.00000E+0	2.00000E+1	0.00000E+0	0.00000E+0	0.00000E+0	2.00000E+1	1.40000E+1	2.00004E+1	1.39993E+1
51	02/09/2022	14:24:06.851	0.00000E+0	0.00000E+0	2.00000E+1	0.00000E+0	0.00000E+0	0.00000E+0	2.00000E+1	1.40000E+1	2.00029E+1	1.40013E+1
52	02/09/2022	14:24:08.254	0.00000E+0	0.00000E+0	2.00000E+1	0.00000E+0	0.00000E+0	0.00000E+0	2.00000E+1	1.40000E+1	2.00001E+1	1.39977E+1
53	02/09/2022	14:24:09.639	0.00000E+0	0.00000E+0	2.00000E+1	0.00000E+0	0.00000E+0	0.00000E+0	2.00000E+1	1.40000E+1	2.00000E+1	1.40027E+1
54	02/09/2022	14:24:11.133	0.00000E+0	0.00000E+0	2.00000E+1	0.00000E+0	0.00000E+0	0.00000E+0	2.00000E+1	1.40000E+1	2.00008E+1	1.39981E+1
55	02/09/2022	14:24:12.519	0.00000E+0	0.00000E+0	2.00000E+1	0.00000E+0	0.00000E+0	0.00000E+0	2.00000E+1	1.40000E+1	1.99984E+1	1.39990E+1
56	02/09/2022	14:24:13.960	0.00000E+0	0.00000E+0	2.00000E+1	0.00000E+0	0.00000E+0	0.00000E+0	2.00000E+1	1.40000E+1	2.00025E+1	1.39994E+1
57	02/09/2022	14:24:15.297	0.00000E+0	0.00000E+0	2.00000E+1	0.00000E+0	0.00000E+0	0.00000E+0	2.00000E+1	1.40000E+1	1.99994E+1	1.40009E+1
58	02/09/2022	14:24:16.698	0.00000E+0	0.00000E+0	2.00000E+1	0.00000E+0	0.00000E+0	0.00000E+0	2.00000E+1	1.40000E+1	2.00022E+1	1.40003E+1
59	02/09/2022	14:24:18.212	0.00000E+0	0.00000E+0	2.00000E+1	0.00000E+0	0.00000E+0	0.00000E+0	2.00000E+1	1.40000E+1	2.00013E+1	1.39994E+1
60	02/09/2022	14:24:19.575	0.00000E+0	0.00000E+0	2.00000E+1	0.00000E+0	0.00000E+0	0.00000E+0	2.00000E+1	1.40000E+1	2.00005E+1	1.39997E+1
61	02/09/2022	14:24:20.984	0.00000E+0	0.00000E+0	2.00000E+1	0.00000E+0	0.00000E+0	0.00000E+0	2.00000E+1	1.40000E+1	2.00013E+1	1.40014E+1
62	02/09/2022	14:24:22.500	0.00000E+0	0.00000E+0	2.00000E+1	0.00000E+0	0.00000E+0	0.00000E+0	2.00000E+1	1.40000E+1	1.99997E+1	1.39999E+1
63	02/09/2022	14:24:23.883	0.00000E+0	0.00000E+0	2.00000E+1	0.00000E+0	0.00000E+0	0.00000E+0	2.00000E+1	1.40000E+1	2.00022E+1	1.39990E+1
64	02/09/2022	14:24:25.395	0.00000E+0	0.00000E+0	2.00000E+1	0.00000E+0	0.00000E+0	0.00000E+0	2.00000E+1	1.40000E+1	2.00038E+1	1.40013E+1
65	02/09/2022	14:24:26.775	0.00000E+0	0.00000E+0	2.00000E+1	0.00000E+0	0.00000E+0	0.00000E+0	2.00000E+1	1.40000E+1	1.99981E+1	1.40019E+1
66	02/09/2022	14:24:28.157	0.00000E+0	0.00000E+0	2.00000E+1	0.00000E+0	0.00000E+0	0.00000E+0	2.00000E+1	1.40000E+1	2.00001E+1	1.40017E+1
67	02/09/2022	14:24:29.711	0.00000E+0	0.00000E+0	2.00000E+1	0.00000E+0	0.00000E+0	0.00000E+0	2.00000E+1	1.40000E+1	1.99992E+1	1.39977E+1
68	02/09/2022	14:24:31.139	0.00000E+0	0.00000E+0	2.00000E+1	0.00000E+0	0.00000E+0	0.00000E+0	2.00000E+1	1.40000E+1	2.00005E+1	1.39992E+1
69	02/09/2022	14:24:32.585	0.00000E+0	0.00000E+0	2.00000E+1	0.00000E+0	0.00000E+0	0.00000E+0	2.00000E+1	1.40000E+1	2.00012E+1	1.40001E+1
70	02/09/2022	14:24:34.091	0.00000E+0	0.00000E+0	2.00000E+1	0.00000E+0	0.00000E+0	0.00000E+0	2.00000E+1	1.40000E+1	2.00006E+1	1.40027E+1
71	02/09/2022	14:24:35.473	0.00000E+0	0.00000E+0	2.00000E+1	0.00000E+0	0.00000E+0	0.00000E+0	2.00000E+1	1.40000E+1	2.00006E+1	1.39995E+1
72	02/09/2022	14:24:36.977	0.00000E+0	0.00000E+0	2.00000E+1	0.00000E+0	0.00000E+0	0.00000E+0	2.00000E+1	1.40000E+1	2.00004E+1	1.40002E+1
73	02/09/2022	14:24:38.388	0.00000E+0	0.00000E+0	2.00000E+1	0.00000E+0	0.00000E+0	0.00000E+0	2.00000E+1	1.40000E+1	2.00005E+1	1.40004E+1
74	02/09/2022	14:24:39.777	0.00000E+0	0.00000E+0	2.00000E+1	0.00000E+0	0.00000E+0	0.00000E+0	2.00000E+1	1.40000E+1	1.99999E+1	1.39979E+1
75	02/09/2022	14:24:41.218	0.00000E+0	0.00000E+0	2.00000E+1	0.00000E+0	0.00000E+0	0.00000E+0	2.00000E+1	1.40000E+1	2.00016E+1	1.39996E+1
76	02/09/2022	14:24:42.622	0.00000E+0	0.00000E+0	2.00000E+1	0.00000E+0	0.00000E+0	0.00000E+0	2.00000E+1	1.40000E+1	1.99976E+1	1.40001E+1
77	02/09/2022	14:24:44.085	0.00000E+0	0.00000E+0	2.00000E+1	0.00000E+0	0.00000E+0	0.00000E+0	2.00000E+1	1.40000E+1	2.00012E+1	1.39999E+1
78	02/09/2022	14:24:45.548	0.00000E+0	0.00000E+0	2.00000E+1	0.00000E+0	0.00000E+0	0.00000E+0	2.00000E+1	1.40000E+1	2.00015E+1	1.39965E+1
79	02/09/2022	14:24:46.935	0.00000E+0	0.00000E+0	2.00000E+1	0.00000E+0	0.00000E+0	0.00000E+0	2.00000E+1	1.40000E+1	2.00016E+1	1.39992E+1
80	02/09/2022	14:24:48.485	0.00000E+0	0.00000E+0	2.00000E+1	0.00000E+0	0.00000E+0	0.00000E+0	2.00000E+1	1.40000E+1	2.00012E+1	1.40011E+1
81	02/09/2022	14:24:49.868	0.00000E+0	0.00000E+0	2.00000E+1	0.00000E+0	0.00000E+0	0.00000E+0	2.00000E+1	1.40000E+1	2.00021E+1	1.39991E+1
82	02/09/2022	14:24:51.291	0.00000E+0	0.00000E+0	2.00000E+1	0.00000E+0	0.00000E+0	0.00000E+0	2.00000E+1	1.40000E+1	1.99978E+1	1.40028E+1
83	02/09/2022	14:24:52.758	0.00000E+0	0.00000E+0	2.00000E+1	0.00000E+0	0.00000E+0	0.00000E+0	2.00000E+1	1.40000E+1	2.00013E+1	1.39991E+1
84	02/09/2022	14:24:54.151	0.00000E+0	0.00000E+0	2.00000E+1	0.00000E+0	0.00000E+0	0.00000E+0	2.00000E+1	1.40000E+1	1.99989E+1	1.39995E+1
85	02/09/2022	14:24:55.646	0.00000E+0	0.00000E+0	2.00000E+1	0.00000E+0	0.00000E+0	0.00000E+0	2.00000E+1	1.40000E+1	2.00000E+1	1.40001E+1
86	02/09/2022	14:24:57.038	0.00000E+0	0.00000E+0	2.00000E+1	0.00000E+0	0.00000E+0	0.00000E+0	2.00000E+1	1.40000E+1	1.99995E+1	1.39992E+1
87	02/09/2022	14:24:58.414	0.00000E+0	0.00000E+0	2.00000E+1	0.00000E+0	0.00000E+0	0.00000E+0	2.00000E+1	1.40000E+1	1.99992E+1	1.40001E+1
88	02/09/2022	14:24:59.967	0.00000E+0	0.00000E+0	2.00000E+1	0.00000E+0	0.00000E+0	0.00000E+0	2.00000E+1	1.40000E+1	1.99985E+1	1.39986E+1
89	02/09/2022	14:25:01.333	0.00000E+0	0.00000E+0	2.00000E+1	0.00000E+0	0.00000E+0	0.00000E+0	2.00000E+1	1.40000E+1	2.00009E+1	1.40011E+1
90	02/09/2022	14:25:02.786	0.00000E+0	0.00000E+0	2.00000E+1	0.00000E+0	0.00000E+0	0.00000E+0	2.00000E+1	1.40000E+1	1.99987E+1	1.39998E+1
91	02/09/2022	14:25:04.140	0.00000E+0	0.00000E+0	2.00000E+1	0.00000E+0	0.00000E+0	0.00000E+0	2.00000E+1	1.40000E+1	1.99979E+1	1.40009E+1
92	02/09/2022	14:25:05.538	0.00000E+0	0.00000E+0	2.00000E+1	0.00000E+0	0.00000E+0	0.00000E+0	2.00000E+1	1.40000E+1	1.99982E+1	1.39999E+1
93	02/09/2022	14:25:07.003	0.00000E+0	0.00000E+0	2.00000E+1	0.00000E+0	0.00000E+0	0.00000E+0	2.00000E+1	1.40000E+1	2.00011E+1	1.39996E+1
94	02/09/2022	14:25:08.413	0.00000E+0	0.00000E+0	2.00000E+1	0.00000E+0	0.00000E+0	0.00000E+0	2.00000E+1	1.40000E+1	2.00006E+1	1.40008E+1
95	02/09/2022	14:25:09.855	0.00000E+0	0.00000E+0	2.00000E+1	0.00000E+0	0.00000E+0	0.00000E+0	2.00000E+1	1.40000E+1	2.00009E+1	1.40002E+1
96	02/09/2022	14:25:11.355	0.00000E+0	0.00000E+0	2.00000E+1	0.00000E+0	0.00000E+0	0.00000E+0	2.00000E+1	1.40000E+1	2.00018E+1	1.39998E+1
97	02/09/2022	14:25:12.748	0.00000E+0	0.00000E+0	2.00000E+1	0.00000E+0	0.00000E+0	0.00000E+0	2.00000E+1	1.40000E+1	1.99993E+1	1.40018E+1
98	02/09/2022	14:25:14.227	0.00000E+0	0.00000E+0	2.00000E+1	0.00000E+0	0.00000E+0	0.00000E+0	2.00000E+1	1.40000E+1	1.99994E+1	1.40006E+1
99	02/09/2022	14:25:15.614	0.00000E+0	0.00000E+0	2.00000E+1	0.00000E+0	0.00000E+0	0.00000E+0	2.00000E+1	1.40000E+1	1.99971E+1	1.40024E+1
100	02/09/2022	14:25:17.048	0.00000E+0	0.00000E+0	2.00000E+1	0.00000E+0	0.00000E+0	0.00000E+0	2.00000E+1	1.40000E+1	2.00002E+1	1.40009E+1
101	02/09/2022	14:25:18.518	0.00000E+0	0.00000E+0	2.00000E+1	0.00000E+0	0.00000E+0	0.00000E+0	2.00000E+1	1.40000E+1	2.00022E+1	1.39998E+1
102	02/09/2022	14:25:19.915	0.00000E+0	0.00000E+0	2.00000E+1	0.00000E+0	0.00000E+0	0.00000E+0	2.00000E+1	1.40000E+1	2.00019E+1	1.39984E+1
103	02/09/2022	14:25:21.309	0.00000E+0	0.00000E+0	2.00000E+1	0.00000E+0	0.00000E+0	0.00000E+0	2.00000E+1	1.40000E+1	2.00011E+1	1.39993E+1
104	02/09/2022	14:25:22.713	0.00000E+0	0.00000E+0	2.00000E+1	0.00000E+0	0.00000E+0	0.00000E+0	2.00000E+1	1.40000E+1	2.00006E+1	1.40000E+1
105	02/09/2022	14:25:24.090	0.00000E+0	0.00000E+0	2.00000E+1	0.00000E+0	0.00000E+0	0.00000E+0	2.00000E+1	1.40000E+1	2.00012E+1	1.39982E+1
106	02/09/2022	14:25:25.558	0.00000E+0	0.00000E+0	2.00000E+1	0.00000E+0	0.00000E+0	0.00000E+0	2.00000E+1	1.40000E+1	2.00011E+1	1.39984E+1
107	02/09/2022	14:25:26.941	0.00000E+0	0.00000E+0	2.00000E+1	0.00000E+0	0.00000E+0	0.00000E+0	2.00000E+1	1.40000E+1	2.00021E+1	1.39977E+1
108	02/09/2022	14:25:28.328	0.00000E+0	0.00000E+0	2.00000E+1	0.00000E+0	0.00000E+0	0.00000E+0	2.00000E+1	1.40000E+1	2.00012E+1	1.40004E+1
109	02/09/2022	14:25:29.807	0.00000E+0	0.00000E+0	2.00000E+1	0.00000E+0	0.00000E+0	0.00000E+0	2.00000E+1	1.40000E+1	2.00021E+1	1.40002E+1
110	02/09/2022	14:25:31.187	0.00000E+0	0.00000E+0	2.00000E+1	0.00000E+0	0.00000E+0	0.00000E+0	2.00000E+1	1.40000E+1	1.99985E+1	1.39993E+1
111	02/09/2022	14:25:32.585	0.00000E+0	0.00000E+0	2.00000E+1	0.00000E+0	0.00000E+0	0.00000E+0	2.00000E+1	1.40000E+1	1.99986E+1	1.40010E+1
112	02/09/2022	14:25:34.107	0.00000E+0	0.00000E+0	2.00000E+1	0.00000E+0	0.00000E+0	0.00000E+0	2.00000E+1	1.40000E+1	2.00002E+1	1.40033E+1
113	02/09/2022	14:25:35.487	0.00000E+0	0.00000E+0	2.00000E+1	0.00000E+0	0.00000E+0	0.00000E+0	2.00000E+1	1.40000E+1	1.99995E+1	1.39988E+1
114	02/09/2022	14:25:37.017	0.00000E+0	0.00000E+0	2.00000E+1	0.00000E+0	0.00000E+0	0.00000E+0	2.00000E+1	1.40000E+1	2.00004E+1	1.40003E+1
115	02/09/2022	14:25:38.403	0.00000E+0	0.00000E+0	2.00000E+1	0.00000E+0	0.00000E+0	0.00000E+0	2.00000E+1	1.40000E+1	1.99990E+1	1.39984E+1
116	02/09/2022	14:25:39.818	0.00000E+0	0.00000E+0	2.00000E+1	0.00000E+0	0.00000E+0	0.00000E+0	2.00000E+1	1.40000E+1	2.00016E+1	1.39983E+1
117	02/09/2022	14:25:41.300	0.00000E+0	0.00000E+0	2.00000E+1	0.00000E+0	0.00000E+0	0.00000E+0	2.00000E+1	1.40000E+1	2.00019E+1	1.40000E+1
118	02/09/2022	14:25:42.692	0.00000E+0	0.00000E+0	2.00000E+1	0.00000E+0	0.00000E+0	0.00000E+0	2.00000E+1	1.40000E+1	2.00001E+1	1.40014E+1
119	02/09/2022	14:25:44.224	0.00000E+0	0.00000E+0	2.00000E+1	0.00000E+0	0.00000E+0	0.00000E+0	2.00000E+1	1.40000E+1	1.99977E+1	1.40001E+1
120	02/09/2022	14:25:45.626	0.00000E+0	0.00000E+0	2.00000E+1	0.00000E+0	0.00000E+0	0.00000E+0	2.00000E+1	1.40000E+1	1.99992E+1	1.40002E+1
121	02/09/2022	14:25:47.004	0.00000E+0	0.00000E+0	2.00000E+1	0.00000E+0	0.00000E+0	0.00000E+0	2.00000E+1	1.40000E+1	1.99995E+1	1.39993E+1
122	02/09/2022	14:25:48.530	0.00000E+0	0.00000E+0	2.00000E+1	0.00000E+0	0.00000E+0	0.00000E+0	2.00000E+1	1.40000E+1	1.99984E+1	1.40013E+1
123	02/09/2022	14:25:49.934	0.00000E+0	0.00000E+0	2.00000E+1	0.00000E+0	0.00000E+0	0.00000E+0	2.00000E+1	1.40000E+1	2.00029E+1	1.40022E+1
124	02/09/2022	14:25:51.350	0.00000E+0	0.00000E+0	2.00000E+1	0.00000E+0	0.00000E+0	0.00000E+0	2.00000E+1	1.40000E+1	2.00027E+1	1.40003E+1
125	02/09/2022	14:25:52.850	0.00000E+0	0.00000E+0	2.00000E+1	0.00000E+0	0.00000E+0	0.00000E+0	2.00000E+1	1.40000E+1	1.99981E+1	1.39981E+1
126	02/09/2022	14:25:54.234	0.00000E+0	0.00000E+0	2.00000E+1	0.00000E+0	0.00000E+0	0.00000E+0	2.00000E+1	1.40000E+1	1.99997E+1	1.40004E+1
127	02/09/2022	14:25:55.763	0.00000E+0	0.00000E+0	2.00000E+1	0.00000E+0	0.00000E+0	0.00000E+0	2.00000E+1	1.40000E+1	2.00002E+1	1.39992E+1
128	02/09/2022	14:25:57.152	0.00000E+0	0.00000E+0	2.00000E+1	0.00000E+0	0.00000E+0	0.00000E+0	2.00000E+1	1.40000E+1	2.00017E+1	1.40008E+1
129	02/09/2022	14:25:58.539	0.00000E+0	0.00000E+0	2.00000E+1	0.00000E+0	0.00000E+0	0.00000E+0	2.00000E+1	1.40000E+1	1.99995E+1	1.39982E+1
130	02/09/2022	14:26:00.103	0.00000E+0	0.00000E+0	2.00000E+1	0.00000E+0	0.00000E+0	0.00000E+0	2.00000E+1	1.40000E+1	1.99996E+1	1.39998E+1
131	02/09/2022	14:26:01.493	0.00000E+0	0.00000E+0	2.00000E+1	0.00000E+0	0.00000E+0	0.00000E+0	2.00000E+1	1.40000E+1	2.00011E+1	1.40012E+1
132	02/09/2022	14:26:03.015	0.00000E+0	0.00000E+0	2.00000E+1	0.00000E+0	0.00000E+0	0.00000E+0	2.00000E+1	1.40000E+1	2.00018E+1	1.39988E+1
133	02/09/2022	14:26:04.405	0.00000E+0	0.00000E+0	2.00000E+1	0.00000E+0	0.00000E+0	0.00000E+0	2.00000E+1	1.40000E+1	2.00007E+1	1.40015E+1
134	02/09/2022	14:26:05.800	0.00000E+0	0.00000E+0	2.00000E+1	0.00000E+0	0.00000E+0	0.00000E+0	2.00000E+1	1.40000E+1	2.00001E+1	1.40007E+1
135	02/09/2022	14:26:07.353	0.00000E+0	0.00000E+0	2.00000E+1	0.00000E+0	0.00000E+0	0.00000E+0	2.00000E+1	1.40000E+1	1.99971E+1	1.40013E+1
136	02/09/2022	14:26:08.744	0.00000E+0	0.00000E+0	2.00000E+1	0.00000E+0	0.00000E+0	0.00000E+0	2.00000E+1	1.40000E+1	1.99999E+1	1.40000E+1
137	02/09/2022	14:26:10.185	0.00000E+0	0.00000E+0	2.00000E+1	0.00000E+0	0.00000E+0	0.00000E+0	2.00000E+1	1.40000E+1	2.00000E+1	1.39986E+1
138	02/09/2022	14:26:11.682	0.00000E+0	0.00000E+0	2.00000E+1	0.00000E+0	0.00000E+0	0.00000E+0	2.00000E+1	1.40000E+1	2.00005E+1	1.39980E+1
139	02/09/2022	14:26:13.083	0.00000E+0	0.00000E+0	2.00000E+1	0.00000E+0	0.00000E+0	0.00000E+0	2.00000E+1	1.40000E+1	1.99998E+1	1.39994E+1
140	02/09/2022	14:26:14.565	0.00000E+0	0.00000E+0	2.00000E+1	0.00000E+0	0.00000E+0	0.00000E+0	2.00000E+1	1.40000E+1	2.00013E+1	1.40013E+1
141	02/09/2022	14:26:15.945	0.00000E+0	0.00000E+0	2.00000E+1	0.00000E+0	0.00000E+0	0.00000E+0	2.00000E+1	1.40000E+1	2.00019E+1	1.40002E+1
142	02/09/2022	14:26:17.331	0.00000E+0	0.00000E+0	2.00000E+1	0.00000E+0	0.00000E+0	0.00000E+0	2.00000E+1	1.40000E+1	1.99978E+1	1.39986E+1
143	02/09/2022	14:26:18.917	0.00000E+0	0.00000E+0	2.00000E+1	0.00000E+0	0.00000E+0	0.00000E+0	2.00000E+1	1.40000E+1	2.00003E+1	1.40016E+1
144	02/09/2022	14:26:20.300	0.00000E+0	0.00000E+0	2.00000E+1	0.00000E+0	0.00000E+0	0.00000E+0	2.00000E+1	1.40000E+1	1.99990E+1	1.40017E+1
145	02/09/2022	14:26:21.748	0.00000E+0	0.00000E+0	2.00000E+1	0.00000E+0	0.00000E+0	0.00000E+0	2.00000E+1	1.40000E+1	2.00001E+1	1.40011E+1
146	02/09/2022	14:26:23.166	0.00000E+0	0.00000E+0	2.00000E+1	0.00000E+0	0.00000E+0	0.00000E+0	2.00000E+1	1.40000E+1	1.99982E+1	1.40003E+1
147	02/09/2022	14:26:24.557	0.00000E+0	0.00000E+0	2.00000E+1	0.00000E+0	0.00000E+0	0.00000E+0	2.00000E+1	1.40000E+1	1.99979E+1	1.39996E+1
148	02/09/2022	14:26:26.061	0.00000E+0	0.00000E+0	2.00000E+1	0.00000E+0	0.00000E+0	0.00000E+0	2.00000E+1	1.40000E+1	2.00009E+1	1.40019E+1
149	02/09/2022	14:26:27.449	0.00000E+0	0.00000E+0	2.00000E+1	0.00000E+0	0.00000E+0	0.00000E+0	2.00000E+1	1.40000E+1	1.99978E+1	1.40009E+1
150	02/09/2022	14:26:28.899	0.00000E+0	0.00000E+0	2.00000E+1	0.00000E+0	0.00000E+0	0.00000E+0	2.00000E+1	1.40000E+1	2.00003E+1	1.39959E+1
151	02/09/2022	14:26:30.410	0.00000E+0	0.00000E+0	2.00000E+1	0.00000E+0	0.00000E+0	0.00000E+0	2.00000E+1	1.40000E+1	1.99978E+1	1.39994E+1
152	02/09/2022	14:26:31.808	0.00000E+0	0.00000E+0	2.00000E+1	0.00000E+0	0.00000E+0	0.00000E+0	2.00000E+1	1.40000E+1	1.99995E+1	1.40001E+1
153	02/09/2022	14:26:33.241	0.00000E+0	0.00000E+0	2.00000E+1	0.00000E+0	0.00000E+0	0.00000E+0	2.00000E+1	1.40000E+1	1.99994E+1	1.39989E+1
154	02/09/2022	14:26:34.685	0.00000E+0	0.00000E+0	2.00000E+1	0.00000E+0	0.00000E+0	0.00000E+0	2.00000E+1	1.40000E+1	1.99997E+1	1.39995E+1
155	02/09/2022	14:26:36.081	0.00000E+0	0.00000E+0	2.00000E+1	0.00000E+0	0.00000E+0	0.00000E+0	2.00000E+1	1.40000E+1	2.00014E+1	1.39998E+1
156	02/09/2022	14:26:37.540	0.00000E+0	0.00000E+0	2.00000E+1	0.00000E+0	0.00000E+0	0.00000E+0	2.00000E+1	1.40000E+1	2.00011E+1	1.40012E+1
157	02/09/2022	14:26:38.926	0.00000E+0	0.00000E+0	2.00000E+1	0.00000E+0	0.00000E+0	0.00000E+0	2.00000E+1	1.40000E+1	1.99995E+1	1.40016E+1
158	02/09/2022	14:26:40.320	0.00000E+0	0.00000E+0	2.00000E+1	0.00000E+0	0.00000E+0	0.00000E+0	2.00000E+1	1.40000E+1	2.00009E+1	1.39985E+1
159	02/09/2022	14:26:41.809	0.00000E+0	0.00000E+0	2.00000E+1	0.00000E+0	0.00000E+0	0.00000E+0	2.00000E+1	1.40000E+1	1.99993E+1	1.40005E+1
160	02/09/2022	14:26:43.205	0.00000E+0	0.00000E+0	2.00000E+1	0.00000E+0	0.00000E+0	0.00000E+0	2.00000E+1	1.40000E+1	1.99994E+1	1.39996E+1
161	02/09/2022	14:26:44.674	0.00000E+0	0.00000E+0	2.00000E+1	0.00000E+0	0.00000E+0	0.00000E+0	2.00000E+1	1.40000E+1	2.00013E+1	1.39989E+1
162	02/09/2022	14:26:46.058	0.00000E+0	0.00000E+0	2.00000E+1	0.00000E+0	0.00000E+0	0.00000E+0	2.00000E+1	1.40000E+1	2.00002E+1	1.39978E+1
163	02/09/2022	14:26:47.447	0.00000E+0	0.00000E+0	2.00000E+1	0.00000E+0	0.00000E+0	0.00000E+0	2.00000E+1	1.40000E+1	2.00006E+1	1.40043E+1
164	02/09/2022	14:26:48.901	0.00000E+0	0.00000E+0	2.00000E+1	0.00000E+0	0.00000E+0	0.00000E+0	2.00000E+1	1.40000E+1	2.00008E+1	1.40005E+1
165	02/09/2022	14:26:50.277	0.00000E+0	0.00000E+0	2.00000E+1	0.00000E+0	0.00000E+0	0.00000E+0	2.00000E+1	1.40000E+1	1.99978E+1	1.39980E+1
166	02/09/2022	14:26:51.791	0.00000E+0	0.00000E+0	2.00000E+1	0.00000E+0	0.00000E+0	0.00000E+0	2.00000E+1	1.40000E+1	2.00004E+1	1.40005E+1
167	02/09/2022	14:26:53.235	0.00000E+0	0.00000E+0	2.00000E+1	0.00000E+0	0.00000E+0	0.00000E+0	2.00000E+1	1.40000E+1	1.99956E+1	1.40013E+1
168	02/09/2022	14:26:54.610	0.00000E+0	0.00000E+0	2.00000E+1	0.00000E+0	0.00000E+0	0.00000E+0	2.00000E+1	1.40000E+1	1.99989E+1	1.40013E+1
169	02/09/2022	14:26:56.153	0.00000E+0	0.00000E+0	2.00000E+1	0.00000E+0	0.00000E+0	0.00000E+0	2.00000E+1	1.40000E+1	1.99986E+1	1.40006E+1
170	02/09/2022	14:26:57.533	0.00000E+0	0.00000E+0	2.00000E+1	0.00000E+0	0.00000E+0	0.00000E+0	2.00000E+1	1.40000E+1	2.00005E+1	1.40004E+1
171	02/09/2022	14:26:58.922	0.00000E+0	0.00000E+0	2.00000E+1	0.00000E+0	0.00000E+0	0.00000E+0	2.00000E+1	1.40000E+1	2.00003E+1	1.40022E+1
172	02/09/2022	14:27:00.430	0.00000E+0	0.00000E+0	2.00000E+1	0.00000E+0	0.00000E+0	0.00000E+0	2.00000E+1	1.40000E+1	2.00001E+1	1.39989E+1
173	02/09/2022	14:27:01.814	0.00000E+0	0.00000E+0	2.00000E+1	0.00000E+0	0.00000E+0	0.00000E+0	2.00000E+1	1.40000E+1	2.00011E+1	1.40003E+1
174	02/09/2022	14:27:03.334	0.00000E+0	0.00000E+0	2.00000E+1	0.00000E+0	0.00000E+0	0.00000E+0	2.00000E+1	1.40000E+1	2.00001E+1	1.40003E+1
175	02/09/2022	14:27:04.727	0.00000E+0	0.00000E+0	2.00000E+1	0.00000E+0	0.00000E+0	0.00000E+0	2.00000E+1	1.40000E+1	1.99992E+1	1.39984E+1
176	02/09/2022	14:27:06.117	0.00000E+0	0.00000E+0	2.00000E+1	0.00000E+0	0.00000E+0	0.00000E+0	2.00000E+1	1.40000E+1	1.99982E+1	1.40012E+1
177	02/09/2022	14:27:07.647	0.00000E+0	0.00000E+0	2.00000E+1	0.00000E+0	0.00000E+0	0.00000E+0	2.00000E+1	1.40000E+1	1.99993E+1	1.40000E+1
178	02/09/2022	14:27:09.068	0.00000E+0	0.00000E+0	2.00000E+1	0.00000E+0	0.00000E+0	0.00000E+0	2.00000E+1	1.40000E+1	1.99996E+1	1.40014E+1
179	02/09/2022	14:27:10.513	0.00000E+0	0.00000E+0	2.00000E+1	0.00000E+0	0.00000E+0	0.00000E+0	2.00000E+1	1.40000E+1	1.99984E+1	1.40006E+1
180	02/09/2022	14:27:12.002	0.00000E+0	0.00000E+0	2.00000E+1	0.00000E+0	0.00000E+0	0.00000E+0	2.00000E+1	1.40000E+1	2.00000E+1	1.40004E+1
181	02/09/2022	14:27:13.385	0.00000E+0	0.00000E+0	2.00000E+1	0.00000E+0	0.00000E+0	0.00000E+0	2.00000E+1	1.40000E+1	1.99994E+1	1.40007E+1
182	02/09/2022	14:27:14.923	0.00000E+0	0.00000E+0	2.00000E+1	0.00000E+0	0.00000E+0	0.00000E+0	2.00000E+1	1.40000E+1	2.00006E+1	1.40036E+1
183	02/09/2022	14:27:16.306	0.00000E+0	0.00000E+0	2.00000E+1	0.00000E+0	0.00000E+0	0.00000E+0	2.00000E+1	1.40000E+1	2.00027E+1	1.39993E+1
184	02/09/2022	14:27:17.770	0.00000E+0	0.00000E+0	2.00000E+1	0.00000E+0	0.00000E+0	0.00000E+0	2.00000E+1	1.40000E+1	2.00007E+1	1.40002E+1
185	02/09/2022	14:27:19.245	0.00000E+0	0.00000E+0	2.00000E+1	0.00000E+0	0.00000E+0	0.00000E+0	2.00000E+1	1.40000E+1	2.00006E+1	1.40012E+1
186	02/09/2022	14:27:20.625	0.00000E+0	0.00000E+0	2.00000E+1	0.00000E+0	0.00000E+0	0.00000E+0	2.00000E+1	1.40000E+1	1.99998E+1	1.39991E+1
187	02/09/2022	14:27:22.176	0.00000E+0	0.00000E+0	2.00000E+1	0.00000E+0	0.00000E+0	0.00000E+0	2.00000E+1	1.40000E+1	2.00001E+1	1.39971E+1
188	02/09/2022	14:27:23.570	0.00000E+0	0.00000E+0	2.00000E+1	0.00000E+0	0.00000E+0	0.00000E+0	2.00000E+1	1.40000E+1	2.00006E+1	1.39994E+1
189	02/09/2022	14:27:24.964	0.00000E+0	0.00000E+0	2.00000E+1	0.00000E+0	0.00000E+0	0.00000E+0	2.00000E+1	1.40000E+1	2.00007E+1	1.39986E+1
190	02/09/2022	14:27:26.434	0.00000E+0	0.00000E+0	2.00000E+1	0.00000E+0	0.00000E+0	0.00000E+0	2.00000E+1	1.40000E+1	1.99954E+1	1.40006E+1
191	02/09/2022	14:27:27.835	0.00000E+0	0.00000E+0	2.00000E+1	0.00000E+0	0.00000E+0	0.00000E+0	2.00000E+1	1.40000E+1	1.99989E+1	1.40002E+1
192	02/09/2022	14:27:29.275	0.00000E+0	0.00000E+0	2.00000E+1	0.00000E+0	0.00000E+0	0.00000E+0	2.00000E+1	1.40000E+1	2.00023E+1	1.40011E+1
193	02/09/2022	14:27:30.770	0.00000E+0	0.00000E+0	2.00000E+1	0.00000E+0	0.00000E+0	0.00000E+0	2.00000E+1	1.40000E+1	2.00011E+1	1.40006E+1
194	02/09/2022	14:27:32.151	0.00000E+0	0.00000E+0	2.00000E+1	0.00000E+0	0.00000E+0	0.00000E+0	2.00000E+1	1.40000E+1	1.99991E+1	1.39992E+1
195	02/09/2022	14:27:33.635	0.00000E+0	0.00000E+0	2.00000E+1	0.00000E+0	0.00000E+0	0.00000E+0	2.00000E+1	1.40000E+1	1.99983E+1	1.40020E+1
196	02/09/2022	14:27:35.015	0.00000E+0	0.00000E+0	2.00000E+1	0.00000E+0	0.00000E+0	0.00000E+0	2.00000E+1	1.40000E+1	1.99993E+1	1.40035E+1
197	02/09/2022	14:27:36.388	0.00000E+0	0.00000E+0	2.00000E+1	0.00000E+0	0.00000E+0	0.00000E+0	2.00000E+1	1.40000E+1	2.00017E+1	1.39973E+1
198	02/09/2022	14:27:37.940	0.00000E+0	0.00000E+0	2.00000E+1	0.00000E+0	0.00000E+0	0.00000E+0	2.00000E+1	1.40000E+1	2.00009E+1	1.40011E+1
199	02/09/2022	14:27:39.333	0.00000E+0	0.00000E+0	2.00000E+1	0.00000E+0	0.00000E+0	0.00000E+0	2.00000E+1	1.40000E+1	2.00008E+1	1.40000E+1
200	02/09/2022	14:27:40.765	0.00000E+0	0.00000E+0	2.00000E+1	0.00000E+0	0.00000E+0	0.00000E+0	2.00000E+1	1.40000E+1	2.00028E+1	1.39984E+1
201	02/09/2022	14:27:42.242	0.00000E+0	0.00000E+0	2.00000E+1	0.00000E+0	0.00000E+0	0.00000E+0	2.00000E+1	1.40000E+1	2.00014E+1	1.40011E+1
202	02/09/2022	14:27:43.655	0.00000E+0	0.00000E+0	2.00000E+1	0.00000E+0	0.00000E+0	0.00000E+0	2.00000E+1	1.40000E+1	1.99981E+1	1.39991E+1
203	02/09/2022	14:27:45.197	0.00000E+0	0.00000E+0	2.00000E+1	0.00000E+0	0.00000E+0	0.00000E+0	2.00000E+1	1.40000E+1	2.00029E+1	1.40003E+1
204	02/09/2022	14:27:46.573	0.00000E+0	0.00000E+0	2.00000E+1	0.00000E+0	0.00000E+0	0.00000E+0	2.00000E+1	1.40000E+1	2.00017E+1	1.39990E+1
205	02/09/2022	14:27:48.048	0.00000E+0	0.00000E+0	2.00000E+1	0.00000E+0	0.00000E+0	0.00000E+0	2.00000E+1	1.40000E+1	1.99986E+1	1.40027E+1
206	02/09/2022	14:27:49.580	0.00000E+0	0.00000E+0	2.00000E+1	0.00000E+0	0.00000E+0	0.00000E+0	2.00000E+1	1.40000E+1	1.99979E+1	1.39975E+1
207	02/09/2022	14:27:50.958	0.00000E+0	0.00000E+0	2.00000E+1	0.00000E+0	0.00000E+0	0.00000E+0	2.00000E+1	1.40000E+1	2.00013E+1	1.40002E+1
208	02/09/2022	14:27:52.466	0.00000E+0	0.00000E+0	2.00000E+1	0.00000E+0	0.00000E+0	0.00000E+0	2.00000E+1	1.40000E+1	2.00007E+1	1.39990E+1
209	02/09/2022	14:27:53.852	0.00000E+0	0.00000E+0	2.00000E+1	0.00000E+0	0.00000E+0	0.00000E+0	2.00000E+1	1.40000E+1	2.00012E+1	1.39985E+1
210	02/09/2022	14:27:55.242	0.00000E+0	0.00000E+0	2.00000E+1	0.00000E+0	0.00000E+0	0.00000E+0	2.00000E+1	1.40000E+1	1.99998E+1	1.40006E+1
211	02/09/2022	14:27:56.747	0.00000E+0	0.00000E+0	2.00000E+1	0.00000E+0	0.00000E+0	0.00000E+0	2.00000E+1	1.40000E+1	2.00013E+1	1.39997E+1
212	02/09/2022	14:27:58.136	0.00000E+0	0.00000E+0	2.00000E+1	0.00000E+0	0.00000E+0	0.00000E+0	2.00000E+1	1.40000E+1	2.00003E+1	1.39998E+1
213	02/09/2022	14:27:59.533	0.00000E+0	0.00000E+0	2.00000E+1	0.00000E+0	0.00000E+0	0.00000E+0	2.00000E+1	1.40000E+1	2.00002E+1	1.39992E+1
214	02/09/2022	14:28:01.078	0.00000E+0	0.00000E+0	2.00000E+1	0.00000E+0	0.00000E+0	0.00000E+0	2.00000E+1	1.40000E+1	2.00011E+1	1.40010E+1
215	02/09/2022	14:28:02.465	0.00000E+0	0.00000E+0	2.00000E+1	0.00000E+0	0.00000E+0	0.00000E+0	2.00000E+1	1.40000E+1	1.99989E+1	1.40004E+1
216	02/09/2022	14:28:03.935	0.00000E+0	0.00000E+0	2.00000E+1	0.00000E+0	0.00000E+0	0.00000E+0	2.00000E+1	1.40000E+1	1.99974E+1	1.40007E+1
217	02/09/2022	14:28:05.321	0.00000E+0	0.00000E+0	2.00000E+1	0.00000E+0	0.00000E+0	0.00000E+0	2.00000E+1	1.40000E+1	1.99994E+1	1.40024E+1
218	02/09/2022	14:28:06.707	0.00000E+0	0.00000E+0	2.00000E+1	0.00000E+0	0.00000E+0	0.00000E+0	2.00000E+1	1.40000E+1	1.99980E+1	1.39985E+1
219	02/09/2022	14:28:08.213	0.00000E+0	0.00000E+0	2.00000E+1	0.00000E+0	0.00000E+0	0.00000E+0	2.00000E+1	1.40000E+1	2.00010E+1	1.39979E+1
220	02/09/2022	14:28:09.606	0.00000E+0	0.00000E+0	2.00000E+1	0.00000E+0	0.00000E+0	0.00000E+0	2.00000E+1	1.40000E+1	2.00011E+1	1.39999E+1
221	02/09/2022	14:28:11.133	0.00000E+0	0.00000E+0	2.00000E+1	0.00000E+0	0.00000E+0	0.00000E+0	2.00000E+1	1.40000E+1	1.99988E+1	1.39996E+1
222	02/09/2022	14:28:12.534	0.00000E+0	0.00000E+0	2.00000E+1	0.00000E+0	0.00000E+0	0.00000E+0	2.00000E+1	1.40000E+1	1.99974E+1	1.40008E+1
223	02/09/2022	14:28:13.975	0.00000E+0	0.00000E+0	2.00000E+1	0.00000E+0	0.00000E+0	0.00000E+0	2.00000E+1	1.40000E+1	1.99985E+1	1.39989E+1
224	02/09/2022	14:28:15.514	0.00000E+0	0.00000E+0	2.00000E+1	0.00000E+0	0.00000E+0	0.00000E+0	2.00000E+1	1.40000E+1	2.00005E+1	1.39995E+1
225	02/09/2022	14:28:16.905	0.00000E+0	0.00000E+0	2.00000E+1	0.00000E+0	0.00000E+0	0.00000E+0	2.00000E+1	1.40000E+1	2.00016E+1	1.39989E+1
226	02/09/2022	14:28:18.338	0.00000E+0	0.00000E+0	2.00000E+1	0.00000E+0	0.00000E+0	0.00000E+0	2.00000E+1	1.40000E+1	2.00001E+1	1.40034E+1
227	02/09/2022	14:28:19.820	0.00000E+0	0.00000E+0	2.00000E+1	0.00000E+0	0.00000E+0	0.00000E+0	2.00000E+1	1.40000E+1	1.99994E+1	1.40008E+1
228	02/09/2022	14:28:21.200	0.00000E+0	0.00000E+0	2.00000E+1	0.00000E+0	0.00000E+0	0.00000E+0	2.00000E+1	1.40000E+1	2.00013E+1	1.40018E+1
229	02/09/2022	14:28:22.690	0.00000E+0	0.00000E+0	2.00000E+1	0.00000E+0	0.00000E+0	0.00000E+0	2.00000E+1	1.40000E+1	2.00013E+1	1.40004E+1
230	02/09/2022	14:28:24.083	0.00000E+0	0.00000E+0	2.00000E+1	0.00000E+0	0.00000E+0	0.00000E+0	2.00000E+1	1.40000E+1	2.00006E+1	1.40002E+1
231	02/09/2022	14:28:25.464	0.00000E+0	0.00000E+0	2.00000E+1	0.00000E+0	0.00000E+0	0.00000E+0	2.00000E+1	1.40000E+1	2.00004E+1	1.39981E+1
232	02/09/2022	14:28:26.977	0.00000E+0	0.00000E+0	2.00000E+1	0.00000E+0	0.00000E+0	0.00000E+0	2.00000E+1	1.40000E+1	2.00012E+1	1.39999E+1
233	02/09/2022	14:28:28.371	0.00000E+0	0.00000E+0	2.00000E+1	0.00000E+0	0.00000E+0	0.00000E+0	2.00000E+1	1.40000E+1	1.99982E+1	1.40015E+1
234	02/09/2022	14:28:29.818	0.00000E+0	0.00000E+0	2.00000E+1	0.00000E+0	0.00000E+0	0.00000E+0	2.00000E+1	1.40000E+1	1.99999E+1	1.39991E+1
235	02/09/2022	14:28:31.312	0.00000E+0	0.00000E+0	2.00000E+1	0.00000E+0	0.00000E+0	0.00000E+0	2.00000E+1	1.40000E+1	1.99979E+1	1.39981E+1
236	02/09/2022	14:28:32.699	0.00000E+0	0.00000E+0	2.00000E+1	0.00000E+0	0.00000E+0	0.00000E+0	2.00000E+1	1.40000E+1	2.00019E+1	1.39994E+1
237	02/09/2022	14:28:34.166	0.00000E+0	0.00000E+0	2.00000E+1	0.00000E+0	0.00000E+0	0.00000E+0	2.00000E+1	1.40000E+1	2.00019E+1	1.39987E+1
238	02/09/2022	14:28:35.558	0.00000E+0	0.00000E+0	2.00000E+1	0.00000E+0	0.00000E+0	0.00000E+0	2.00000E+1	1.40000E+1	2.00016E+1	1.40006E+1
239	02/09/2022	14:28:36.930	0.00000E+0	0.00000E+0	2.00000E+1	0.00000E+0	0.00000E+0	0.00000E+0	2.00000E+1	1.40000E+1	1.99990E+1	1.39997E+1
240	02/09/2022	14:28:38.470	0.00000E+0	0.00000E+0	2.00000E+1	0.00000E+0	0.00000E+0	0.00000E+0	2.00000E+1	1.40000E+1	1.99996E+1	1.39994E+1
241	02/09/2022	14:28:39.863	0.00000E+0	0.00000E+0	2.00000E+1	0.00000E+0	0.00000E+0	0.00000E+0	2.00000E+1	1.40000E+1	2.00006E+1	1.40012E+1
242	02/09/2022	14:28:41.375	0.00000E+0	0.00000E+0	2.00000E+1	0.00000E+0	0.00000E+0	0.00000E+0	2.00000E+1	1.40000E+1	2.00001E+1	1.40006E+1
243	02/09/2022	14:28:42.747	0.00000E+0	0.00000E+0	2.00000E+1	0.00000E+0	0.00000E+0	0.00000E+0	2.00000E+1	1.40000E+1	1.99999E+1	1.39995E+1
244	02/09/2022	14:28:44.142	0.00000E+0	0.00000E+0	2.00000E+1	0.00000E+0	0.00000E+0	0.00000E+0	2.00000E+1	1.40000E+1	1.99983E+1	1.39991E+1
245	02/09/2022	14:28:45.665	0.00000E+0	0.00000E+0	2.00000E+1	0.00000E+0	0.00000E+0	0.00000E+0	2.00000E+1	1.40000E+1	2.00015E+1	1.40012E+1
246	02/09/2022	14:28:47.058	0.00000E+0	0.00000E+0	2.00000E+1	0.00000E+0	0.00000E+0	0.00000E+0	2.00000E+1	1.40000E+1	2.00045E+1	1.40001E+1
247	02/09/2022	14:28:48.506	0.00000E+0	0.00000E+0	2.00000E+1	0.00000E+0	0.00000E+0	0.00000E+0	2.00000E+1	1.40000E+1	2.00010E+1	1.39994E+1
248	02/09/2022	14:28:50.005	0.00000E+0	0.00000E+0	2.00000E+1	0.00000E+0	0.00000E+0	0.00000E+0	2.00000E+1	1.40000E+1	1.99985E+1	1.40017E+1
249	02/09/2022	14:28:51.390	0.00000E+0	0.00000E+0	2.00000E+1	0.00000E+0	0.00000E+0	0.00000E+0	2.00000E+1	1.40000E+1	1.99987E+1	1.39986E+1
250	02/09/2022	14:28:52.865	0.00000E+0	0.00000E+0	2.00000E+1	0.00000E+0	0.00000E+0	0.00000E+0	2.00000E+1	1.40000E+1	1.99976E+1	1.39975E+1
251	02/09/2022	14:28:54.255	0.00000E+0	0.00000E+0	2.00000E+1	0.00000E+0	0.00000E+0	0.00000E+0	2.00000E+1	1.40000E+1	1.99999E+1	1.40009E+1
252	02/09/2022	14:28:55.637	0.00000E+0	0.00000E+0	2.00000E+1	0.00000E+0	0.00000E+0	0.00000E+0	2.00000E+1	1.40000E+1	2.00015E+1	1.39989E+1
253	02/09/2022	14:28:57.188	0.00000E+0	0.00000E+0	2.00000E+1	0.00000E+0	0.00000E+0	0.00000E+0	2.00000E+1	1.40000E+1	2.00013E+1	1.40009E+1
254	02/09/2022	14:28:58.585	0.00000E+0	0.00000E+0	2.00000E+1	0.00000E+0	0.00000E+0	0.00000E+0	2.00000E+1	1.40000E+1	1.99997E+1	1.39996E+1
255	02/09/2022	14:29:00.031	0.00000E+0	0.00000E+0	2.00000E+1	0.00000E+0	0.00000E+0	0.00000E+0	2.00000E+1	1.40000E+1	1.99990E+1	1.39994E+1
256	02/09/2022	14:29:01.376	0.00000E+0	0.00000E+0	2.00000E+1	0.00000E+0	0.00000E+0	0.00000E+0	2.00000E+1	1.40000E+1	2.00001E+1	1.40024E+1
257	02/09/2022	14:29:02.774	0.00000E+0	0.00000E+0	2.00000E+1	0.00000E+0	0.00000E+0	0.00000E+0	2.00000E+1	1.40000E+1	1.99991E+1	1.40001E+1
258	02/09/2022	14:29:04.325	0.00000E+0	0.00000E+0	2.00000E+1	0.00000E+0	0.00000E+0	0.00000E+0	2.00000E+1	1.40000E+1	2.00006E+1	1.39994E+1
259	02/09/2022	14:29:05.709	0.00000E+0	0.00000E+0	2.00000E+1	0.00000E+0	0.00000E+0	0.00000E+0	2.00000E+1	1.40000E+1	1.99997E+1	1.40006E+1
260	02/09/2022	14:29:07.155	0.00000E+0	0.00000E+0	2.00000E+1	0.00000E+0	0.00000E+0	0.00000E+0	2.00000E+1	1.40000E+1	1.99974E+1	1.40027E+1
261	02/09/2022	14:29:08.649	0.00000E+0	0.00000E+0	2.00000E+1	0.00000E+0	0.00000E+0	0.00000E+0	2.00000E+1	1.40000E+1	1.99993E+1	1.39997E+1
262	02/09/2022	14:29:10.042	0.00000E+0	0.00000E+0	2.00000E+1	0.00000E+0	0.00000E+0	0.00000E+0	2.00000E+1	1.40000E+1	2.00003E+1	1.40014E+1
263	02/09/2022	14:29:11.511	0.00000E+0	0.00000E+0	2.00000E+1	0.00000E+0	0.00000E+0	0.00000E+0	2.00000E+1	1.40000E+1	2.00010E+1	1.40005E+1
264	02/09/2022	14:29:12.895	0.00000E+0	0.00000E+0	2.00000E+1	0.00000E+0	0.00000E+0	0.00000E+0	2.00000E+1	1.40000E+1	2.00009E+1	1.39999E+1
265	02/09/2022	14:29:14.288	0.00000E+0	0.00000E+0	2.00000E+1	0.00000E+0	0.00000E+0	0.00000E+0	2.00000E+1	1.40000E+1	1.99979E+1	1.39991E+1
266	02/09/2022	14:29:15.800	0.00000E+0	0.00000E+0	2.00000E+1	0.00000E+0	0.00000E+0	0.00000E+0	2.00000E+1	1.40000E+1	1.99987E+1	1.39985E+1
267	02/09/2022	14:29:17.181	0.00000E+0	0.00000E+0	2.00000E+1	0.00000E+0	0.00000E+0	0.00000E+0	2.00000E+1	1.40000E+1	1.99985E+1	1.39986E+1
268	02/09/2022	14:29:18.586	0.00000E+0	0.00000E+0	2.00000E+1	0.00000E+0	0.00000E+0	0.00000E+0	2.00000E+1	1.40000E+1	1.99999E+1	1.39976E+1
269	02/09/2022	14:29:20.090	0.00000E+0	0.00000E+0	2.00000E+1	0.00000E+0	0.00000E+0	0.00000E+0	2.00000E+1	1.40000E+1	2.00029E+1	1.40022E+1
270	02/09/2022	14:29:21.472	0.00000E+0	0.00000E+0	2.00000E+1	0.00000E+0	0.00000E+0	0.00000E+0	2.00000E+1	1.40000E+1	2.00021E+1	1.39986E+1
271	02/09/2022	14:29:23.021	0.00000E+0	0.00000E+0	2.00000E+1	0.00000E+0	0.00000E+0	0.00000E+0	2.00000E+1	1.40000E+1	1.99993E+1	1.40003E+1
272	02/09/2022	14:29:24.406	0.00000E+0	0.00000E+0	2.00000E+1	0.00000E+0	0.00000E+0	0.00000E+0	2.00000E+1	1.40000E+1	2.00016E+1	1.40012E+1
273	02/09/2022	14:29:25.811	0.00000E+0	0.00000E+0	2.00000E+1	0.00000E+0	0.00000E+0	0.00000E+0	2.00000E+1	1.40000E+1	2.00019E+1	1.39999E+1
274	02/09/2022	14:29:27.291	0.00000E+0	0.00000E+0	2.00000E+1	0.00000E+0	0.00000E+0	0.00000E+0	2.00000E+1	1.40000E+1	1.99994E+1	1.40009E+1
275	02/09/2022	14:29:28.679	0.00000E+0	0.00000E+0	2.00000E+1	0.00000E+0	0.00000E+0	0.00000E+0	2.00000E+1	1.40000E+1	1.99987E+1	1.40007E+1
276	02/09/2022	14:29:30.207	0.00000E+0	0.00000E+0	2.00000E+1	0.00000E+0	0.00000E+0	0.00000E+0	2.00000E+1	1.40000E+1	2.00009E+1	1.40008E+1
277	02/09/2022	14:29:31.611	0.00000E+0	0.00000E+0	2.00000E+1	0.00000E+0	0.00000E+0	0.00000E+0	2.00000E+1	1.40000E+1	1.99988E+1	1.40009E+1
278	02/09/2022	14:29:32.999	0.00000E+0	0.00000E+0	2.00000E+1	0.00000E+0	0.00000E+0	0.00000E+0	2.00000E+1	1.40000E+1	1.99992E+1	1.40021E+1
279	02/09/2022	14:29:34.502	0.00000E+0	0.00000E+0	2.00000E+1	0.00000E+0	0.00000E+0	0.00000E+0	2.00000E+1	1.40000E+1	1.99987E+1	1.40012E+1
280	02/09/2022	14:29:35.899	0.00000E+0	0.00000E+0	2.00000E+1	0.00000E+0	0.00000E+0	0.00000E+0	2.00000E+1	1.40000E+1	1.99977E+1	1.39979E+1
281	02/09/2022	14:29:37.299	0.00000E+0	0.00000E+0	2.00000E+1	0.00000E+0	0.00000E+0	0.00000E+0	2.00000E+1	1.40000E+1	1.99994E+1	1.39993E+1
282	02/09/2022	14:29:38.833	0.00000E+0	0.00000E+0	2.00000E+1	0.00000E+0	0.00000E+0	0.00000E+0	2.00000E+1	1.40000E+1	2.00014E+1	1.39998E+1
283	02/09/2022	14:29:40.221	0.00000E+0	0.00000E+0	2.00000E+1	0.00000E+0	0.00000E+0	0.00000E+0	2.00000E+1	1.40000E+1	1.99984E+1	1.39978E+1
284	02/09/2022	14:29:41.695	0.00000E+0	0.00000E+0	2.00000E+1	0.00000E+0	0.00000E+0	0.00000E+0	2.00000E+1	1.40000E+1	1.99994E+1	1.40019E+1
285	02/09/2022	14:29:43.087	0.00000E+0	0.00000E+0	2.00000E+1	0.00000E+0	0.00000E+0	0.00000E+0	2.00000E+1	1.40000E+1	1.99995E+1	1.39999E+1
286	02/09/2022	14:29:44.482	0.00000E+0	0.00000E+0	2.00000E+1	0.00000E+0	0.00000E+0	0.00000E+0	2.00000E+1	1.40000E+1	1.99993E+1	1.39977E+1
287	02/09/2022	14:29:46.024	0.00000E+0	0.00000E+0	2.00000E+1	0.00000E+0	0.00000E+0	0.00000E+0	2.00000E+1	1.40000E+1	2.00000E+1	1.40012E+1
288	02/09/2022	14:29:47.409	0.00000E+0	0.00000E+0	2.00000E+1	0.00000E+0	0.00000E+0	0.00000E+0	2.00000E+1	1.40000E+1	1.99998E+1	1.39995E+1
289	02/09/2022	14:29:48.797	0.00000E+0	0.00000E+0	2.00000E+1	0.00000E+0	0.00000E+0	0.00000E+0	2.00000E+1	1.40000E+1	1.99990E+1	1.40027E+1
290	02/09/2022	14:29:50.289	0.00000E+0	0.00000E+0	2.00000E+1	0.00000E+0	0.00000E+0	0.00000E+0	2.00000E+1	1.40000E+1	2.00008E+1	1.40009E+1
291	02/09/2022	14:29:51.716	0.00000E+0	0.00000E+0	2.00000E+1	0.00000E+0	0.00000E+0	0.00000E+0	2.00000E+1	1.40000E+1	2.00029E+1	1.39990E+1
292	02/09/2022	14:29:53.216	0.00000E+0	0.00000E+0	2.00000E+1	0.00000E+0	0.00000E+0	0.00000E+0	2.00000E+1	1.40000E+1	1.99985E+1	1.40008E+1
293	02/09/2022	14:29:54.600	0.00000E+0	0.00000E+0	2.00000E+1	0.00000E+0	0.00000E+0	0.00000E+0	2.00000E+1	1.40000E+1	2.00004E+1	1.39998E+1
294	02/09/2022	14:29:56.041	0.00000E+0	0.00000E+0	2.00000E+1	0.00000E+0	0.00000E+0	0.00000E+0	2.00000E+1	1.40000E+1	1.99980E+1	1.40021E+1
295	02/09/2022	14:29:57.534	0.00000E+0	0.00000E+0	2.00000E+1	0.00000E+0	0.00000E+0	0.00000E+0	2.00000E+1	1.40000E+1	1.99988E+1	1.39998E+1
296	02/09/2022	14:29:58.924	0.00000E+0	0.00000E+0	2.00000E+1	0.00000E+0	0.00000E+0	0.00000E+0	2.00000E+1	1.40000E+1	1.99988E+1	1.40024E+1
297	02/09/2022	14:30:00.433	0.00000E+0	0.00000E+0	2.00000E+1	0.00000E+0	0.00000E+0	0.00000E+0	2.00000E+1	1.40000E+1	1.99981E+1	1.39995E+1
298	02/09/2022	14:30:01.832	0.00000E+0	0.00000E+0	2.00000E+1	0.00000E+0	0.00000E+0	0.00000E+0	2.00000E+1	1.40000E+1	1.99981E+1	1.40023E+1
299	02/09/2022	14:30:03.200	0.00000E+0	0.00000E+0	2.00000E+1	0.00000E+0	0.00000E+0	0.00000E+0	2.00000E+1	1.40000E+1	1.99991E+1	1.40028E+1
300	02/09/2022	14:30:04.717	0.00000E+0	0.00000E+0	2.00000E+1	0.00000E+0	0.00000E+0	0.00000E+0	2.00000E+1	1.40000E+1	1.99994E+1	1.39999E+1
301	02/09/2022	14:30:06.108	0.00000E+0	0.00000E+0	2.00000E+1	0.00000E+0	0.00000E+0	0.00000E+0	2.00000E+1	1.40000E+1	2.00001E+1	1.39998E+1
