#Iteration	Date	Time	RTPhase	NFringe	AccelAxis	AccelMean	AccelTemp
1	02/09/2022	14:22:54.715	1.81163131E+0	-1.23300000E+3	2.00000000E+0	-9.80597889E+0	7.16102800E+6
2	02/09/2022	14:22:56.160	8.98912742E-1	-1.23500000E+3	2.00000000E+0	-9.80597889E+0	7.16102800E+6
3	02/09/2022	14:22:57.538	1.64826236E+0	-1.23400000E+3	2.00000000E+0	-9.80597889E+0	7.16102800E+6
4	02/09/2022	14:22:59.015	6.02509304E+0	-1.23400000E+3	2.00000000E+0	-9.80597889E+0	7.16102800E+6
5	02/09/2022	14:23:00.399	2.68139842E+0	-1.23500000E+3	2.00000000E+0	-9.80597889E+0	7.16102800E+6
6	02/09/2022	14:23:01.870	4.38335010E-1	-1.23400000E+3	2.00000000E+0	-9.80597889E+0	7.16102800E+6
7	02/09/2022	14:23:03.390	3.20141790E+0	-1.23300000E+3	2.00000000E+0	-9.80597889E+0	7.16102800E+6
8	02/09/2022	14:23:04.791	2.23002457E+0	-1.23400000E+3	2.00000000E+0	-9.80597889E+0	7.16102800E+6
9	02/09/2022	14:23:06.349	1.57079633E+0	-1.23300000E+3	2.00000000E+0	-9.80597889E+0	7.16102800E+6
10	02/09/2022	14:23:07.744	2.74199066E+0	-1.23500000E+3	2.00000000E+0	-9.80597889E+0	7.16102800E+6
11	02/09/2022	14:23:09.131	5.90084060E+0	-1.23400000E+3	2.00000000E+0	-9.80597889E+0	7.16102800E+6
12	02/09/2022	14:23:10.609	2.28869934E+0	-1.23400000E+3	2.00000000E+0	-9.80597889E+0	7.16102800E+6
13	02/09/2022	14:23:12.020	3.68270438E+0	-1.23300000E+3	2.00000000E+0	-9.80597889E+0	7.16102800E+6
14	02/09/2022	14:23:13.473	3.88403935E+0	-1.23300000E+3	2.00000000E+0	-9.80597889E+0	7.16102800E+6
15	02/09/2022	14:23:14.964	1.57731575E+0	-1.23400000E+3	2.00000000E+0	-9.80597889E+0	7.16102800E+6
16	02/09/2022	14:23:16.361	5.66230658E+0	-1.23500000E+3	2.00000000E+0	-9.80597889E+0	7.16102800E+6
17	02/09/2022	14:23:17.898	5.07824340E+0	-1.23300000E+3	2.00000000E+0	-9.80597889E+0	7.16102800E+6
18	02/09/2022	14:23:19.279	3.83111702E-1	-1.23400000E+3	2.00000000E+0	-9.80597889E+0	7.16102800E+6
19	02/09/2022	14:23:20.674	2.00606338E+0	-1.23300000E+3	2.00000000E+0	-9.80597889E+0	7.16102800E+6
20	02/09/2022	14:23:22.120	2.63921395E+0	-1.23500000E+3	2.00000000E+0	-9.80597889E+0	7.16102800E+6
21	02/09/2022	14:23:23.505	3.01849070E+0	-1.23300000E+3	2.00000000E+0	-9.80597889E+0	7.16102800E+6
22	02/09/2022	14:23:25.052	3.09480624E-1	-1.23300000E+3	2.00000000E+0	-9.80597889E+0	7.16102800E+6
23	02/09/2022	14:23:26.476	3.54004416E+0	-1.23300000E+3	2.00000000E+0	-9.80597889E+0	7.16102800E+6
24	02/09/2022	14:23:27.855	4.95667542E+0	-1.23400000E+3	2.00000000E+0	-9.80597889E+0	7.16102800E+6
25	02/09/2022	14:23:29.394	3.25894218E+0	-1.23300000E+3	2.00000000E+0	-9.80597889E+0	7.16102800E+6
26	02/09/2022	14:23:30.815	3.68999079E+0	-1.23300000E+3	2.00000000E+0	-9.80597889E+0	7.16102800E+6
27	02/09/2022	14:23:32.267	4.20655882E+0	-1.23300000E+3	2.00000000E+0	-9.80597889E+0	7.16102800E+6
28	02/09/2022	14:23:33.764	5.37928713E+0	-1.23400000E+3	2.00000000E+0	-9.80597889E+0	7.16102800E+6
29	02/09/2022	14:23:35.152	1.74528664E+0	-1.23300000E+3	2.00000000E+0	-9.80597889E+0	7.16102800E+6
30	02/09/2022	14:23:36.590	9.56437021E-1	-1.23400000E+3	2.00000000E+0	-9.80597889E+0	7.16102800E+6
31	02/09/2022	14:23:38.005	1.52439341E+0	-1.23400000E+3	2.00000000E+0	-9.80597889E+0	7.16102800E+6
32	02/09/2022	14:23:39.389	2.83019455E+0	-1.23300000E+3	2.00000000E+0	-9.80597889E+0	7.16102800E+6
33	02/09/2022	14:23:40.942	3.57839368E+0	-1.23300000E+3	2.00000000E+0	-9.80597889E+0	7.16102800E+6
34	02/09/2022	14:23:42.351	5.33902013E+0	-1.23300000E+3	2.00000000E+0	-9.80597889E+0	7.16102800E+6
35	02/09/2022	14:23:43.797	1.16850987E+0	-1.23400000E+3	2.00000000E+0	-9.80597889E+0	7.16102800E+6
36	02/09/2022	14:23:45.150	7.82330202E-1	-1.23400000E+3	2.00000000E+0	-9.80597889E+0	7.16102800E+6
37	02/09/2022	14:23:46.542	5.96373381E+0	-1.23400000E+3	2.00000000E+0	-9.80597889E+0	7.16102800E+6
38	02/09/2022	14:23:48.115	3.29422374E-1	-1.23400000E+3	2.00000000E+0	-9.80597889E+0	7.16102800E+6
39	02/09/2022	14:23:49.501	3.40160240E-1	-1.23400000E+3	2.00000000E+0	-9.80597889E+0	7.16102800E+6
40	02/09/2022	14:23:50.925	2.31822847E+0	-1.23300000E+3	2.00000000E+0	-9.80597889E+0	7.16102800E+6
41	02/09/2022	14:23:52.456	2.74735959E+0	-1.23500000E+3	2.00000000E+0	-9.80597889E+0	7.16102800E+6
42	02/09/2022	14:23:53.881	1.18269919E+0	-1.23400000E+3	2.00000000E+0	-9.80597889E+0	7.16102800E+6
43	02/09/2022	14:23:55.409	6.11598140E+0	-1.23400000E+3	2.00000000E+0	-9.80597889E+0	7.16102800E+6
44	02/09/2022	14:23:56.793	1.40972834E+0	-1.23500000E+3	2.00000000E+0	-9.80597889E+0	7.16102800E+6
45	02/09/2022	14:23:58.173	3.23554898E+0	-1.23400000E+3	2.00000000E+0	-9.80597889E+0	7.16102800E+6
46	02/09/2022	14:23:59.652	5.39309296E+0	-1.23400000E+3	2.00000000E+0	-9.80597889E+0	7.16102800E+6
47	02/09/2022	14:24:01.041	3.33794219E+0	-1.23500000E+3	2.00000000E+0	-9.80597889E+0	7.16102800E+6
48	02/09/2022	14:24:02.467	2.16061194E+0	-1.23300000E+3	2.00000000E+0	-9.80597889E+0	7.16102800E+6
49	02/09/2022	14:24:03.954	2.48044693E+0	-1.23500000E+3	2.00000000E+0	-9.80597889E+0	7.16102800E+6
50	02/09/2022	14:24:05.362	3.71721894E+0	-1.23500000E+3	2.00000000E+0	-9.80597889E+0	7.16102800E+6
51	02/09/2022	14:24:06.851	3.68040341E+0	-1.23300000E+3	2.00000000E+0	-9.80597889E+0	7.16102800E+6
52	02/09/2022	14:24:08.254	2.94485962E+0	-1.23400000E+3	2.00000000E+0	-9.80597889E+0	7.16102800E+6
53	02/09/2022	14:24:09.639	1.31730600E+0	-1.23300000E+3	2.00000000E+0	-9.80597889E+0	7.16102800E+6
54	02/09/2022	14:24:11.133	6.46572902E-1	-1.23300000E+3	2.00000000E+0	-9.80597889E+0	7.16102800E+6
55	02/09/2022	14:24:12.519	6.19804937E+0	-1.23400000E+3	2.00000000E+0	-9.80597889E+0	7.16102800E+6
56	02/09/2022	14:24:13.960	5.04296184E-1	-1.23300000E+3	2.00000000E+0	-9.80597889E+0	7.16102800E+6
57	02/09/2022	14:24:15.297	4.88879677E+0	-1.23300000E+3	2.00000000E+0	-9.80597889E+0	7.16102800E+6
58	02/09/2022	14:24:16.698	5.90620953E+0	-1.23400000E+3	2.00000000E+0	-9.80597889E+0	7.16102800E+6
59	02/09/2022	14:24:18.212	5.87169496E+0	-1.23300000E+3	2.00000000E+0	-9.80597889E+0	7.16102800E+6
60	02/09/2022	14:24:19.575	1.84806335E+0	-1.23300000E+3	2.00000000E+0	-9.80597889E+0	7.16102800E+6
61	02/09/2022	14:24:20.984	4.99732591E+0	-1.23400000E+3	2.00000000E+0	-9.80597889E+0	7.16102800E+6
62	02/09/2022	14:24:22.500	1.88679637E+0	-1.23300000E+3	2.00000000E+0	-9.80597889E+0	7.16102800E+6
63	02/09/2022	14:24:23.883	6.59611739E-1	-1.23400000E+3	2.00000000E+0	-9.80597889E+0	7.16102800E+6
64	02/09/2022	14:24:25.395	1.89369928E+0	-1.23500000E+3	2.00000000E+0	-9.80597889E+0	7.16102800E+6
65	02/09/2022	14:24:26.775	6.03621440E+0	-1.23500000E+3	2.00000000E+0	-9.80597889E+0	7.16102800E+6
66	02/09/2022	14:24:28.157	3.55039853E+0	-1.23300000E+3	2.00000000E+0	-9.80597889E+0	7.16102800E+6
67	02/09/2022	14:24:29.711	4.97009775E+0	-1.23300000E+3	2.00000000E+0	-9.80597889E+0	7.16102800E+6
68	02/09/2022	14:24:31.139	4.32199087E+0	-1.23500000E+3	2.00000000E+0	-9.80597889E+0	7.16102800E+6
69	02/09/2022	14:24:32.585	4.10953453E+0	-1.23300000E+3	2.00000000E+0	-9.80597889E+0	7.16102800E+6
70	02/09/2022	14:24:34.091	4.81056375E+0	-1.23300000E+3	2.00000000E+0	-9.80597889E+0	7.16102800E+6
71	02/09/2022	14:24:35.473	1.19075259E+0	-1.23400000E+3	2.00000000E+0	-9.80597889E+0	7.16102800E+6
72	02/09/2022	14:24:36.977	3.39469948E+0	-1.23400000E+3	2.00000000E+0	-9.80597889E+0	7.16102800E+6
73	02/09/2022	14:24:38.388	4.28901028E+0	-1.23400000E+3	2.00000000E+0	-9.80597889E+0	7.16102800E+6
74	02/09/2022	14:24:39.777	1.63215556E+0	-1.23400000E+3	2.00000000E+0	-9.80597889E+0	7.16102800E+6
75	02/09/2022	14:24:41.218	2.87429650E+0	-1.23400000E+3	2.00000000E+0	-9.80597889E+0	7.16102800E+6
76	02/09/2022	14:24:42.622	4.46043264E+0	-1.23300000E+3	2.00000000E+0	-9.80597889E+0	7.16102800E+6
77	02/09/2022	14:24:44.085	3.97416073E+0	-1.23300000E+3	2.00000000E+0	-9.80597889E+0	7.16102800E+6
78	02/09/2022	14:24:45.548	6.21377268E+0	-1.23400000E+3	2.00000000E+0	-9.80597889E+0	7.16102800E+6
79	02/09/2022	14:24:46.935	3.34561210E+0	-1.23500000E+3	2.00000000E+0	-9.80597889E+0	7.16102800E+6
80	02/09/2022	14:24:48.485	4.91679192E+0	-1.23500000E+3	2.00000000E+0	-9.80597889E+0	7.16102800E+6
81	02/09/2022	14:24:49.868	3.51358299E+0	-1.23300000E+3	2.00000000E+0	-9.80597889E+0	7.16102800E+6
82	02/09/2022	14:24:51.291	4.14213162E+0	-1.23300000E+3	2.00000000E+0	-9.80597889E+0	7.16102800E+6
83	02/09/2022	14:24:52.758	2.18975757E-1	-1.23300000E+3	2.00000000E+0	-9.80597889E+0	7.16102800E+6
84	02/09/2022	14:24:54.151	2.38303915E+0	-1.23400000E+3	2.00000000E+0	-9.80597889E+0	7.16102800E+6
85	02/09/2022	14:24:55.646	1.63215556E+0	-1.23500000E+3	2.00000000E+0	-9.80597889E+0	7.16102800E+6
86	02/09/2022	14:24:57.038	9.34577795E-1	-1.23200000E+3	2.00000000E+0	-9.80597889E+0	7.16102800E+6
87	02/09/2022	14:24:58.414	5.01995213E+0	-1.23400000E+3	2.00000000E+0	-9.80597889E+0	7.16102800E+6
88	02/09/2022	14:24:59.967	4.58200061E+0	-1.23400000E+3	2.00000000E+0	-9.80597889E+0	7.16102800E+6
89	02/09/2022	14:25:01.333	5.40728228E-1	-1.23300000E+3	2.00000000E+0	-9.80597889E+0	7.16102800E+6
90	02/09/2022	14:25:02.786	2.77765571E+0	-1.23300000E+3	2.00000000E+0	-9.80597889E+0	7.16102800E+6
91	02/09/2022	14:25:04.140	1.36754387E+0	-1.23400000E+3	2.00000000E+0	-9.80597889E+0	7.16102800E+6
92	02/09/2022	14:25:05.538	1.62256818E+0	-1.23400000E+3	2.00000000E+0	-9.80597889E+0	7.16102800E+6
93	02/09/2022	14:25:07.003	2.70555861E+0	-1.23500000E+3	2.00000000E+0	-9.80597889E+0	7.16102800E+6
94	02/09/2022	14:25:08.413	8.22597198E-1	-1.23400000E+3	2.00000000E+0	-9.80597889E+0	7.16102800E+6
95	02/09/2022	14:25:09.855	3.40083541E+0	-1.23300000E+3	2.00000000E+0	-9.80597889E+0	7.16102800E+6
96	02/09/2022	14:25:11.355	5.08898126E-1	-1.23300000E+3	2.00000000E+0	-9.80597889E+0	7.16102800E+6
97	02/09/2022	14:25:12.748	5.48436481E+0	-1.23500000E+3	2.00000000E+0	-9.80597889E+0	7.16102800E+6
98	02/09/2022	14:25:14.227	1.54165069E+0	-1.23400000E+3	2.00000000E+0	-9.80597889E+0	7.16102800E+6
99	02/09/2022	14:25:15.614	1.30771862E-1	-1.23300000E+3	2.00000000E+0	-9.80597889E+0	7.16102800E+6
100	02/09/2022	14:25:17.048	5.18945701E+0	-1.23500000E+3	2.00000000E+0	-9.80597889E+0	7.16102800E+6
101	02/09/2022	14:25:18.518	1.50061671E+0	-1.23300000E+3	2.00000000E+0	-9.80597889E+0	7.16102800E+6
102	02/09/2022	14:25:19.915	1.45536427E+0	-1.23500000E+3	2.00000000E+0	-9.80597889E+0	7.16102800E+6
103	02/09/2022	14:25:21.309	1.97384978E+0	-1.23300000E+3	2.00000000E+0	-9.80597889E+0	7.16102800E+6
104	02/09/2022	14:25:22.713	5.86670952E+0	-1.23400000E+3	2.00000000E+0	-9.80597889E+0	7.16102800E+6
105	02/09/2022	14:25:24.090	2.12149543E+0	-1.23300000E+3	2.00000000E+0	-9.80597889E+0	7.16102800E+6
106	02/09/2022	14:25:25.558	2.05208280E+0	-1.23300000E+3	2.00000000E+0	-9.80597889E+0	7.16102800E+6
107	02/09/2022	14:25:26.941	2.40029644E+0	-1.23500000E+3	2.00000000E+0	-9.80597889E+0	7.16102800E+6
108	02/09/2022	14:25:28.328	5.37775315E+0	-1.23400000E+3	2.00000000E+0	-9.80597889E+0	7.16102800E+6
109	02/09/2022	14:25:29.807	3.24360238E+0	-1.23400000E+3	2.00000000E+0	-9.80597889E+0	7.16102800E+6
110	02/09/2022	14:25:31.187	1.15547103E+0	-1.23500000E+3	2.00000000E+0	-9.80597889E+0	7.16102800E+6
111	02/09/2022	14:25:32.585	5.16989875E+0	-1.23400000E+3	2.00000000E+0	-9.80597889E+0	7.16102800E+6
112	02/09/2022	14:25:34.107	3.08483536E+0	-1.23500000E+3	2.00000000E+0	-9.80597889E+0	7.16102800E+6
113	02/09/2022	14:25:35.487	5.88780176E+0	-1.23400000E+3	2.00000000E+0	-9.80597889E+0	7.16102800E+6
114	02/09/2022	14:25:37.017	9.33810805E-1	-1.23400000E+3	2.00000000E+0	-9.80597889E+0	7.16102800E+6
115	02/09/2022	14:25:38.403	1.08299044E+0	-1.23400000E+3	2.00000000E+0	-9.80597889E+0	7.16102800E+6
116	02/09/2022	14:25:39.818	1.34990309E+0	-1.23400000E+3	2.00000000E+0	-9.80597889E+0	7.16102800E+6
117	02/09/2022	14:25:41.300	1.92514589E-1	-1.23300000E+3	2.00000000E+0	-9.80597889E+0	7.16102800E+6
118	02/09/2022	14:25:42.692	4.67787441E+0	-1.23500000E+3	2.00000000E+0	-9.80597889E+0	7.16102800E+6
119	02/09/2022	14:25:44.224	5.81992311E+0	-1.23400000E+3	2.00000000E+0	-9.80597889E+0	7.16102800E+6
120	02/09/2022	14:25:45.626	2.98052467E+0	-1.23300000E+3	2.00000000E+0	-9.80597889E+0	7.16102800E+6
121	02/09/2022	14:25:47.004	4.93558319E-1	-1.23300000E+3	2.00000000E+0	-9.80597889E+0	7.16102800E+6
122	02/09/2022	14:25:48.530	1.95199055E+0	-1.23400000E+3	2.00000000E+0	-9.80597889E+0	7.16102800E+6
123	02/09/2022	14:25:49.934	2.45858771E+0	-1.23500000E+3	2.00000000E+0	-9.80597889E+0	7.16102800E+6
124	02/09/2022	14:25:51.350	9.26140901E-1	-1.23500000E+3	2.00000000E+0	-9.80597889E+0	7.16102800E+6
125	02/09/2022	14:25:52.850	4.46158312E+0	-1.23500000E+3	2.00000000E+0	-9.80597889E+0	7.16102800E+6
126	02/09/2022	14:25:54.234	4.50952002E+0	-1.23500000E+3	2.00000000E+0	-9.80597889E+0	7.16102800E+6
127	02/09/2022	14:25:55.763	5.25196672E+0	-1.23400000E+3	2.00000000E+0	-9.80597889E+0	7.16102800E+6
128	02/09/2022	14:25:57.152	4.04203938E+0	-1.23500000E+3	2.00000000E+0	-9.80597889E+0	7.16102800E+6
129	02/09/2022	14:25:58.539	3.31186452E+0	-1.23300000E+3	2.00000000E+0	-9.80597889E+0	7.16102800E+6
130	02/09/2022	14:26:00.103	3.77666070E+0	-1.23400000E+3	2.00000000E+0	-9.80597889E+0	7.16102800E+6
131	02/09/2022	14:26:01.493	2.18707311E+0	-1.23400000E+3	2.00000000E+0	-9.80597889E+0	7.16102800E+6
132	02/09/2022	14:26:03.015	1.41126232E+0	-1.23300000E+3	2.00000000E+0	-9.80597889E+0	7.16102800E+6
133	02/09/2022	14:26:04.405	3.43074803E+0	-1.23500000E+3	2.00000000E+0	-9.80597889E+0	7.16102800E+6
134	02/09/2022	14:26:05.800	1.37444679E+0	-1.23300000E+3	2.00000000E+0	-9.80597889E+0	7.16102800E+6
135	02/09/2022	14:26:07.353	2.55791296E+0	-1.23300000E+3	2.00000000E+0	-9.80597889E+0	7.16102800E+6
136	02/09/2022	14:26:08.744	9.03131189E-1	-1.23400000E+3	2.00000000E+0	-9.80597889E+0	7.16102800E+6
137	02/09/2022	14:26:10.185	8.55577784E-1	-1.23400000E+3	2.00000000E+0	-9.80597889E+0	7.16102800E+6
138	02/09/2022	14:26:11.682	1.19573802E+0	-1.23300000E+3	2.00000000E+0	-9.80597889E+0	7.16102800E+6
139	02/09/2022	14:26:13.083	3.87330149E-1	-1.23300000E+3	2.00000000E+0	-9.80597889E+0	7.16102800E+6
140	02/09/2022	14:26:14.565	1.22296618E+0	-1.23400000E+3	2.00000000E+0	-9.80597889E+0	7.16102800E+6
141	02/09/2022	14:26:15.945	4.69436471E+0	-1.23500000E+3	2.00000000E+0	-9.80597889E+0	7.16102800E+6
142	02/09/2022	14:26:17.331	6.66898148E-1	-1.23300000E+3	2.00000000E+0	-9.80597889E+0	7.16102800E+6
143	02/09/2022	14:26:18.917	2.67679647E-1	-1.23400000E+3	2.00000000E+0	-9.80597889E+0	7.16102800E+6
144	02/09/2022	14:26:20.300	2.27335953E+0	-1.23300000E+3	2.00000000E+0	-9.80597889E+0	7.16102800E+6
145	02/09/2022	14:26:21.748	1.95812648E+0	-1.23400000E+3	2.00000000E+0	-9.80597889E+0	7.16102800E+6
146	02/09/2022	14:26:23.166	5.02378708E-2	-1.23300000E+3	2.00000000E+0	-9.80597889E+0	7.16102800E+6
147	02/09/2022	14:26:24.557	3.23861694E+0	-1.23400000E+3	2.00000000E+0	-9.80597889E+0	7.16102800E+6
148	02/09/2022	14:26:26.061	4.68439383E+0	-1.23400000E+3	2.00000000E+0	-9.80597889E+0	7.16102800E+6
149	02/09/2022	14:26:27.449	5.67342794E+0	-1.23500000E+3	2.00000000E+0	-9.80597889E+0	7.16102800E+6
150	02/09/2022	14:26:28.899	2.38687411E+0	-1.23500000E+3	2.00000000E+0	-9.80597889E+0	7.16102800E+6
151	02/09/2022	14:26:30.410	6.16890374E+0	-1.23600000E+3	2.00000000E+0	-9.80597889E+0	7.16102800E+6
152	02/09/2022	14:26:31.808	5.46519005E+0	-1.23400000E+3	2.00000000E+0	-9.80597889E+0	7.16102800E+6
153	02/09/2022	14:26:33.241	4.66061713E+0	-1.23500000E+3	2.00000000E+0	-9.80597889E+0	7.16102800E+6
154	02/09/2022	14:26:34.685	1.90903909E+0	-1.23400000E+3	2.00000000E+0	-9.80597889E+0	7.16102800E+6
155	02/09/2022	14:26:36.081	1.44194194E+0	-1.23300000E+3	2.00000000E+0	-9.80597889E+0	7.16102800E+6
156	02/09/2022	14:26:37.540	2.50307315E+0	-1.23300000E+3	2.00000000E+0	-9.80597889E+0	7.16102800E+6
157	02/09/2022	14:26:38.926	4.32735980E+0	-1.23400000E+3	2.00000000E+0	-9.80597889E+0	7.16102800E+6
158	02/09/2022	14:26:40.320	3.20410237E+0	-1.23400000E+3	2.00000000E+0	-9.80597889E+0	7.16102800E+6
159	02/09/2022	14:26:41.809	2.50307315E+0	-1.23500000E+3	2.00000000E+0	-9.80597889E+0	7.16102800E+6
160	02/09/2022	14:26:43.205	5.55109298E+0	-1.23300000E+3	2.00000000E+0	-9.80597889E+0	7.16102800E+6
161	02/09/2022	14:26:44.674	4.85619968E+0	-1.23400000E+3	2.00000000E+0	-9.80597889E+0	7.16102800E+6
162	02/09/2022	14:26:46.058	2.93412175E+0	-1.23500000E+3	2.00000000E+0	-9.80597889E+0	7.16102800E+6
163	02/09/2022	14:26:47.447	4.23493746E+0	-1.23300000E+3	2.00000000E+0	-9.80597889E+0	7.16102800E+6
164	02/09/2022	14:26:48.901	2.59856345E+0	-1.23300000E+3	2.00000000E+0	-9.80597889E+0	7.16102800E+6
165	02/09/2022	14:26:50.277	4.58123362E+0	-1.23300000E+3	2.00000000E+0	-9.80597889E+0	7.16102800E+6
166	02/09/2022	14:26:51.791	4.58430158E+0	-1.23400000E+3	2.00000000E+0	-9.80597889E+0	7.16102800E+6
167	02/09/2022	14:26:53.235	3.87713644E+0	-1.23300000E+3	2.00000000E+0	-9.80597889E+0	7.16102800E+6
168	02/09/2022	14:26:54.610	2.19704398E+0	-1.23300000E+3	2.00000000E+0	-9.80597889E+0	7.16102800E+6
169	02/09/2022	14:26:56.153	5.61091823E+0	-1.23400000E+3	2.00000000E+0	-9.80597889E+0	7.16102800E+6
170	02/09/2022	14:26:57.533	2.25034982E+0	-1.23300000E+3	2.00000000E+0	-9.80597889E+0	7.16102800E+6
171	02/09/2022	14:26:58.922	1.87145656E+0	-1.23500000E+3	2.00000000E+0	-9.80597889E+0	7.16102800E+6
172	02/09/2022	14:27:00.430	8.78204001E-1	-1.23500000E+3	2.00000000E+0	-9.80597889E+0	7.16102800E+6
173	02/09/2022	14:27:01.814	2.95291302E-1	-1.23300000E+3	2.00000000E+0	-9.80597889E+0	7.16102800E+6
174	02/09/2022	14:27:03.334	6.00054935E+0	-1.23400000E+3	2.00000000E+0	-9.80597889E+0	7.16102800E+6
175	02/09/2022	14:27:04.727	2.34162167E+0	-1.23400000E+3	2.00000000E+0	-9.80597889E+0	7.16102800E+6
176	02/09/2022	14:27:06.117	2.80143241E+0	-1.23400000E+3	2.00000000E+0	-9.80597889E+0	7.16102800E+6
177	02/09/2022	14:27:07.647	1.63944197E+0	-1.23400000E+3	2.00000000E+0	-9.80597889E+0	7.16102800E+6
178	02/09/2022	14:27:09.068	2.45973819E+0	-1.23300000E+3	2.00000000E+0	-9.80597889E+0	7.16102800E+6
179	02/09/2022	14:27:10.513	2.04211192E+0	-1.23500000E+3	2.00000000E+0	-9.80597889E+0	7.16102800E+6
180	02/09/2022	14:27:12.002	6.18616102E+0	-1.23400000E+3	2.00000000E+0	-9.80597889E+0	7.16102800E+6
181	02/09/2022	14:27:13.385	1.81469927E+0	-1.23500000E+3	2.00000000E+0	-9.80597889E+0	7.16102800E+6
182	02/09/2022	14:27:14.923	5.51005899E+0	-1.23400000E+3	2.00000000E+0	-9.80597889E+0	7.16102800E+6
183	02/09/2022	14:27:16.306	2.39147605E+0	-1.23500000E+3	2.00000000E+0	-9.80597889E+0	7.16102800E+6
184	02/09/2022	14:27:17.770	4.63453946E+0	-1.23500000E+3	2.00000000E+0	-9.80597889E+0	7.16102800E+6
185	02/09/2022	14:27:19.245	2.47431101E+0	-1.23300000E+3	2.00000000E+0	-9.80597889E+0	7.16102800E+6
186	02/09/2022	14:27:20.625	1.97116531E-1	-1.23300000E+3	2.00000000E+0	-9.80597889E+0	7.16102800E+6
187	02/09/2022	14:27:22.176	4.13139376E+0	-1.23400000E+3	2.00000000E+0	-9.80597889E+0	7.16102800E+6
188	02/09/2022	14:27:23.570	3.54579659E+0	-1.23400000E+3	2.00000000E+0	-9.80597889E+0	7.16102800E+6
189	02/09/2022	14:27:24.964	1.17426229E+0	-1.23400000E+3	2.00000000E+0	-9.80597889E+0	7.16102800E+6
190	02/09/2022	14:27:26.434	2.38265566E+0	-1.23500000E+3	2.00000000E+0	-9.80597889E+0	7.16102800E+6
191	02/09/2022	14:27:27.835	3.41118978E+0	-1.23400000E+3	2.00000000E+0	-9.80597889E+0	7.16102800E+6
192	02/09/2022	14:27:29.275	4.35918990E+0	-1.23400000E+3	2.00000000E+0	-9.80597889E+0	7.16102800E+6
193	02/09/2022	14:27:30.770	2.75694697E+0	-1.23500000E+3	2.00000000E+0	-9.80597889E+0	7.16102800E+6
194	02/09/2022	14:27:32.151	2.35312653E+0	-1.23300000E+3	2.00000000E+0	-9.80597889E+0	7.16102800E+6
195	02/09/2022	14:27:33.635	7.08699124E-1	-1.23400000E+3	2.00000000E+0	-9.80597889E+0	7.16102800E+6
196	02/09/2022	14:27:35.015	3.97454422E+0	-1.23500000E+3	2.00000000E+0	-9.80597889E+0	7.16102800E+6
197	02/09/2022	14:27:36.388	1.31845649E+0	-1.23400000E+3	2.00000000E+0	-9.80597889E+0	7.16102800E+6
198	02/09/2022	14:27:37.940	4.07386948E+0	-1.23400000E+3	2.00000000E+0	-9.80597889E+0	7.16102800E+6
199	02/09/2022	14:27:39.333	3.65931117E+0	-1.23400000E+3	2.00000000E+0	-9.80597889E+0	7.16102800E+6
200	02/09/2022	14:27:40.765	5.21898614E+0	-1.23500000E+3	2.00000000E+0	-9.80597889E+0	7.16102800E+6
201	02/09/2022	14:27:42.242	1.90635462E+0	-1.23300000E+3	2.00000000E+0	-9.80597889E+0	7.16102800E+6
202	02/09/2022	14:27:43.655	3.33525773E+0	-1.23300000E+3	2.00000000E+0	-9.80597889E+0	7.16102800E+6
203	02/09/2022	14:27:45.197	4.72235986E+0	-1.23400000E+3	2.00000000E+0	-9.80597889E+0	7.16102800E+6
204	02/09/2022	14:27:46.573	2.55599549E+0	-1.23300000E+3	2.00000000E+0	-9.80597889E+0	7.16102800E+6
205	02/09/2022	14:27:48.048	3.27888393E-1	-1.23400000E+3	2.00000000E+0	-9.80597889E+0	7.16102800E+6
206	02/09/2022	14:27:49.580	6.00936974E-1	-1.23300000E+3	2.00000000E+0	-9.80597889E+0	7.16102800E+6
207	02/09/2022	14:27:50.958	5.18984050E+0	-1.23300000E+3	2.00000000E+0	-9.80597889E+0	7.16102800E+6
208	02/09/2022	14:27:52.466	4.15593745E+0	-1.23300000E+3	2.00000000E+0	-9.80597889E+0	7.16102800E+6
209	02/09/2022	14:27:53.852	7.36694273E-1	-1.23500000E+3	2.00000000E+0	-9.80597889E+0	7.16102800E+6
210	02/09/2022	14:27:55.242	5.38772402E+0	-1.23300000E+3	2.00000000E+0	-9.80597889E+0	7.16102800E+6
211	02/09/2022	14:27:56.747	5.16951526E+0	-1.23300000E+3	2.00000000E+0	-9.80597889E+0	7.16102800E+6
212	02/09/2022	14:27:58.136	2.45628674E+0	-1.23500000E+3	2.00000000E+0	-9.80597889E+0	7.16102800E+6
213	02/09/2022	14:27:59.533	2.35005857E+0	-1.23300000E+3	2.00000000E+0	-9.80597889E+0	7.16102800E+6
214	02/09/2022	14:28:01.078	2.57440326E+0	-1.23300000E+3	2.00000000E+0	-9.80597889E+0	7.16102800E+6
215	02/09/2022	14:28:02.465	2.45551975E+0	-1.23400000E+3	2.00000000E+0	-9.80597889E+0	7.16102800E+6
216	02/09/2022	14:28:03.935	3.41770920E+0	-1.23500000E+3	2.00000000E+0	-9.80597889E+0	7.16102800E+6
217	02/09/2022	14:28:05.321	9.17704006E-1	-1.23300000E+3	2.00000000E+0	-9.80597889E+0	7.16102800E+6
218	02/09/2022	14:28:06.707	3.80043740E+0	-1.23400000E+3	2.00000000E+0	-9.80597889E+0	7.16102800E+6
219	02/09/2022	14:28:08.213	4.35535495E+0	-1.23400000E+3	2.00000000E+0	-9.80597889E+0	7.16102800E+6
220	02/09/2022	14:28:09.606	4.42936953E+0	-1.23400000E+3	2.00000000E+0	-9.80597889E+0	7.16102800E+6
221	02/09/2022	14:28:11.133	2.50614111E+0	-1.23400000E+3	2.00000000E+0	-9.80597889E+0	7.16102800E+6
222	02/09/2022	14:28:12.534	4.85696667E+0	-1.23300000E+3	2.00000000E+0	-9.80597889E+0	7.16102800E+6
223	02/09/2022	14:28:13.975	3.68001991E+0	-1.23500000E+3	2.00000000E+0	-9.80597889E+0	7.16102800E+6
224	02/09/2022	14:28:15.514	8.30650597E-1	-1.23400000E+3	2.00000000E+0	-9.80597889E+0	7.16102800E+6
225	02/09/2022	14:28:16.905	4.94900552E+0	-1.23400000E+3	2.00000000E+0	-9.80597889E+0	7.16102800E+6
226	02/09/2022	14:28:18.338	5.03299097E+0	-1.23400000E+3	2.00000000E+0	-9.80597889E+0	7.16102800E+6
227	02/09/2022	14:28:19.820	1.57233031E-2	-1.23400000E+3	2.00000000E+0	-9.80597889E+0	7.16102800E+6
228	02/09/2022	14:28:21.200	2.06358765E+0	-1.23300000E+3	2.00000000E+0	-9.80597889E+0	7.16102800E+6
229	02/09/2022	14:28:22.690	3.05262177E+0	-1.23500000E+3	2.00000000E+0	-9.80597889E+0	7.16102800E+6
230	02/09/2022	14:28:24.083	1.36907785E+0	-1.23300000E+3	2.00000000E+0	-9.80597889E+0	7.16102800E+6
231	02/09/2022	14:28:25.464	4.32966077E+0	-1.23500000E+3	2.00000000E+0	-9.80597889E+0	7.16102800E+6
232	02/09/2022	14:28:26.977	3.89401023E+0	-1.23500000E+3	2.00000000E+0	-9.80597889E+0	7.16102800E+6
233	02/09/2022	14:28:28.371	3.29115578E+0	-1.23300000E+3	2.00000000E+0	-9.80597889E+0	7.16102800E+6
234	02/09/2022	14:28:29.818	5.45713665E-1	-1.23300000E+3	2.00000000E+0	-9.80597889E+0	7.16102800E+6
235	02/09/2022	14:28:31.312	1.87145656E-1	-1.23500000E+3	2.00000000E+0	-9.80597889E+0	7.16102800E+6
236	02/09/2022	14:28:32.699	2.06512164E+0	-1.23300000E+3	2.00000000E+0	-9.80597889E+0	7.16102800E+6
237	02/09/2022	14:28:34.166	1.57578176E+0	-1.23300000E+3	2.00000000E+0	-9.80597889E+0	7.16102800E+6
238	02/09/2022	14:28:35.558	4.20003940E+0	-1.23500000E+3	2.00000000E+0	-9.80597889E+0	7.16102800E+6
239	02/09/2022	14:28:36.930	3.46296163E+0	-1.23400000E+3	2.00000000E+0	-9.80597889E+0	7.16102800E+6
240	02/09/2022	14:28:38.470	3.52163639E+0	-1.23500000E+3	2.00000000E+0	-9.80597889E+0	7.16102800E+6
241	02/09/2022	14:28:39.863	1.20839337E+0	-1.23300000E+3	2.00000000E+0	-9.80597889E+0	7.16102800E+6
242	02/09/2022	14:28:41.375	6.21377268E+0	-1.23400000E+3	2.00000000E+0	-9.80597889E+0	7.16102800E+6
243	02/09/2022	14:28:42.747	2.19359253E-1	-1.23300000E+3	2.00000000E+0	-9.80597889E+0	7.16102800E+6
244	02/09/2022	14:28:44.142	1.20494191E+0	-1.23400000E+3	2.00000000E+0	-9.80597889E+0	7.16102800E+6
245	02/09/2022	14:28:45.665	9.54519545E-1	-1.23300000E+3	2.00000000E+0	-9.80597889E+0	7.16102800E+6
246	02/09/2022	14:28:47.058	5.76009786E-1	-1.23400000E+3	2.00000000E+0	-9.80597889E+0	7.16102800E+6
247	02/09/2022	14:28:48.506	2.36309740E+0	-1.23500000E+3	2.00000000E+0	-9.80597889E+0	7.16102800E+6
248	02/09/2022	14:28:50.005	3.50744707E+0	-1.23400000E+3	2.00000000E+0	-9.80597889E+0	7.16102800E+6
249	02/09/2022	14:28:51.390	3.95153451E+0	-1.23500000E+3	2.00000000E+0	-9.80597889E+0	7.16102800E+6
250	02/09/2022	14:28:52.865	5.64159784E+0	-1.23300000E+3	2.00000000E+0	-9.80597889E+0	7.16102800E+6
251	02/09/2022	14:28:54.255	3.12663634E+0	-1.23500000E+3	2.00000000E+0	-9.80597889E+0	7.16102800E+6
252	02/09/2022	14:28:55.637	2.81293727E+0	-1.23400000E+3	2.00000000E+0	-9.80597889E+0	7.16102800E+6
253	02/09/2022	14:28:57.188	6.11291344E+0	-1.23500000E+3	2.00000000E+0	-9.80597889E+0	7.16102800E+6
254	02/09/2022	14:28:58.585	4.77835015E-1	-1.23400000E+3	2.00000000E+0	-9.80597889E+0	7.16102800E+6
255	02/09/2022	14:29:00.031	3.98336461E+0	-1.23300000E+3	2.00000000E+0	-9.80597889E+0	7.16102800E+6
256	02/09/2022	14:29:01.376	2.23884496E+0	-1.23500000E+3	2.00000000E+0	-9.80597889E+0	7.16102800E+6
257	02/09/2022	14:29:02.774	6.09220470E+0	-1.23400000E+3	2.00000000E+0	-9.80597889E+0	7.16102800E+6
258	02/09/2022	14:29:04.325	2.90996155E+0	-1.23300000E+3	2.00000000E+0	-9.80597889E+0	7.16102800E+6
259	02/09/2022	14:29:05.709	2.15907796E-1	-1.23500000E+3	2.00000000E+0	-9.80597889E+0	7.16102800E+6
260	02/09/2022	14:29:07.155	5.78080660E+0	-1.23400000E+3	2.00000000E+0	-9.80597889E+0	7.16102800E+6
261	02/09/2022	14:29:08.649	2.94984506E+0	-1.23300000E+3	2.00000000E+0	-9.80597889E+0	7.16102800E+6
262	02/09/2022	14:29:10.042	3.57034028E+0	-1.23500000E+3	2.00000000E+0	-9.80597889E+0	7.16102800E+6
263	02/09/2022	14:29:11.511	2.58475763E-1	-1.23400000E+3	2.00000000E+0	-9.80597889E+0	7.16102800E+6
264	02/09/2022	14:29:12.895	5.57448618E+0	-1.23300000E+3	2.00000000E+0	-9.80597889E+0	7.16102800E+6
265	02/09/2022	14:29:14.288	2.97515574E+0	-1.23500000E+3	2.00000000E+0	-9.80597889E+0	7.16102800E+6
266	02/09/2022	14:29:15.800	5.95337944E+0	-1.23500000E+3	2.00000000E+0	-9.80597889E+0	7.16102800E+6
267	02/09/2022	14:29:17.181	5.72788426E+0	-1.23300000E+3	2.00000000E+0	-9.80597889E+0	7.16102800E+6
268	02/09/2022	14:29:18.586	2.26837409E+0	-1.23400000E+3	2.00000000E+0	-9.80597889E+0	7.16102800E+6
269	02/09/2022	14:29:20.090	5.90582603E-1	-1.23400000E+3	2.00000000E+0	-9.80597889E+0	7.16102800E+6
270	02/09/2022	14:29:21.472	3.26929655E+0	-1.23300000E+3	2.00000000E+0	-9.80597889E+0	7.16102800E+6
271	02/09/2022	14:29:23.021	2.69021881E+0	-1.23300000E+3	2.00000000E+0	-9.80597889E+0	7.16102800E+6
272	02/09/2022	14:29:24.406	3.15348100E+0	-1.23400000E+3	2.00000000E+0	-9.80597889E+0	7.16102800E+6
273	02/09/2022	14:29:25.811	2.65723822E+0	-1.23300000E+3	2.00000000E+0	-9.80597889E+0	7.16102800E+6
274	02/09/2022	14:29:27.291	2.34507313E+0	-1.23500000E+3	2.00000000E+0	-9.80597889E+0	7.16102800E+6
275	02/09/2022	14:29:28.679	4.80941327E+0	-1.23300000E+3	2.00000000E+0	-9.80597889E+0	7.16102800E+6
276	02/09/2022	14:29:30.207	2.05208280E+0	-1.23500000E+3	2.00000000E+0	-9.80597889E+0	7.16102800E+6
277	02/09/2022	14:29:31.611	4.43895690E+0	-1.23400000E+3	2.00000000E+0	-9.80597889E+0	7.16102800E+6
278	02/09/2022	14:29:32.999	5.44869976E+0	-1.23500000E+3	2.00000000E+0	-9.80597889E+0	7.16102800E+6
279	02/09/2022	14:29:34.502	5.59327745E+0	-1.23500000E+3	2.00000000E+0	-9.80597889E+0	7.16102800E+6
280	02/09/2022	14:29:35.899	5.16184535E-1	-1.23300000E+3	2.00000000E+0	-9.80597889E+0	7.16102800E+6
281	02/09/2022	14:29:37.299	1.59879148E+0	-1.23300000E+3	2.00000000E+0	-9.80597889E+0	7.16102800E+6
282	02/09/2022	14:29:38.833	7.41679711E-1	-1.23500000E+3	2.00000000E+0	-9.80597889E+0	7.16102800E+6
283	02/09/2022	14:29:40.221	3.46027716E+0	-1.23300000E+3	2.00000000E+0	-9.80597889E+0	7.16102800E+6
284	02/09/2022	14:29:41.695	3.50629659E+0	-1.23400000E+3	2.00000000E+0	-9.80597889E+0	7.16102800E+6
285	02/09/2022	14:29:43.087	2.26530613E+0	-1.23400000E+3	2.00000000E+0	-9.80597889E+0	7.16102800E+6
286	02/09/2022	14:29:44.482	1.04464092E+0	-1.23400000E+3	2.00000000E+0	-9.80597889E+0	7.16102800E+6
287	02/09/2022	14:29:46.024	1.12939336E+0	-1.23300000E+3	2.00000000E+0	-9.80597889E+0	7.16102800E+6
288	02/09/2022	14:29:47.409	1.80434490E+0	-1.23500000E+3	2.00000000E+0	-9.80597889E+0	7.16102800E+6
289	02/09/2022	14:29:48.797	3.56075290E+0	-1.23300000E+3	2.00000000E+0	-9.80597889E+0	7.16102800E+6
290	02/09/2022	14:29:50.289	5.49893763E+0	-1.23500000E+3	2.00000000E+0	-9.80597889E+0	7.16102800E+6
291	02/09/2022	14:29:51.716	4.28670931E+0	-1.23300000E+3	2.00000000E+0	-9.80597889E+0	7.16102800E+6
292	02/09/2022	14:29:53.216	5.18792302E+0	-1.23400000E+3	2.00000000E+0	-9.80597889E+0	7.16102800E+6
293	02/09/2022	14:29:54.600	3.34829656E+0	-1.23300000E+3	2.00000000E+0	-9.80597889E+0	7.16102800E+6
294	02/09/2022	14:29:56.041	2.34852459E+0	-1.23400000E+3	2.00000000E+0	-9.80597889E+0	7.16102800E+6
295	02/09/2022	14:29:57.534	4.26331610E+0	-1.23500000E+3	2.00000000E+0	-9.80597889E+0	7.16102800E+6
296	02/09/2022	14:29:58.924	2.31055856E+0	-1.23300000E+3	2.00000000E+0	-9.80597889E+0	7.16102800E+6
297	02/09/2022	14:30:00.433	2.62694210E+0	-1.23300000E+3	2.00000000E+0	-9.80597889E+0	7.16102800E+6
298	02/09/2022	14:30:01.832	4.14136463E+0	-1.23500000E+3	2.00000000E+0	-9.80597889E+0	7.16102800E+6
299	02/09/2022	14:30:03.200	2.17940320E+0	-1.23500000E+3	2.00000000E+0	-9.80597889E+0	7.16102800E+6
300	02/09/2022	14:30:04.717	1.26438366E+0	-1.23300000E+3	2.00000000E+0	-9.80597889E+0	7.16102800E+6
301	02/09/2022	14:30:06.108	1.20992735E+0	-1.23400000E+3	2.00000000E+0	-9.80597889E+0	7.16102800E+6
