#Iteration	Date	Time	Chirp	Phase	RamanAxis	RatioMean	RatioStdDev
1	02/09/2022	14:22:54.715	0.00000000E+0	-3.14159265E+1	5.00000000E+0	3.07124390E-1	0.00000000E+0
2	02/09/2022	14:22:56.160	0.00000000E+0	-3.12065382E+1	5.00000000E+0	3.33739457E-1	0.00000000E+0
3	02/09/2022	14:22:57.538	0.00000000E+0	-3.09971498E+1	5.00000000E+0	3.60691920E-1	0.00000000E+0
4	02/09/2022	14:22:59.015	0.00000000E+0	-3.07877614E+1	5.00000000E+0	3.71617766E-1	0.00000000E+0
5	02/09/2022	14:23:00.399	0.00000000E+0	-3.05779895E+1	5.00000000E+0	4.08653999E-1	0.00000000E+0
6	02/09/2022	14:23:01.870	0.00000000E+0	-3.03686012E+1	5.00000000E+0	4.38006977E-1	0.00000000E+0
7	02/09/2022	14:23:03.390	0.00000000E+0	-3.01592128E+1	5.00000000E+0	4.67397647E-1	0.00000000E+0
8	02/09/2022	14:23:04.791	0.00000000E+0	-2.99498244E+1	5.00000000E+0	5.09895414E-1	0.00000000E+0
9	02/09/2022	14:23:06.349	0.00000000E+0	-2.97404360E+1	5.00000000E+0	5.38080347E-1	0.00000000E+0
10	02/09/2022	14:23:07.744	0.00000000E+0	-2.95310476E+1	5.00000000E+0	5.64554895E-1	0.00000000E+0
11	02/09/2022	14:23:09.131	0.00000000E+0	-2.93216593E+1	5.00000000E+0	5.70854591E-1	0.00000000E+0
12	02/09/2022	14:23:10.609	0.00000000E+0	-2.91122709E+1	5.00000000E+0	5.91242493E-1	0.00000000E+0
13	02/09/2022	14:23:12.020	0.00000000E+0	-2.89024990E+1	5.00000000E+0	6.03870778E-1	0.00000000E+0
14	02/09/2022	14:23:13.473	0.00000000E+0	-2.86931106E+1	5.00000000E+0	5.97097493E-1	0.00000000E+0
15	02/09/2022	14:23:14.964	0.00000000E+0	-2.84837223E+1	5.00000000E+0	5.96870887E-1	0.00000000E+0
16	02/09/2022	14:23:16.361	0.00000000E+0	-2.82743339E+1	5.00000000E+0	5.94997595E-1	0.00000000E+0
17	02/09/2022	14:23:17.898	0.00000000E+0	-2.80649455E+1	5.00000000E+0	5.80353229E-1	0.00000000E+0
18	02/09/2022	14:23:19.279	0.00000000E+0	-2.78555571E+1	5.00000000E+0	5.52628426E-1	0.00000000E+0
19	02/09/2022	14:23:20.674	0.00000000E+0	-2.76461687E+1	5.00000000E+0	5.30827112E-1	0.00000000E+0
20	02/09/2022	14:23:22.120	0.00000000E+0	-2.74363969E+1	5.00000000E+0	4.96103115E-1	0.00000000E+0
21	02/09/2022	14:23:23.505	0.00000000E+0	-2.72270085E+1	5.00000000E+0	4.67043115E-1	0.00000000E+0
22	02/09/2022	14:23:25.052	0.00000000E+0	-2.70176201E+1	5.00000000E+0	4.48450715E-1	0.00000000E+0
23	02/09/2022	14:23:26.476	0.00000000E+0	-2.68082317E+1	5.00000000E+0	4.04224075E-1	0.00000000E+0
24	02/09/2022	14:23:27.855	0.00000000E+0	-2.65988434E+1	5.00000000E+0	3.79182299E-1	0.00000000E+0
25	02/09/2022	14:23:29.394	0.00000000E+0	-2.63894550E+1	5.00000000E+0	3.57699904E-1	0.00000000E+0
26	02/09/2022	14:23:30.815	0.00000000E+0	-2.61800666E+1	5.00000000E+0	3.31588301E-1	0.00000000E+0
27	02/09/2022	14:23:32.267	0.00000000E+0	-2.59706782E+1	5.00000000E+0	3.15223487E-1	0.00000000E+0
28	02/09/2022	14:23:33.764	0.00000000E+0	-2.57609064E+1	5.00000000E+0	3.13715532E-1	0.00000000E+0
29	02/09/2022	14:23:35.152	0.00000000E+0	-2.55515180E+1	5.00000000E+0	2.98938138E-1	0.00000000E+0
30	02/09/2022	14:23:36.590	0.00000000E+0	-2.53421296E+1	5.00000000E+0	3.04208500E-1	0.00000000E+0
31	02/09/2022	14:23:38.005	0.00000000E+0	-2.51327412E+1	5.00000000E+0	3.12838228E-1	0.00000000E+0
32	02/09/2022	14:23:39.389	0.00000000E+0	-2.49233529E+1	5.00000000E+0	3.30925078E-1	0.00000000E+0
33	02/09/2022	14:23:40.942	0.00000000E+0	-2.47139645E+1	5.00000000E+0	3.43424130E-1	0.00000000E+0
34	02/09/2022	14:23:42.351	0.00000000E+0	-2.45045761E+1	5.00000000E+0	3.60449936E-1	0.00000000E+0
35	02/09/2022	14:23:43.797	0.00000000E+0	-2.42948042E+1	5.00000000E+0	4.04886641E-1	0.00000000E+0
36	02/09/2022	14:23:45.150	0.00000000E+0	-2.40854158E+1	5.00000000E+0	4.39754019E-1	0.00000000E+0
37	02/09/2022	14:23:46.542	0.00000000E+0	-2.38760275E+1	5.00000000E+0	4.66548968E-1	0.00000000E+0
38	02/09/2022	14:23:48.115	0.00000000E+0	-2.36666391E+1	5.00000000E+0	4.86499903E-1	0.00000000E+0
39	02/09/2022	14:23:49.501	0.00000000E+0	-2.34572507E+1	5.00000000E+0	5.21303923E-1	0.00000000E+0
40	02/09/2022	14:23:50.925	0.00000000E+0	-2.32478623E+1	5.00000000E+0	5.45152686E-1	0.00000000E+0
41	02/09/2022	14:23:52.456	0.00000000E+0	-2.30384740E+1	5.00000000E+0	5.75926306E-1	0.00000000E+0
42	02/09/2022	14:23:53.881	0.00000000E+0	-2.28290856E+1	5.00000000E+0	5.84606471E-1	0.00000000E+0
43	02/09/2022	14:23:55.409	0.00000000E+0	-2.26193137E+1	5.00000000E+0	5.98275156E-1	0.00000000E+0
44	02/09/2022	14:23:56.793	0.00000000E+0	-2.24099253E+1	5.00000000E+0	6.08718931E-1	0.00000000E+0
45	02/09/2022	14:23:58.173	0.00000000E+0	-2.22005370E+1	5.00000000E+0	6.08703936E-1	0.00000000E+0
46	02/09/2022	14:23:59.652	0.00000000E+0	-2.19911486E+1	5.00000000E+0	5.99345455E-1	0.00000000E+0
47	02/09/2022	14:24:01.041	0.00000000E+0	-2.17817602E+1	5.00000000E+0	5.79413792E-1	0.00000000E+0
48	02/09/2022	14:24:02.467	0.00000000E+0	-2.15723718E+1	5.00000000E+0	5.68837877E-1	0.00000000E+0
49	02/09/2022	14:24:03.954	0.00000000E+0	-2.13629834E+1	5.00000000E+0	5.46279658E-1	0.00000000E+0
50	02/09/2022	14:24:05.362	0.00000000E+0	-2.11532116E+1	5.00000000E+0	5.08024883E-1	0.00000000E+0
51	02/09/2022	14:24:06.851	0.00000000E+0	-2.09438232E+1	5.00000000E+0	4.82251892E-1	0.00000000E+0
52	02/09/2022	14:24:08.254	0.00000000E+0	-2.07344348E+1	5.00000000E+0	4.54192954E-1	0.00000000E+0
53	02/09/2022	14:24:09.639	0.00000000E+0	-2.05250464E+1	5.00000000E+0	4.18481677E-1	0.00000000E+0
54	02/09/2022	14:24:11.133	0.00000000E+0	-2.03156581E+1	5.00000000E+0	3.80956279E-1	0.00000000E+0
55	02/09/2022	14:24:12.519	0.00000000E+0	-2.01062697E+1	5.00000000E+0	3.48990551E-1	0.00000000E+0
56	02/09/2022	14:24:13.960	0.00000000E+0	-1.98968813E+1	5.00000000E+0	3.40144077E-1	0.00000000E+0
57	02/09/2022	14:24:15.297	0.00000000E+0	-1.96874929E+1	5.00000000E+0	3.19995920E-1	0.00000000E+0
58	02/09/2022	14:24:16.698	0.00000000E+0	-1.94777211E+1	5.00000000E+0	3.02065010E-1	0.00000000E+0
59	02/09/2022	14:24:18.212	0.00000000E+0	-1.92683327E+1	5.00000000E+0	2.95103691E-1	0.00000000E+0
60	02/09/2022	14:24:19.575	0.00000000E+0	-1.90589443E+1	5.00000000E+0	3.04182465E-1	0.00000000E+0
61	02/09/2022	14:24:20.984	0.00000000E+0	-1.88495559E+1	5.00000000E+0	3.09646912E-1	0.00000000E+0
62	02/09/2022	14:24:22.500	0.00000000E+0	-1.86401675E+1	5.00000000E+0	3.22897885E-1	0.00000000E+0
63	02/09/2022	14:24:23.883	0.00000000E+0	-1.84307792E+1	5.00000000E+0	3.47070955E-1	0.00000000E+0
64	02/09/2022	14:24:25.395	0.00000000E+0	-1.82213908E+1	5.00000000E+0	3.82397865E-1	0.00000000E+0
65	02/09/2022	14:24:26.775	0.00000000E+0	-1.80116189E+1	5.00000000E+0	4.08745516E-1	0.00000000E+0
66	02/09/2022	14:24:28.157	0.00000000E+0	-1.78022305E+1	5.00000000E+0	4.13242848E-1	0.00000000E+0
67	02/09/2022	14:24:29.711	0.00000000E+0	-1.75928422E+1	5.00000000E+0	4.54094168E-1	0.00000000E+0
68	02/09/2022	14:24:31.139	0.00000000E+0	-1.73834538E+1	5.00000000E+0	4.84589999E-1	0.00000000E+0
69	02/09/2022	14:24:32.585	0.00000000E+0	-1.71740654E+1	5.00000000E+0	5.17082140E-1	0.00000000E+0
70	02/09/2022	14:24:34.091	0.00000000E+0	-1.69646770E+1	5.00000000E+0	5.52458554E-1	0.00000000E+0
71	02/09/2022	14:24:35.473	0.00000000E+0	-1.67552887E+1	5.00000000E+0	5.68356593E-1	0.00000000E+0
72	02/09/2022	14:24:36.977	0.00000000E+0	-1.65459003E+1	5.00000000E+0	5.88569954E-1	0.00000000E+0
73	02/09/2022	14:24:38.388	0.00000000E+0	-1.63361284E+1	5.00000000E+0	6.02551888E-1	0.00000000E+0
74	02/09/2022	14:24:39.777	0.00000000E+0	-1.61267400E+1	5.00000000E+0	6.02724368E-1	0.00000000E+0
75	02/09/2022	14:24:41.218	0.00000000E+0	-1.59173516E+1	5.00000000E+0	6.09121352E-1	0.00000000E+0
76	02/09/2022	14:24:42.622	0.00000000E+0	-1.57079633E+1	5.00000000E+0	6.02491372E-1	0.00000000E+0
77	02/09/2022	14:24:44.085	0.00000000E+0	-1.54985749E+1	5.00000000E+0	5.92448304E-1	0.00000000E+0
78	02/09/2022	14:24:45.548	0.00000000E+0	-1.52891865E+1	5.00000000E+0	5.66587439E-1	0.00000000E+0
79	02/09/2022	14:24:46.935	0.00000000E+0	-1.50797981E+1	5.00000000E+0	5.31773971E-1	0.00000000E+0
80	02/09/2022	14:24:48.485	0.00000000E+0	-1.48700263E+1	5.00000000E+0	4.87936130E-1	0.00000000E+0
81	02/09/2022	14:24:49.868	0.00000000E+0	-1.46606379E+1	5.00000000E+0	4.77350505E-1	0.00000000E+0
82	02/09/2022	14:24:51.291	0.00000000E+0	-1.44512495E+1	5.00000000E+0	4.41742655E-1	0.00000000E+0
83	02/09/2022	14:24:52.758	0.00000000E+0	-1.42418611E+1	5.00000000E+0	3.97703764E-1	0.00000000E+0
84	02/09/2022	14:24:54.151	0.00000000E+0	-1.40324728E+1	5.00000000E+0	3.80774721E-1	0.00000000E+0
85	02/09/2022	14:24:55.646	0.00000000E+0	-1.38230844E+1	5.00000000E+0	3.48517048E-1	0.00000000E+0
86	02/09/2022	14:24:57.038	0.00000000E+0	-1.36136960E+1	5.00000000E+0	3.34936231E-1	0.00000000E+0
87	02/09/2022	14:24:58.414	0.00000000E+0	-1.34043076E+1	5.00000000E+0	3.12936350E-1	0.00000000E+0
88	02/09/2022	14:24:59.967	0.00000000E+0	-1.31945357E+1	5.00000000E+0	3.07570986E-1	0.00000000E+0
89	02/09/2022	14:25:01.333	0.00000000E+0	-1.29851474E+1	5.00000000E+0	2.98938497E-1	0.00000000E+0
90	02/09/2022	14:25:02.786	0.00000000E+0	-1.27757590E+1	5.00000000E+0	3.03181424E-1	0.00000000E+0
91	02/09/2022	14:25:04.140	0.00000000E+0	-1.25663706E+1	5.00000000E+0	3.10897238E-1	0.00000000E+0
92	02/09/2022	14:25:05.538	0.00000000E+0	-1.23569822E+1	5.00000000E+0	3.28035884E-1	0.00000000E+0
93	02/09/2022	14:25:07.003	0.00000000E+0	-1.21475939E+1	5.00000000E+0	3.54671803E-1	0.00000000E+0
94	02/09/2022	14:25:08.413	0.00000000E+0	-1.19382055E+1	5.00000000E+0	3.66997540E-1	0.00000000E+0
95	02/09/2022	14:25:09.855	0.00000000E+0	-1.17284336E+1	5.00000000E+0	3.97602033E-1	0.00000000E+0
96	02/09/2022	14:25:11.355	0.00000000E+0	-1.15190452E+1	5.00000000E+0	4.17351788E-1	0.00000000E+0
97	02/09/2022	14:25:12.748	0.00000000E+0	-1.13096569E+1	5.00000000E+0	4.62171656E-1	0.00000000E+0
98	02/09/2022	14:25:14.227	0.00000000E+0	-1.11002685E+1	5.00000000E+0	4.85003083E-1	0.00000000E+0
99	02/09/2022	14:25:15.614	0.00000000E+0	-1.08908801E+1	5.00000000E+0	5.07953499E-1	0.00000000E+0
100	02/09/2022	14:25:17.048	0.00000000E+0	-1.06814917E+1	5.00000000E+0	5.48258427E-1	0.00000000E+0
101	02/09/2022	14:25:18.518	0.00000000E+0	-1.04721033E+1	5.00000000E+0	5.63192352E-1	0.00000000E+0
102	02/09/2022	14:25:19.915	0.00000000E+0	-1.02627150E+1	5.00000000E+0	5.88846192E-1	0.00000000E+0
103	02/09/2022	14:25:21.309	0.00000000E+0	-1.00529431E+1	5.00000000E+0	6.00812953E-1	0.00000000E+0
104	02/09/2022	14:25:22.713	0.00000000E+0	-9.84355472E+0	5.00000000E+0	6.07954674E-1	0.00000000E+0
105	02/09/2022	14:25:24.090	0.00000000E+0	-9.63416634E+0	5.00000000E+0	6.03932825E-1	0.00000000E+0
106	02/09/2022	14:25:25.558	0.00000000E+0	-9.42477796E+0	5.00000000E+0	6.00900587E-1	0.00000000E+0
107	02/09/2022	14:25:26.941	0.00000000E+0	-9.21538958E+0	5.00000000E+0	5.82055225E-1	0.00000000E+0
108	02/09/2022	14:25:28.328	0.00000000E+0	-9.00600121E+0	5.00000000E+0	5.64249888E-1	0.00000000E+0
109	02/09/2022	14:25:29.807	0.00000000E+0	-8.79661283E+0	5.00000000E+0	5.48248941E-1	0.00000000E+0
110	02/09/2022	14:25:31.187	0.00000000E+0	-8.58684096E+0	5.00000000E+0	4.94636921E-1	0.00000000E+0
111	02/09/2022	14:25:32.585	0.00000000E+0	-8.37745258E+0	5.00000000E+0	4.71844486E-1	0.00000000E+0
112	02/09/2022	14:25:34.107	0.00000000E+0	-8.16806420E+0	5.00000000E+0	4.40961708E-1	0.00000000E+0
113	02/09/2022	14:25:35.487	0.00000000E+0	-7.95867582E+0	5.00000000E+0	4.09730089E-1	0.00000000E+0
114	02/09/2022	14:25:37.017	0.00000000E+0	-7.74928745E+0	5.00000000E+0	3.80255792E-1	0.00000000E+0
115	02/09/2022	14:25:38.403	0.00000000E+0	-7.53989907E+0	5.00000000E+0	3.49873741E-1	0.00000000E+0
116	02/09/2022	14:25:39.818	0.00000000E+0	-7.33051069E+0	5.00000000E+0	3.28411829E-1	0.00000000E+0
117	02/09/2022	14:25:41.300	0.00000000E+0	-7.12112231E+0	5.00000000E+0	3.10696506E-1	0.00000000E+0
118	02/09/2022	14:25:42.692	0.00000000E+0	-6.91135044E+0	5.00000000E+0	3.04845979E-1	0.00000000E+0
119	02/09/2022	14:25:44.224	0.00000000E+0	-6.70196206E+0	5.00000000E+0	2.99105100E-1	0.00000000E+0
120	02/09/2022	14:25:45.626	0.00000000E+0	-6.49257368E+0	5.00000000E+0	3.04306966E-1	0.00000000E+0
121	02/09/2022	14:25:47.004	0.00000000E+0	-6.28318531E+0	5.00000000E+0	3.14027905E-1	0.00000000E+0
122	02/09/2022	14:25:48.530	0.00000000E+0	-6.07379693E+0	5.00000000E+0	3.34217090E-1	0.00000000E+0
123	02/09/2022	14:25:49.934	0.00000000E+0	-5.86440855E+0	5.00000000E+0	3.49461171E-1	0.00000000E+0
124	02/09/2022	14:25:51.350	0.00000000E+0	-5.65502017E+0	5.00000000E+0	3.80121227E-1	0.00000000E+0
125	02/09/2022	14:25:52.850	0.00000000E+0	-5.44524830E+0	5.00000000E+0	3.98384853E-1	0.00000000E+0
126	02/09/2022	14:25:54.234	0.00000000E+0	-5.23585992E+0	5.00000000E+0	4.40640306E-1	0.00000000E+0
127	02/09/2022	14:25:55.763	0.00000000E+0	-5.02647155E+0	5.00000000E+0	4.65134724E-1	0.00000000E+0
128	02/09/2022	14:25:57.152	0.00000000E+0	-4.81708317E+0	5.00000000E+0	4.98263918E-1	0.00000000E+0
129	02/09/2022	14:25:58.539	0.00000000E+0	-4.60769479E+0	5.00000000E+0	5.28498745E-1	0.00000000E+0
130	02/09/2022	14:26:00.103	0.00000000E+0	-4.39830641E+0	5.00000000E+0	5.46474157E-1	0.00000000E+0
131	02/09/2022	14:26:01.493	0.00000000E+0	-4.18891804E+0	5.00000000E+0	5.63220537E-1	0.00000000E+0
132	02/09/2022	14:26:03.015	0.00000000E+0	-3.97952966E+0	5.00000000E+0	5.90267325E-1	0.00000000E+0
133	02/09/2022	14:26:04.405	0.00000000E+0	-3.76975779E+0	5.00000000E+0	5.95186197E-1	0.00000000E+0
134	02/09/2022	14:26:05.800	0.00000000E+0	-3.56036941E+0	5.00000000E+0	5.96578726E-1	0.00000000E+0
135	02/09/2022	14:26:07.353	0.00000000E+0	-3.35098103E+0	5.00000000E+0	6.06712038E-1	0.00000000E+0
136	02/09/2022	14:26:08.744	0.00000000E+0	-3.14159265E+0	5.00000000E+0	5.92643743E-1	0.00000000E+0
137	02/09/2022	14:26:10.185	0.00000000E+0	-2.93220428E+0	5.00000000E+0	5.75713375E-1	0.00000000E+0
138	02/09/2022	14:26:11.682	0.00000000E+0	-2.72281590E+0	5.00000000E+0	5.60634563E-1	0.00000000E+0
139	02/09/2022	14:26:13.083	0.00000000E+0	-2.51342752E+0	5.00000000E+0	5.13710179E-1	0.00000000E+0
140	02/09/2022	14:26:14.565	0.00000000E+0	-2.30365565E+0	5.00000000E+0	5.05777399E-1	0.00000000E+0
141	02/09/2022	14:26:15.945	0.00000000E+0	-2.09426727E+0	5.00000000E+0	4.58159949E-1	0.00000000E+0
142	02/09/2022	14:26:17.331	0.00000000E+0	-1.88487889E+0	5.00000000E+0	4.32532514E-1	0.00000000E+0
143	02/09/2022	14:26:18.917	0.00000000E+0	-1.67549052E+0	5.00000000E+0	3.98260146E-1	0.00000000E+0
144	02/09/2022	14:26:20.300	0.00000000E+0	-1.46610214E+0	5.00000000E+0	3.80977832E-1	0.00000000E+0
145	02/09/2022	14:26:21.748	0.00000000E+0	-1.25671376E+0	5.00000000E+0	3.58484391E-1	0.00000000E+0
146	02/09/2022	14:26:23.166	0.00000000E+0	-1.04732538E+0	5.00000000E+0	3.25656427E-1	0.00000000E+0
147	02/09/2022	14:26:24.557	0.00000000E+0	-8.37937005E-1	5.00000000E+0	3.12065150E-1	0.00000000E+0
148	02/09/2022	14:26:26.061	0.00000000E+0	-6.28165133E-1	5.00000000E+0	3.06218656E-1	0.00000000E+0
149	02/09/2022	14:26:27.449	0.00000000E+0	-4.18776755E-1	5.00000000E+0	3.01203723E-1	0.00000000E+0
150	02/09/2022	14:26:28.899	0.00000000E+0	-2.09388378E-1	5.00000000E+0	3.03809204E-1	0.00000000E+0
151	02/09/2022	14:26:30.410	0.00000000E+0	0.00000000E+0	5.00000000E+0	3.18209714E-1	0.00000000E+0
152	02/09/2022	14:26:31.808	0.00000000E+0	2.09388378E-1	5.00000000E+0	3.22237587E-1	0.00000000E+0
153	02/09/2022	14:26:33.241	0.00000000E+0	4.18776755E-1	5.00000000E+0	3.46713630E-1	0.00000000E+0
154	02/09/2022	14:26:34.685	0.00000000E+0	6.28165133E-1	5.00000000E+0	3.73572562E-1	0.00000000E+0
155	02/09/2022	14:26:36.081	0.00000000E+0	8.37937005E-1	5.00000000E+0	3.94334979E-1	0.00000000E+0
156	02/09/2022	14:26:37.540	0.00000000E+0	1.04732538E+0	5.00000000E+0	4.18924890E-1	0.00000000E+0
157	02/09/2022	14:26:38.926	0.00000000E+0	1.25671376E+0	5.00000000E+0	4.63015858E-1	0.00000000E+0
158	02/09/2022	14:26:40.320	0.00000000E+0	1.46610214E+0	5.00000000E+0	4.88300982E-1	0.00000000E+0
159	02/09/2022	14:26:41.809	0.00000000E+0	1.67549052E+0	5.00000000E+0	5.36702558E-1	0.00000000E+0
160	02/09/2022	14:26:43.205	0.00000000E+0	1.88487889E+0	5.00000000E+0	5.38523097E-1	0.00000000E+0
161	02/09/2022	14:26:44.674	0.00000000E+0	2.09426727E+0	5.00000000E+0	5.69964613E-1	0.00000000E+0
162	02/09/2022	14:26:46.058	0.00000000E+0	2.30365565E+0	5.00000000E+0	5.85198489E-1	0.00000000E+0
163	02/09/2022	14:26:47.447	0.00000000E+0	2.51342752E+0	5.00000000E+0	5.90688526E-1	0.00000000E+0
164	02/09/2022	14:26:48.901	0.00000000E+0	2.72281590E+0	5.00000000E+0	5.94987611E-1	0.00000000E+0
165	02/09/2022	14:26:50.277	0.00000000E+0	2.93220428E+0	5.00000000E+0	5.94013836E-1	0.00000000E+0
166	02/09/2022	14:26:51.791	0.00000000E+0	3.14159265E+0	5.00000000E+0	5.91042084E-1	0.00000000E+0
167	02/09/2022	14:26:53.235	0.00000000E+0	3.35098103E+0	5.00000000E+0	5.75091064E-1	0.00000000E+0
168	02/09/2022	14:26:54.610	0.00000000E+0	3.56036941E+0	5.00000000E+0	5.55831930E-1	0.00000000E+0
169	02/09/2022	14:26:56.153	0.00000000E+0	3.76975779E+0	5.00000000E+0	5.28210685E-1	0.00000000E+0
170	02/09/2022	14:26:57.533	0.00000000E+0	3.97952966E+0	5.00000000E+0	5.10069691E-1	0.00000000E+0
171	02/09/2022	14:26:58.922	0.00000000E+0	4.18891804E+0	5.00000000E+0	4.71609537E-1	0.00000000E+0
172	02/09/2022	14:27:00.430	0.00000000E+0	4.39830641E+0	5.00000000E+0	4.31175986E-1	0.00000000E+0
173	02/09/2022	14:27:01.814	0.00000000E+0	4.60769479E+0	5.00000000E+0	4.22465541E-1	0.00000000E+0
174	02/09/2022	14:27:03.334	0.00000000E+0	4.81708317E+0	5.00000000E+0	3.89883401E-1	0.00000000E+0
175	02/09/2022	14:27:04.727	0.00000000E+0	5.02647155E+0	5.00000000E+0	3.55288902E-1	0.00000000E+0
176	02/09/2022	14:27:06.117	0.00000000E+0	5.23585992E+0	5.00000000E+0	3.36153325E-1	0.00000000E+0
177	02/09/2022	14:27:07.647	0.00000000E+0	5.44524830E+0	5.00000000E+0	3.19632628E-1	0.00000000E+0
178	02/09/2022	14:27:09.068	0.00000000E+0	5.65502017E+0	5.00000000E+0	3.07108070E-1	0.00000000E+0
179	02/09/2022	14:27:10.513	0.00000000E+0	5.86440855E+0	5.00000000E+0	3.05113843E-1	0.00000000E+0
180	02/09/2022	14:27:12.002	0.00000000E+0	6.07379693E+0	5.00000000E+0	3.03802120E-1	0.00000000E+0
181	02/09/2022	14:27:13.385	0.00000000E+0	6.28318531E+0	5.00000000E+0	3.12586228E-1	0.00000000E+0
182	02/09/2022	14:27:14.923	0.00000000E+0	6.49257368E+0	5.00000000E+0	3.25515725E-1	0.00000000E+0
183	02/09/2022	14:27:16.306	0.00000000E+0	6.70196206E+0	5.00000000E+0	3.45129623E-1	0.00000000E+0
184	02/09/2022	14:27:17.770	0.00000000E+0	6.91135044E+0	5.00000000E+0	3.67270775E-1	0.00000000E+0
185	02/09/2022	14:27:19.245	0.00000000E+0	7.12112231E+0	5.00000000E+0	3.83626395E-1	0.00000000E+0
186	02/09/2022	14:27:20.625	0.00000000E+0	7.33051069E+0	5.00000000E+0	4.31056407E-1	0.00000000E+0
187	02/09/2022	14:27:22.176	0.00000000E+0	7.53989907E+0	5.00000000E+0	4.56168634E-1	0.00000000E+0
188	02/09/2022	14:27:23.570	0.00000000E+0	7.74928745E+0	5.00000000E+0	4.85911140E-1	0.00000000E+0
189	02/09/2022	14:27:24.964	0.00000000E+0	7.95867582E+0	5.00000000E+0	5.28534896E-1	0.00000000E+0
190	02/09/2022	14:27:26.434	0.00000000E+0	8.16806420E+0	5.00000000E+0	5.54839022E-1	0.00000000E+0
191	02/09/2022	14:27:27.835	0.00000000E+0	8.37745258E+0	5.00000000E+0	5.63227816E-1	0.00000000E+0
192	02/09/2022	14:27:29.275	0.00000000E+0	8.58684096E+0	5.00000000E+0	5.87252630E-1	0.00000000E+0
193	02/09/2022	14:27:30.770	0.00000000E+0	8.79661283E+0	5.00000000E+0	5.92923208E-1	0.00000000E+0
194	02/09/2022	14:27:32.151	0.00000000E+0	9.00600121E+0	5.00000000E+0	5.99873289E-1	0.00000000E+0
195	02/09/2022	14:27:33.635	0.00000000E+0	9.21538958E+0	5.00000000E+0	5.98299587E-1	0.00000000E+0
196	02/09/2022	14:27:35.015	0.00000000E+0	9.42477796E+0	5.00000000E+0	5.94935768E-1	0.00000000E+0
197	02/09/2022	14:27:36.388	0.00000000E+0	9.63416634E+0	5.00000000E+0	5.84107579E-1	0.00000000E+0
198	02/09/2022	14:27:37.940	0.00000000E+0	9.84355472E+0	5.00000000E+0	5.52550816E-1	0.00000000E+0
199	02/09/2022	14:27:39.333	0.00000000E+0	1.00529431E+1	5.00000000E+0	5.34301157E-1	0.00000000E+0
200	02/09/2022	14:27:40.765	0.00000000E+0	1.02627150E+1	5.00000000E+0	5.14607066E-1	0.00000000E+0
201	02/09/2022	14:27:42.242	0.00000000E+0	1.04721033E+1	5.00000000E+0	4.86054362E-1	0.00000000E+0
202	02/09/2022	14:27:43.655	0.00000000E+0	1.06814917E+1	5.00000000E+0	4.46633397E-1	0.00000000E+0
203	02/09/2022	14:27:45.197	0.00000000E+0	1.08908801E+1	5.00000000E+0	4.14124774E-1	0.00000000E+0
204	02/09/2022	14:27:46.573	0.00000000E+0	1.11002685E+1	5.00000000E+0	3.89152640E-1	0.00000000E+0
205	02/09/2022	14:27:48.048	0.00000000E+0	1.13096569E+1	5.00000000E+0	3.56221851E-1	0.00000000E+0
206	02/09/2022	14:27:49.580	0.00000000E+0	1.15190452E+1	5.00000000E+0	3.43400058E-1	0.00000000E+0
207	02/09/2022	14:27:50.958	0.00000000E+0	1.17284336E+1	5.00000000E+0	3.23547047E-1	0.00000000E+0
208	02/09/2022	14:27:52.466	0.00000000E+0	1.19382055E+1	5.00000000E+0	3.03976790E-1	0.00000000E+0
209	02/09/2022	14:27:53.852	0.00000000E+0	1.21475939E+1	5.00000000E+0	3.02056295E-1	0.00000000E+0
210	02/09/2022	14:27:55.242	0.00000000E+0	1.23569822E+1	5.00000000E+0	2.95697304E-1	0.00000000E+0
211	02/09/2022	14:27:56.747	0.00000000E+0	1.25663706E+1	5.00000000E+0	3.11056813E-1	0.00000000E+0
212	02/09/2022	14:27:58.136	0.00000000E+0	1.27757590E+1	5.00000000E+0	3.33803518E-1	0.00000000E+0
213	02/09/2022	14:27:59.533	0.00000000E+0	1.29851474E+1	5.00000000E+0	3.40813870E-1	0.00000000E+0
214	02/09/2022	14:28:01.078	0.00000000E+0	1.31945357E+1	5.00000000E+0	3.64423872E-1	0.00000000E+0
215	02/09/2022	14:28:02.465	0.00000000E+0	1.34043076E+1	5.00000000E+0	4.05888322E-1	0.00000000E+0
216	02/09/2022	14:28:03.935	0.00000000E+0	1.36136960E+1	5.00000000E+0	4.23958946E-1	0.00000000E+0
217	02/09/2022	14:28:05.321	0.00000000E+0	1.38230844E+1	5.00000000E+0	4.52619972E-1	0.00000000E+0
218	02/09/2022	14:28:06.707	0.00000000E+0	1.40324728E+1	5.00000000E+0	4.77524067E-1	0.00000000E+0
219	02/09/2022	14:28:08.213	0.00000000E+0	1.42418611E+1	5.00000000E+0	5.26616129E-1	0.00000000E+0
220	02/09/2022	14:28:09.606	0.00000000E+0	1.44512495E+1	5.00000000E+0	5.49715725E-1	0.00000000E+0
221	02/09/2022	14:28:11.133	0.00000000E+0	1.46606379E+1	5.00000000E+0	5.63213868E-1	0.00000000E+0
222	02/09/2022	14:28:12.534	0.00000000E+0	1.48700263E+1	5.00000000E+0	5.76352848E-1	0.00000000E+0
223	02/09/2022	14:28:13.975	0.00000000E+0	1.50797981E+1	5.00000000E+0	5.96559765E-1	0.00000000E+0
224	02/09/2022	14:28:15.514	0.00000000E+0	1.52891865E+1	5.00000000E+0	6.01456737E-1	0.00000000E+0
225	02/09/2022	14:28:16.905	0.00000000E+0	1.54985749E+1	5.00000000E+0	6.00356836E-1	0.00000000E+0
226	02/09/2022	14:28:18.338	0.00000000E+0	1.57079633E+1	5.00000000E+0	5.93069062E-1	0.00000000E+0
227	02/09/2022	14:28:19.820	0.00000000E+0	1.59173516E+1	5.00000000E+0	5.74611567E-1	0.00000000E+0
228	02/09/2022	14:28:21.200	0.00000000E+0	1.61267400E+1	5.00000000E+0	5.60564092E-1	0.00000000E+0
229	02/09/2022	14:28:22.690	0.00000000E+0	1.63361284E+1	5.00000000E+0	5.29789972E-1	0.00000000E+0
230	02/09/2022	14:28:24.083	0.00000000E+0	1.65459003E+1	5.00000000E+0	5.07874507E-1	0.00000000E+0
231	02/09/2022	14:28:25.464	0.00000000E+0	1.67552887E+1	5.00000000E+0	4.70440780E-1	0.00000000E+0
232	02/09/2022	14:28:26.977	0.00000000E+0	1.69646770E+1	5.00000000E+0	4.39082449E-1	0.00000000E+0
233	02/09/2022	14:28:28.371	0.00000000E+0	1.71740654E+1	5.00000000E+0	4.21602858E-1	0.00000000E+0
234	02/09/2022	14:28:29.818	0.00000000E+0	1.73834538E+1	5.00000000E+0	3.91789793E-1	0.00000000E+0
235	02/09/2022	14:28:31.312	0.00000000E+0	1.75928422E+1	5.00000000E+0	3.48570797E-1	0.00000000E+0
236	02/09/2022	14:28:32.699	0.00000000E+0	1.78022305E+1	5.00000000E+0	3.29121839E-1	0.00000000E+0
237	02/09/2022	14:28:34.166	0.00000000E+0	1.80116189E+1	5.00000000E+0	3.23165301E-1	0.00000000E+0
238	02/09/2022	14:28:35.558	0.00000000E+0	1.82213908E+1	5.00000000E+0	3.06261107E-1	0.00000000E+0
239	02/09/2022	14:28:36.930	0.00000000E+0	1.84307792E+1	5.00000000E+0	3.04958973E-1	0.00000000E+0
240	02/09/2022	14:28:38.470	0.00000000E+0	1.86401675E+1	5.00000000E+0	3.07483652E-1	0.00000000E+0
241	02/09/2022	14:28:39.863	0.00000000E+0	1.88495559E+1	5.00000000E+0	3.12560499E-1	0.00000000E+0
242	02/09/2022	14:28:41.375	0.00000000E+0	1.90589443E+1	5.00000000E+0	3.21023301E-1	0.00000000E+0
243	02/09/2022	14:28:42.747	0.00000000E+0	1.92683327E+1	5.00000000E+0	3.49735020E-1	0.00000000E+0
244	02/09/2022	14:28:44.142	0.00000000E+0	1.94777211E+1	5.00000000E+0	3.66081310E-1	0.00000000E+0
245	02/09/2022	14:28:45.665	0.00000000E+0	1.96874929E+1	5.00000000E+0	3.93764638E-1	0.00000000E+0
246	02/09/2022	14:28:47.058	0.00000000E+0	1.98968813E+1	5.00000000E+0	4.29098429E-1	0.00000000E+0
247	02/09/2022	14:28:48.506	0.00000000E+0	2.01062697E+1	5.00000000E+0	4.62691905E-1	0.00000000E+0
248	02/09/2022	14:28:50.005	0.00000000E+0	2.03156581E+1	5.00000000E+0	4.85273568E-1	0.00000000E+0
249	02/09/2022	14:28:51.390	0.00000000E+0	2.05250464E+1	5.00000000E+0	5.13871730E-1	0.00000000E+0
250	02/09/2022	14:28:52.865	0.00000000E+0	2.07344348E+1	5.00000000E+0	5.55047130E-1	0.00000000E+0
251	02/09/2022	14:28:54.255	0.00000000E+0	2.09438232E+1	5.00000000E+0	5.71088653E-1	0.00000000E+0
252	02/09/2022	14:28:55.637	0.00000000E+0	2.11532116E+1	5.00000000E+0	5.78882570E-1	0.00000000E+0
253	02/09/2022	14:28:57.188	0.00000000E+0	2.13629834E+1	5.00000000E+0	5.94960050E-1	0.00000000E+0
254	02/09/2022	14:28:58.585	0.00000000E+0	2.15723718E+1	5.00000000E+0	6.06361926E-1	0.00000000E+0
255	02/09/2022	14:29:00.031	0.00000000E+0	2.17817602E+1	5.00000000E+0	6.04002056E-1	0.00000000E+0
256	02/09/2022	14:29:01.376	0.00000000E+0	2.19911486E+1	5.00000000E+0	5.85903966E-1	0.00000000E+0
257	02/09/2022	14:29:02.774	0.00000000E+0	2.22005370E+1	5.00000000E+0	5.81331705E-1	0.00000000E+0
258	02/09/2022	14:29:04.325	0.00000000E+0	2.24099253E+1	5.00000000E+0	5.50665399E-1	0.00000000E+0
259	02/09/2022	14:29:05.709	0.00000000E+0	2.26193137E+1	5.00000000E+0	5.23400979E-1	0.00000000E+0
260	02/09/2022	14:29:07.155	0.00000000E+0	2.28290856E+1	5.00000000E+0	4.96614076E-1	0.00000000E+0
261	02/09/2022	14:29:08.649	0.00000000E+0	2.30384740E+1	5.00000000E+0	4.78158150E-1	0.00000000E+0
262	02/09/2022	14:29:10.042	0.00000000E+0	2.32478623E+1	5.00000000E+0	4.38425111E-1	0.00000000E+0
263	02/09/2022	14:29:11.511	0.00000000E+0	2.34572507E+1	5.00000000E+0	4.19395953E-1	0.00000000E+0
264	02/09/2022	14:29:12.895	0.00000000E+0	2.36666391E+1	5.00000000E+0	3.97734742E-1	0.00000000E+0
265	02/09/2022	14:29:14.288	0.00000000E+0	2.38760275E+1	5.00000000E+0	3.49530527E-1	0.00000000E+0
266	02/09/2022	14:29:15.800	0.00000000E+0	2.40854158E+1	5.00000000E+0	3.25526945E-1	0.00000000E+0
267	02/09/2022	14:29:17.181	0.00000000E+0	2.42948042E+1	5.00000000E+0	3.17253267E-1	0.00000000E+0
268	02/09/2022	14:29:18.586	0.00000000E+0	2.45045761E+1	5.00000000E+0	3.12447921E-1	0.00000000E+0
269	02/09/2022	14:29:20.090	0.00000000E+0	2.47139645E+1	5.00000000E+0	3.07478859E-1	0.00000000E+0
270	02/09/2022	14:29:21.472	0.00000000E+0	2.49233529E+1	5.00000000E+0	3.03852481E-1	0.00000000E+0
271	02/09/2022	14:29:23.021	0.00000000E+0	2.51327412E+1	5.00000000E+0	3.06740001E-1	0.00000000E+0
272	02/09/2022	14:29:24.406	0.00000000E+0	2.53421296E+1	5.00000000E+0	3.27725699E-1	0.00000000E+0
273	02/09/2022	14:29:25.811	0.00000000E+0	2.55515180E+1	5.00000000E+0	3.39890401E-1	0.00000000E+0
274	02/09/2022	14:29:27.291	0.00000000E+0	2.57609064E+1	5.00000000E+0	3.83574961E-1	0.00000000E+0
275	02/09/2022	14:29:28.679	0.00000000E+0	2.59706782E+1	5.00000000E+0	4.05809081E-1	0.00000000E+0
276	02/09/2022	14:29:30.207	0.00000000E+0	2.61800666E+1	5.00000000E+0	4.41457696E-1	0.00000000E+0
277	02/09/2022	14:29:31.611	0.00000000E+0	2.63894550E+1	5.00000000E+0	4.66622268E-1	0.00000000E+0
278	02/09/2022	14:29:32.999	0.00000000E+0	2.65988434E+1	5.00000000E+0	4.98802918E-1	0.00000000E+0
279	02/09/2022	14:29:34.502	0.00000000E+0	2.68082317E+1	5.00000000E+0	5.31145967E-1	0.00000000E+0
280	02/09/2022	14:29:35.899	0.00000000E+0	2.70176201E+1	5.00000000E+0	5.46723538E-1	0.00000000E+0
281	02/09/2022	14:29:37.299	0.00000000E+0	2.72270085E+1	5.00000000E+0	5.70329753E-1	0.00000000E+0
282	02/09/2022	14:29:38.833	0.00000000E+0	2.74363969E+1	5.00000000E+0	5.94727654E-1	0.00000000E+0
283	02/09/2022	14:29:40.221	0.00000000E+0	2.76461687E+1	5.00000000E+0	5.93904421E-1	0.00000000E+0
284	02/09/2022	14:29:41.695	0.00000000E+0	2.78555571E+1	5.00000000E+0	5.93342619E-1	0.00000000E+0
285	02/09/2022	14:29:43.087	0.00000000E+0	2.80649455E+1	5.00000000E+0	5.95279069E-1	0.00000000E+0
286	02/09/2022	14:29:44.482	0.00000000E+0	2.82743339E+1	5.00000000E+0	5.90791329E-1	0.00000000E+0
287	02/09/2022	14:29:46.024	0.00000000E+0	2.84837223E+1	5.00000000E+0	5.87402708E-1	0.00000000E+0
288	02/09/2022	14:29:47.409	0.00000000E+0	2.86931106E+1	5.00000000E+0	5.44044300E-1	0.00000000E+0
289	02/09/2022	14:29:48.797	0.00000000E+0	2.89024990E+1	5.00000000E+0	5.45731763E-1	0.00000000E+0
290	02/09/2022	14:29:50.289	0.00000000E+0	2.91122709E+1	5.00000000E+0	4.99220458E-1	0.00000000E+0
291	02/09/2022	14:29:51.716	0.00000000E+0	2.93216593E+1	5.00000000E+0	4.82597901E-1	0.00000000E+0
292	02/09/2022	14:29:53.216	0.00000000E+0	2.95310476E+1	5.00000000E+0	4.42588590E-1	0.00000000E+0
293	02/09/2022	14:29:54.600	0.00000000E+0	2.97404360E+1	5.00000000E+0	4.11875156E-1	0.00000000E+0
294	02/09/2022	14:29:56.041	0.00000000E+0	2.99498244E+1	5.00000000E+0	3.83192430E-1	0.00000000E+0
295	02/09/2022	14:29:57.534	0.00000000E+0	3.01592128E+1	5.00000000E+0	3.50901641E-1	0.00000000E+0
296	02/09/2022	14:29:58.924	0.00000000E+0	3.03686012E+1	5.00000000E+0	3.29683531E-1	0.00000000E+0
297	02/09/2022	14:30:00.433	0.00000000E+0	3.05779895E+1	5.00000000E+0	3.20141692E-1	0.00000000E+0
298	02/09/2022	14:30:01.832	0.00000000E+0	3.07877614E+1	5.00000000E+0	3.00352024E-1	0.00000000E+0
299	02/09/2022	14:30:03.200	0.00000000E+0	3.09971498E+1	5.00000000E+0	3.03968688E-1	0.00000000E+0
300	02/09/2022	14:30:04.717	0.00000000E+0	3.12065382E+1	5.00000000E+0	3.09341954E-1	0.00000000E+0
301	02/09/2022	14:30:06.108	0.00000000E+0	3.14159265E+1	5.00000000E+0	3.20318190E-1	0.00000000E+0
