#Iteration	Date	Time	RTPhase	NFringe	AccelAxis	AccelMean	AccelTemp
1	02/09/2022	15:49:46.120	7.87315639E-1	-2.51800000E+3	2.00000000E+0	-9.80603206E+0	7.16086800E+6
2	02/09/2022	15:49:47.506	7.22121456E-1	-2.51400000E+3	2.00000000E+0	-9.80603206E+0	7.16086800E+6
3	02/09/2022	15:49:48.906	2.06051969E+0	-2.51800000E+3	2.00000000E+0	-9.80603206E+0	7.16086800E+6
4	02/09/2022	15:49:50.442	3.31224802E+0	-2.51800000E+3	2.00000000E+0	-9.80603206E+0	7.16086800E+6
5	02/09/2022	15:49:51.827	9.66407896E-2	-2.51700000E+3	2.00000000E+0	-9.80603206E+0	7.16086800E+6
6	02/09/2022	15:49:53.218	3.18914606E+0	-2.51600000E+3	2.00000000E+0	-9.80603206E+0	7.16086800E+6
7	02/09/2022	15:49:54.599	3.37514123E+0	-2.51800000E+3	2.00000000E+0	-9.80603206E+0	7.16086800E+6
8	02/09/2022	15:49:55.985	3.67925292E+0	-2.51600000E+3	2.00000000E+0	-9.80603206E+0	7.16086800E+6
9	02/09/2022	15:49:57.444	1.37636426E+0	-2.51500000E+3	2.00000000E+0	-9.80603206E+0	7.16086800E+6
10	02/09/2022	15:49:58.849	3.40160240E-1	-2.51800000E+3	2.00000000E+0	-9.80603206E+0	7.16086800E+6
11	02/09/2022	15:50:00.236	9.74077800E-2	-2.51400000E+3	2.00000000E+0	-9.80603206E+0	7.16086800E+6
12	02/09/2022	15:50:01.813	9.08116626E-1	-2.51800000E+3	2.00000000E+0	-9.80603206E+0	7.16086800E+6
13	02/09/2022	15:50:03.212	5.75933087E+0	-2.51700000E+3	2.00000000E+0	-9.80603206E+0	7.16086800E+6
14	02/09/2022	15:50:04.752	1.36600989E+0	-2.51400000E+3	2.00000000E+0	-9.80603206E+0	7.16086800E+6
15	02/09/2022	15:50:06.131	3.02999555E+0	-2.51600000E+3	2.00000000E+0	-9.80603206E+0	7.16086800E+6
16	02/09/2022	15:50:07.508	1.44194194E+0	-2.51800000E+3	2.00000000E+0	-9.80603206E+0	7.16086800E+6
17	02/09/2022	15:50:09.055	1.89101482E+0	-2.51800000E+3	2.00000000E+0	-9.80603206E+0	7.16086800E+6
18	02/09/2022	15:50:10.469	2.86624310E+0	-2.51800000E+3	2.00000000E+0	-9.80603206E+0	7.16086800E+6
19	02/09/2022	15:50:11.918	1.22565065E+0	-2.51400000E+3	2.00000000E+0	-9.80603206E+0	7.16086800E+6
20	02/09/2022	15:50:13.432	8.87791381E-1	-2.51600000E+3	2.00000000E+0	-9.80603206E+0	7.16086800E+6
21	02/09/2022	15:50:14.819	6.12058334E+0	-2.51800000E+3	2.00000000E+0	-9.80603206E+0	7.16086800E+6
22	02/09/2022	15:50:16.253	1.92476239E+0	-2.51500000E+3	2.00000000E+0	-9.80603206E+0	7.16086800E+6
23	02/09/2022	15:50:17.639	1.98650512E-1	-2.51800000E+3	2.00000000E+0	-9.80603206E+0	7.16086800E+6
24	02/09/2022	15:50:19.029	2.88004893E+0	-2.51500000E+3	2.00000000E+0	-9.80603206E+0	7.16086800E+6
25	02/09/2022	15:50:20.638	3.73179176E+0	-2.51600000E+3	2.00000000E+0	-9.80603206E+0	7.16086800E+6
26	02/09/2022	15:50:22.046	3.00391788E+0	-2.51500000E+3	2.00000000E+0	-9.80603206E+0	7.16086800E+6
27	02/09/2022	15:50:23.429	4.04395685E+0	-2.51800000E+3	2.00000000E+0	-9.80603206E+0	7.16086800E+6
28	02/09/2022	15:50:24.826	6.88373879E-1	-2.51400000E+3	2.00000000E+0	-9.80603206E+0	7.16086800E+6
29	02/09/2022	15:50:26.211	5.59442793E+0	-2.51800000E+3	2.00000000E+0	-9.80603206E+0	7.16086800E+6
30	02/09/2022	15:50:27.724	5.36394732E+0	-2.51900000E+3	2.00000000E+0	-9.80603206E+0	7.16086800E+6
31	02/09/2022	15:50:29.104	4.89454920E+0	-2.51600000E+3	2.00000000E+0	-9.80603206E+0	7.16086800E+6
32	02/09/2022	15:50:30.622	4.31432097E+0	-2.51500000E+3	2.00000000E+0	-9.80603206E+0	7.16086800E+6
33	02/09/2022	15:50:32.157	2.66107317E+0	-2.51800000E+3	2.00000000E+0	-9.80603206E+0	7.16086800E+6
34	02/09/2022	15:50:33.534	5.44563180E+0	-2.51500000E+3	2.00000000E+0	-9.80603206E+0	7.16086800E+6
35	02/09/2022	15:50:34.997	5.65502017E+0	-2.51500000E+3	2.00000000E+0	-9.80603206E+0	7.16086800E+6
36	02/09/2022	15:50:36.392	7.16369028E-1	-2.51800000E+3	2.00000000E+0	-9.80603206E+0	7.16086800E+6
37	02/09/2022	15:50:37.771	5.80535029E+0	-2.51700000E+3	2.00000000E+0	-9.80603206E+0	7.16086800E+6
38	02/09/2022	15:50:39.300	4.94018513E+0	-2.51700000E+3	2.00000000E+0	-9.80603206E+0	7.16086800E+6
39	02/09/2022	15:50:40.713	5.33288421E+0	-2.51700000E+3	2.00000000E+0	-9.80603206E+0	7.16086800E+6
40	02/09/2022	15:50:42.096	2.51841296E+0	-2.51900000E+3	2.00000000E+0	-9.80603206E+0	7.16086800E+6
41	02/09/2022	15:50:43.602	4.63952489E+0	-2.51900000E+3	2.00000000E+0	-9.80603206E+0	7.16086800E+6
42	02/09/2022	15:50:44.991	2.57670423E+0	-2.51400000E+3	2.00000000E+0	-9.80603206E+0	7.16086800E+6
43	02/09/2022	15:50:46.495	2.48543237E+0	-2.51500000E+3	2.00000000E+0	-9.80603206E+0	7.16086800E+6
44	02/09/2022	15:50:47.885	3.40620434E+0	-2.51900000E+3	2.00000000E+0	-9.80603206E+0	7.16086800E+6
45	02/09/2022	15:50:49.288	4.44969477E+0	-2.51500000E+3	2.00000000E+0	-9.80603206E+0	7.16086800E+6
46	02/09/2022	15:50:50.775	4.49072876E-1	-2.51600000E+3	2.00000000E+0	-9.80603206E+0	7.16086800E+6
47	02/09/2022	15:50:52.179	5.36816577E+0	-2.51900000E+3	2.00000000E+0	-9.80603206E+0	7.16086800E+6
48	02/09/2022	15:50:53.688	5.37123373E+0	-2.51900000E+3	2.00000000E+0	-9.80603206E+0	7.16086800E+6
49	02/09/2022	15:50:55.139	2.72358289E+0	-2.51900000E+3	2.00000000E+0	-9.80603206E+0	7.16086800E+6
50	02/09/2022	15:50:56.510	3.49440823E+0	-2.51900000E+3	2.00000000E+0	-9.80603206E+0	7.16086800E+6
51	02/09/2022	15:50:58.018	5.13960263E+0	-2.51900000E+3	2.00000000E+0	-9.80603206E+0	7.16086800E+6
52	02/09/2022	15:50:59.393	6.17925811E+0	-2.51900000E+3	2.00000000E+0	-9.80603206E+0	7.16086800E+6
53	02/09/2022	15:51:00.847	5.14727253E+0	-2.51900000E+3	2.00000000E+0	-9.80603206E+0	7.16086800E+6
54	02/09/2022	15:51:02.329	2.56903432E+0	-2.51400000E+3	2.00000000E+0	-9.80603206E+0	7.16086800E+6
55	02/09/2022	15:51:03.727	4.74230161E+0	-2.51800000E+3	2.00000000E+0	-9.80603206E+0	7.16086800E+6
56	02/09/2022	15:51:05.175	5.86824350E+0	-2.51900000E+3	2.00000000E+0	-9.80603206E+0	7.16086800E+6
57	02/09/2022	15:51:06.573	3.44340337E+0	-2.51500000E+3	2.00000000E+0	-9.80603206E+0	7.16086800E+6
58	02/09/2022	15:51:07.947	9.57587507E-1	-2.51500000E+3	2.00000000E+0	-9.80603206E+0	7.16086800E+6
59	02/09/2022	15:51:09.423	3.80657333E+0	-2.51900000E+3	2.00000000E+0	-9.80603206E+0	7.16086800E+6
60	02/09/2022	15:51:10.815	3.13737421E+0	-2.51500000E+3	2.00000000E+0	-9.80603206E+0	7.16086800E+6
61	02/09/2022	15:51:12.225	3.41349075E+0	-2.51500000E+3	2.00000000E+0	-9.80603206E+0	7.16086800E+6
62	02/09/2022	15:51:13.571	5.16721428E+0	-2.51900000E+3	2.00000000E+0	-9.80603206E+0	7.16086800E+6
63	02/09/2022	15:51:15.029	5.71791339E+0	-2.51900000E+3	2.00000000E+0	-9.80603206E+0	7.16086800E+6
64	02/09/2022	15:51:16.531	6.15126296E-1	-2.51700000E+3	2.00000000E+0	-9.80603206E+0	7.16086800E+6
65	02/09/2022	15:51:17.923	3.69727719E+0	-2.51600000E+3	2.00000000E+0	-9.80603206E+0	7.16086800E+6
66	02/09/2022	15:51:19.371	4.39102001E+0	-2.51900000E+3	2.00000000E+0	-9.80603206E+0	7.16086800E+6
67	02/09/2022	15:51:20.885	4.14059764E+0	-2.51700000E+3	2.00000000E+0	-9.80603206E+0	7.16086800E+6
68	02/09/2022	15:51:22.278	8.80121477E-1	-2.51700000E+3	2.00000000E+0	-9.80603206E+0	7.16086800E+6
69	02/09/2022	15:51:23.771	2.80373339E+0	-2.51500000E+3	2.00000000E+0	-9.80603206E+0	7.16086800E+6
70	02/09/2022	15:51:25.194	2.34622362E+0	-2.51500000E+3	2.00000000E+0	-9.80603206E+0	7.16086800E+6
71	02/09/2022	15:51:26.564	4.03705394E+0	-2.51600000E+3	2.00000000E+0	-9.80603206E+0	7.16086800E+6
72	02/09/2022	15:51:28.065	4.49072876E-1	-2.51500000E+3	2.00000000E+0	-9.80603206E+0	7.16086800E+6
73	02/09/2022	15:51:29.439	4.96664630E+0	-2.51600000E+3	2.00000000E+0	-9.80603206E+0	7.16086800E+6
74	02/09/2022	15:51:30.912	5.85213671E-1	-2.51900000E+3	2.00000000E+0	-9.80603206E+0	7.16086800E+6
75	02/09/2022	15:51:32.397	1.89561676E+0	-2.51400000E+3	2.00000000E+0	-9.80603206E+0	7.16086800E+6
76	02/09/2022	15:51:33.793	2.83287902E+0	-2.51800000E+3	2.00000000E+0	-9.80603206E+0	7.16086800E+6
77	02/09/2022	15:51:35.303	6.97194268E-1	-2.51600000E+3	2.00000000E+0	-9.80603206E+0	7.16086800E+6
78	02/09/2022	15:51:36.735	4.63645693E+0	-2.51500000E+3	2.00000000E+0	-9.80603206E+0	7.16086800E+6
79	02/09/2022	15:51:38.125	2.57363627E+0	-2.51800000E+3	2.00000000E+0	-9.80603206E+0	7.16086800E+6
80	02/09/2022	15:51:39.628	3.07102954E+0	-2.51800000E+3	2.00000000E+0	-9.80603206E+0	7.16086800E+6
81	02/09/2022	15:51:41.020	2.49732072E+0	-2.51400000E+3	2.00000000E+0	-9.80603206E+0	7.16086800E+6
82	02/09/2022	15:51:42.411	4.66291810E+0	-2.51900000E+3	2.00000000E+0	-9.80603206E+0	7.16086800E+6
83	02/09/2022	15:51:43.805	2.86470912E-1	-2.51500000E+3	2.00000000E+0	-9.80603206E+0	7.16086800E+6
84	02/09/2022	15:51:45.199	6.14589403E+0	-2.51800000E+3	2.00000000E+0	-9.80603206E+0	7.16086800E+6
85	02/09/2022	15:51:46.665	1.65593226E+0	-2.51700000E+3	2.00000000E+0	-9.80603206E+0	7.16086800E+6
86	02/09/2022	15:51:48.057	6.19651539E+0	-2.51800000E+3	2.00000000E+0	-9.80603206E+0	7.16086800E+6
87	02/09/2022	15:51:49.529	6.89524364E-1	-2.51900000E+3	2.00000000E+0	-9.80603206E+0	7.16086800E+6
88	02/09/2022	15:51:51.027	4.64412684E-1	-2.51800000E+3	2.00000000E+0	-9.80603206E+0	7.16086800E+6
89	02/09/2022	15:51:52.399	5.20978225E+0	-2.51900000E+3	2.00000000E+0	-9.80603206E+0	7.16086800E+6
90	02/09/2022	15:51:53.908	0.00000000E+0	-2.51800000E+3	2.00000000E+0	-9.80603206E+0	7.16086800E+6
91	02/09/2022	15:51:55.285	3.65125777E+0	-2.51700000E+3	2.00000000E+0	-9.80603206E+0	7.16086800E+6
92	02/09/2022	15:51:56.681	5.62587454E-1	-2.51700000E+3	2.00000000E+0	-9.80603206E+0	7.16086800E+6
93	02/09/2022	15:51:58.198	3.83955391E+0	-2.51900000E+3	2.00000000E+0	-9.80603206E+0	7.16086800E+6
94	02/09/2022	15:51:59.590	2.31784497E+0	-2.51500000E+3	2.00000000E+0	-9.80603206E+0	7.16086800E+6
95	02/09/2022	15:52:00.984	4.89723367E+0	-2.51800000E+3	2.00000000E+0	-9.80603206E+0	7.16086800E+6
96	02/09/2022	15:52:02.488	5.25771915E-1	-2.51800000E+3	2.00000000E+0	-9.80603206E+0	7.16086800E+6
97	02/09/2022	15:52:03.888	5.30719003E+0	-2.51700000E+3	2.00000000E+0	-9.80603206E+0	7.16086800E+6
98	02/09/2022	15:52:05.371	8.89708857E-2	-2.51600000E+3	2.00000000E+0	-9.80603206E+0	7.16086800E+6
99	02/09/2022	15:52:06.754	2.67756347E+0	-2.51500000E+3	2.00000000E+0	-9.80603206E+0	7.16086800E+6
100	02/09/2022	15:52:08.150	8.45606909E-1	-2.51700000E+3	2.00000000E+0	-9.80603206E+0	7.16086800E+6
101	02/09/2022	15:52:09.612	3.55269950E+0	-2.51600000E+3	2.00000000E+0	-9.80603206E+0	7.16086800E+6
102	02/09/2022	15:52:11.005	4.27750543E+0	-2.51700000E+3	2.00000000E+0	-9.80603206E+0	7.16086800E+6
103	02/09/2022	15:52:12.529	2.42407314E+0	-2.51700000E+3	2.00000000E+0	-9.80603206E+0	7.16086800E+6
104	02/09/2022	15:52:13.932	5.91196196E+0	-2.52000000E+3	2.00000000E+0	-9.80603206E+0	7.16086800E+6
105	02/09/2022	15:52:15.356	2.94639360E+0	-2.51800000E+3	2.00000000E+0	-9.80603206E+0	7.16086800E+6
106	02/09/2022	15:52:16.872	3.08061692E+0	-2.51500000E+3	2.00000000E+0	-9.80603206E+0	7.16086800E+6
107	02/09/2022	15:52:18.250	4.23225299E+0	-2.51400000E+3	2.00000000E+0	-9.80603206E+0	7.16086800E+6
108	02/09/2022	15:52:19.699	1.22641764E+0	-2.51500000E+3	2.00000000E+0	-9.80603206E+0	7.16086800E+6
109	02/09/2022	15:52:21.200	5.44908325E+0	-2.51700000E+3	2.00000000E+0	-9.80603206E+0	7.16086800E+6
110	02/09/2022	15:52:22.605	1.61988371E+0	-2.51900000E+3	2.00000000E+0	-9.80603206E+0	7.16086800E+6
111	02/09/2022	15:52:24.058	4.29552970E+0	-2.51900000E+3	2.00000000E+0	-9.80603206E+0	7.16086800E+6
112	02/09/2022	15:52:25.428	2.12494689E+0	-2.51800000E+3	2.00000000E+0	-9.80603206E+0	7.16086800E+6
113	02/09/2022	15:52:26.812	4.83817540E+0	-2.51600000E+3	2.00000000E+0	-9.80603206E+0	7.16086800E+6
114	02/09/2022	15:52:28.361	5.08016087E+0	-2.51700000E+3	2.00000000E+0	-9.80603206E+0	7.16086800E+6
115	02/09/2022	15:52:29.736	5.44563180E-2	-2.51500000E+3	2.00000000E+0	-9.80603206E+0	7.16086800E+6
116	02/09/2022	15:52:31.131	3.26009267E+0	-2.51900000E+3	2.00000000E+0	-9.80603206E+0	7.16086800E+6
117	02/09/2022	15:52:32.487	5.06597155E-1	-2.51500000E+3	2.00000000E+0	-9.80603206E+0	7.16086800E+6
118	02/09/2022	15:52:33.896	2.35734498E+0	-2.51400000E+3	2.00000000E+0	-9.80603206E+0	7.16086800E+6
119	02/09/2022	15:52:35.359	5.54342307E+0	-2.51500000E+3	2.00000000E+0	-9.80603206E+0	7.16086800E+6
120	02/09/2022	15:52:36.754	6.00553478E-1	-2.51700000E+3	2.00000000E+0	-9.80603206E+0	7.16086800E+6
121	02/09/2022	15:52:38.126	5.79998136E+0	-2.51800000E+3	2.00000000E+0	-9.80603206E+0	7.16086800E+6
122	02/09/2022	15:52:39.693	2.27834497E+0	-2.51500000E+3	2.00000000E+0	-9.80603206E+0	7.16086800E+6
123	02/09/2022	15:52:41.087	3.80657333E+0	-2.51800000E+3	2.00000000E+0	-9.80603206E+0	7.16086800E+6
124	02/09/2022	15:52:42.592	1.33187882E+0	-2.51800000E+3	2.00000000E+0	-9.80603206E+0	7.16086800E+6
125	02/09/2022	15:52:43.963	4.27827242E+0	-2.51800000E+3	2.00000000E+0	-9.80603206E+0	7.16086800E+6
126	02/09/2022	15:52:45.353	2.36808284E+0	-2.51500000E+3	2.00000000E+0	-9.80603206E+0	7.16086800E+6
127	02/09/2022	15:52:46.860	2.96441787E-1	-2.51600000E+3	2.00000000E+0	-9.80603206E+0	7.16086800E+6
128	02/09/2022	15:52:48.238	1.25019434E+0	-2.51800000E+3	2.00000000E+0	-9.80603206E+0	7.16086800E+6
129	02/09/2022	15:52:49.619	3.51358299E+0	-2.51700000E+3	2.00000000E+0	-9.80603206E+0	7.16086800E+6
130	02/09/2022	15:52:51.136	4.45851516E+0	-2.51500000E+3	2.00000000E+0	-9.80603206E+0	7.16086800E+6
131	02/09/2022	15:52:52.529	4.59197149E+0	-2.51900000E+3	2.00000000E+0	-9.80603206E+0	7.16086800E+6
132	02/09/2022	15:52:54.068	4.15938891E+0	-2.51600000E+3	2.00000000E+0	-9.80603206E+0	7.16086800E+6
133	02/09/2022	15:52:55.474	4.76684530E-1	-2.51400000E+3	2.00000000E+0	-9.80603206E+0	7.16086800E+6
134	02/09/2022	15:52:56.844	2.35772847E+0	-2.51400000E+3	2.00000000E+0	-9.80603206E+0	7.16086800E+6
135	02/09/2022	15:52:58.298	2.56059743E+0	-2.51500000E+3	2.00000000E+0	-9.80603206E+0	7.16086800E+6
136	02/09/2022	15:52:59.674	4.82053463E+0	-2.51400000E+3	2.00000000E+0	-9.80603206E+0	7.16086800E+6
137	02/09/2022	15:53:01.123	5.06367058E+0	-2.51600000E+3	2.00000000E+0	-9.80603206E+0	7.16086800E+6
138	02/09/2022	15:53:02.459	2.12072844E-1	-2.51400000E+3	2.00000000E+0	-9.80603206E+0	7.16086800E+6
139	02/09/2022	15:53:03.864	3.88020440E+0	-2.51500000E+3	2.00000000E+0	-9.80603206E+0	7.16086800E+6
140	02/09/2022	15:53:05.406	2.83671397E+0	-2.51700000E+3	2.00000000E+0	-9.80603206E+0	7.16086800E+6
141	02/09/2022	15:53:06.795	6.13553966E+0	-2.51600000E+3	2.00000000E+0	-9.80603206E+0	7.16086800E+6
142	02/09/2022	15:53:08.204	6.14167558E+0	-2.51500000E+3	2.00000000E+0	-9.80603206E+0	7.16086800E+6
143	02/09/2022	15:53:09.694	1.45344680E-1	-2.51700000E+3	2.00000000E+0	-9.80603206E+0	7.16086800E+6
144	02/09/2022	15:53:11.061	4.40214137E+0	-2.51800000E+3	2.00000000E+0	-9.80603206E+0	7.16086800E+6
145	02/09/2022	15:53:12.569	5.51312695E+0	-2.51800000E+3	2.00000000E+0	-9.80603206E+0	7.16086800E+6
146	02/09/2022	15:53:13.970	1.00475742E+0	-2.51800000E+3	2.00000000E+0	-9.80603206E+0	7.16086800E+6
147	02/09/2022	15:53:15.359	5.56068036E-2	-2.51500000E+3	2.00000000E+0	-9.80603206E+0	7.16086800E+6
148	02/09/2022	15:53:16.860	5.77965611E+0	-2.51700000E+3	2.00000000E+0	-9.80603206E+0	7.16086800E+6
149	02/09/2022	15:53:18.245	5.35666091E+0	-2.51500000E+3	2.00000000E+0	-9.80603206E+0	7.16086800E+6
150	02/09/2022	15:53:19.636	4.45237924E-1	-2.51800000E+3	2.00000000E+0	-9.80603206E+0	7.16086800E+6
151	02/09/2022	15:53:21.133	1.19995647E+0	-2.51800000E+3	2.00000000E+0	-9.80603206E+0	7.16086800E+6
152	02/09/2022	15:53:22.516	3.99908791E+0	-2.51700000E+3	2.00000000E+0	-9.80603206E+0	7.16086800E+6
153	02/09/2022	15:53:24.022	5.08284534E+0	-2.51700000E+3	2.00000000E+0	-9.80603206E+0	7.16086800E+6
154	02/09/2022	15:53:25.441	2.62847608E+0	-2.51500000E+3	2.00000000E+0	-9.80603206E+0	7.16086800E+6
155	02/09/2022	15:53:26.840	3.39776745E+0	-2.51900000E+3	2.00000000E+0	-9.80603206E+0	7.16086800E+6
156	02/09/2022	15:53:28.349	4.36417534E-1	-2.51800000E+3	2.00000000E+0	-9.80603206E+0	7.16086800E+6
157	02/09/2022	15:53:29.735	2.91839845E-1	-2.51400000E+3	2.00000000E+0	-9.80603206E+0	7.16086800E+6
158	02/09/2022	15:53:31.228	2.80104892E+0	-2.51700000E+3	2.00000000E+0	-9.80603206E+0	7.16086800E+6
159	02/09/2022	15:53:32.638	2.75464600E+0	-2.51800000E+3	2.00000000E+0	-9.80603206E+0	7.16086800E+6
160	02/09/2022	15:53:34.027	5.52808326E+0	-2.51500000E+3	2.00000000E+0	-9.80603206E+0	7.16086800E+6
161	02/09/2022	15:53:35.480	4.34461709E+0	-2.51500000E+3	2.00000000E+0	-9.80603206E+0	7.16086800E+6
162	02/09/2022	15:53:36.879	5.96028235E+0	-2.51900000E+3	2.00000000E+0	-9.80603206E+0	7.16086800E+6
163	02/09/2022	15:53:38.294	4.45774817E+0	-2.51900000E+3	2.00000000E+0	-9.80603206E+0	7.16086800E+6
164	02/09/2022	15:53:39.778	2.70364114E-1	-2.51400000E+3	2.00000000E+0	-9.80603206E+0	7.16086800E+6
165	02/09/2022	15:53:41.206	3.78279662E+0	-2.51800000E+3	2.00000000E+0	-9.80603206E+0	7.16086800E+6
166	02/09/2022	15:53:42.631	3.83265100E+0	-2.51900000E+3	2.00000000E+0	-9.80603206E+0	7.16086800E+6
167	02/09/2022	15:53:44.015	6.02087459E-2	-2.51400000E+3	2.00000000E+0	-9.80603206E+0	7.16086800E+6
168	02/09/2022	15:53:45.411	5.79729689E+0	-2.52000000E+3	2.00000000E+0	-9.80603206E+0	7.16086800E+6
169	02/09/2022	15:53:46.864	1.41931572E+0	-2.51800000E+3	2.00000000E+0	-9.80603206E+0	7.16086800E+6
170	02/09/2022	15:53:48.253	1.32574290E+0	-2.51500000E+3	2.00000000E+0	-9.80603206E+0	7.16086800E+6
171	02/09/2022	15:53:49.705	4.97546669E+0	-2.51800000E+3	2.00000000E+0	-9.80603206E+0	7.16086800E+6
172	02/09/2022	15:53:51.171	2.75004406E+0	-2.51600000E+3	2.00000000E+0	-9.80603206E+0	7.16086800E+6
173	02/09/2022	15:53:52.537	1.53167982E+0	-2.51600000E+3	2.00000000E+0	-9.80603206E+0	7.16086800E+6
174	02/09/2022	15:53:54.059	5.86632603E+0	-2.51500000E+3	2.00000000E+0	-9.80603206E+0	7.16086800E+6
175	02/09/2022	15:53:55.447	3.57494223E+0	-2.51900000E+3	2.00000000E+0	-9.80603206E+0	7.16086800E+6
176	02/09/2022	15:53:56.898	6.03237945E-1	-2.51700000E+3	2.00000000E+0	-9.80603206E+0	7.16086800E+6
177	02/09/2022	15:53:58.393	7.21737961E-1	-2.51500000E+3	2.00000000E+0	-9.80603206E+0	7.16086800E+6
178	02/09/2022	15:53:59.791	2.09388378E+0	-2.51600000E+3	2.00000000E+0	-9.80603206E+0	7.16086800E+6
179	02/09/2022	15:54:01.258	2.89385476E+0	-2.51500000E+3	2.00000000E+0	-9.80603206E+0	7.16086800E+6
180	02/09/2022	15:54:02.689	5.02992300E+0	-2.51700000E+3	2.00000000E+0	-9.80603206E+0	7.16086800E+6
181	02/09/2022	15:54:04.061	4.54786954E+0	-2.51800000E+3	2.00000000E+0	-9.80603206E+0	7.16086800E+6
182	02/09/2022	15:54:05.535	5.72059785E+0	-2.51900000E+3	2.00000000E+0	-9.80603206E+0	7.16086800E+6
183	02/09/2022	15:54:06.925	6.08415130E+0	-2.51500000E+3	2.00000000E+0	-9.80603206E+0	7.16086800E+6
184	02/09/2022	15:54:08.356	1.96733036E-1	-2.51800000E+3	2.00000000E+0	-9.80603206E+0	7.16086800E+6
185	02/09/2022	15:54:09.842	5.50123860E+0	-2.51500000E+3	2.00000000E+0	-9.80603206E+0	7.16086800E+6
186	02/09/2022	15:54:11.241	6.26631152E+0	-2.51800000E+3	2.00000000E+0	-9.80603206E+0	7.16086800E+6
187	02/09/2022	15:54:12.719	2.81101979E+0	-2.51400000E+3	2.00000000E+0	-9.80603206E+0	7.16086800E+6
188	02/09/2022	15:54:14.109	1.10561665E+0	-2.51800000E+3	2.00000000E+0	-9.80603206E+0	7.16086800E+6
189	02/09/2022	15:54:15.511	6.11368043E+0	-2.51800000E+3	2.00000000E+0	-9.80603206E+0	7.16086800E+6
190	02/09/2022	15:54:17.016	6.56160282E-1	-2.51700000E+3	2.00000000E+0	-9.80603206E+0	7.16086800E+6
191	02/09/2022	15:54:18.402	6.07034547E+0	-2.51800000E+3	2.00000000E+0	-9.80603206E+0	7.16086800E+6
192	02/09/2022	15:54:19.844	9.71776829E-1	-2.51700000E+3	2.00000000E+0	-9.80603206E+0	7.16086800E+6
193	02/09/2022	15:54:21.263	7.44364177E-1	-2.51800000E+3	2.00000000E+0	-9.80603206E+0	7.16086800E+6
194	02/09/2022	15:54:22.651	1.41011184E+0	-2.51600000E+3	2.00000000E+0	-9.80603206E+0	7.16086800E+6
195	02/09/2022	15:54:24.114	2.52148092E+0	-2.51500000E+3	2.00000000E+0	-9.80603206E+0	7.16086800E+6
196	02/09/2022	15:54:25.516	2.85397126E+0	-2.51800000E+3	2.00000000E+0	-9.80603206E+0	7.16086800E+6
197	02/09/2022	15:54:26.924	6.28165133E-1	-2.51800000E+3	2.00000000E+0	-9.80603206E+0	7.16086800E+6
198	02/09/2022	15:54:28.458	5.84561729E+0	-2.51500000E+3	2.00000000E+0	-9.80603206E+0	7.16086800E+6
199	02/09/2022	15:54:29.823	6.00131634E+0	-2.51500000E+3	2.00000000E+0	-9.80603206E+0	7.16086800E+6
200	02/09/2022	15:54:31.366	1.53474778E+0	-2.51500000E+3	2.00000000E+0	-9.80603206E+0	7.16086800E+6
201	02/09/2022	15:54:32.768	2.33625274E+0	-2.51900000E+3	2.00000000E+0	-9.80603206E+0	7.16086800E+6
202	02/09/2022	15:54:34.176	2.81638873E+0	-2.51800000E+3	2.00000000E+0	-9.80603206E+0	7.16086800E+6
203	02/09/2022	15:54:35.632	1.43350505E+0	-2.51700000E+3	2.00000000E+0	-9.80603206E+0	7.16086800E+6
204	02/09/2022	15:54:37.026	4.07348598E+0	-2.51500000E+3	2.00000000E+0	-9.80603206E+0	7.16086800E+6
205	02/09/2022	15:54:38.477	7.22121456E-1	-2.51700000E+3	2.00000000E+0	-9.80603206E+0	7.16086800E+6
206	02/09/2022	15:54:39.987	2.73815571E+0	-2.51600000E+3	2.00000000E+0	-9.80603206E+0	7.16086800E+6
207	02/09/2022	15:54:41.352	5.70947649E+0	-2.51800000E+3	2.00000000E+0	-9.80603206E+0	7.16086800E+6
208	02/09/2022	15:54:42.894	4.85428220E+0	-2.51900000E+3	2.00000000E+0	-9.80603206E+0	7.16086800E+6
209	02/09/2022	15:54:44.288	6.25020472E+0	-2.51500000E+3	2.00000000E+0	-9.80603206E+0	7.16086800E+6
210	02/09/2022	15:54:45.677	1.78862160E+0	-2.51800000E+3	2.00000000E+0	-9.80603206E+0	7.16086800E+6
211	02/09/2022	15:54:47.184	2.66989356E+0	-2.51800000E+3	2.00000000E+0	-9.80603206E+0	7.16086800E+6
212	02/09/2022	15:54:48.575	1.34261668E+0	-2.51400000E+3	2.00000000E+0	-9.80603206E+0	7.16086800E+6
213	02/09/2022	15:54:49.963	1.78517014E+0	-2.51800000E+3	2.00000000E+0	-9.80603206E+0	7.16086800E+6
214	02/09/2022	15:54:51.488	4.21422872E+0	-2.51500000E+3	2.00000000E+0	-9.80603206E+0	7.16086800E+6
215	02/09/2022	15:54:52.857	1.39975747E+0	-2.51500000E+3	2.00000000E+0	-9.80603206E+0	7.16086800E+6
216	02/09/2022	15:54:54.384	4.89109774E+0	-2.51800000E+3	2.00000000E+0	-9.80603206E+0	7.16086800E+6
217	02/09/2022	15:54:55.759	2.36539837E+0	-2.51900000E+3	2.00000000E+0	-9.80603206E+0	7.16086800E+6
218	02/09/2022	15:54:57.154	6.15701539E+0	-2.51500000E+3	2.00000000E+0	-9.80603206E+0	7.16086800E+6
219	02/09/2022	15:54:58.661	1.15317006E+0	-2.51400000E+3	2.00000000E+0	-9.80603206E+0	7.16086800E+6
220	02/09/2022	15:55:00.036	2.12302941E+0	-2.51600000E+3	2.00000000E+0	-9.80603206E+0	7.16086800E+6
221	02/09/2022	15:55:01.623	2.07470902E+0	-2.51400000E+3	2.00000000E+0	-9.80603206E+0	7.16086800E+6
222	02/09/2022	15:55:03.013	1.36217494E+0	-2.51900000E+3	2.00000000E+0	-9.80603206E+0	7.16086800E+6
223	02/09/2022	15:55:04.392	2.81101979E-1	-2.51700000E+3	2.00000000E+0	-9.80603206E+0	7.16086800E+6
224	02/09/2022	15:55:05.873	6.35068046E-1	-2.51500000E+3	2.00000000E+0	-9.80603206E+0	7.16086800E+6
225	02/09/2022	15:55:07.263	1.31538853E-1	-2.51800000E+3	2.00000000E+0	-9.80603206E+0	7.16086800E+6
226	02/09/2022	15:55:08.705	2.10577213E+0	-2.51600000E+3	2.00000000E+0	-9.80603206E+0	7.16086800E+6
227	02/09/2022	15:55:10.053	1.40129145E+0	-2.51600000E+3	2.00000000E+0	-9.80603206E+0	7.16086800E+6
228	02/09/2022	15:55:11.425	5.90505904E+0	-2.51600000E+3	2.00000000E+0	-9.80603206E+0	7.16086800E+6
229	02/09/2022	15:55:12.911	3.40505385E+0	-2.51800000E+3	2.00000000E+0	-9.80603206E+0	7.16086800E+6
230	02/09/2022	15:55:14.303	8.21446712E-1	-2.51400000E+3	2.00000000E+0	-9.80603206E+0	7.16086800E+6
231	02/09/2022	15:55:15.690	4.00752481E-1	-2.51700000E+3	2.00000000E+0	-9.80603206E+0	7.16086800E+6
232	02/09/2022	15:55:17.264	5.24621429E-1	-2.51600000E+3	2.00000000E+0	-9.80603206E+0	7.16086800E+6
233	02/09/2022	15:55:18.681	5.83142797E+0	-2.51600000E+3	2.00000000E+0	-9.80603206E+0	7.16086800E+6
234	02/09/2022	15:55:20.112	1.26476716E+0	-2.51600000E+3	2.00000000E+0	-9.80603206E+0	7.16086800E+6
235	02/09/2022	15:55:21.529	5.44985024E+0	-2.51700000E+3	2.00000000E+0	-9.80603206E+0	7.16086800E+6
236	02/09/2022	15:55:22.910	4.95475794E+0	-2.51900000E+3	2.00000000E+0	-9.80603206E+0	7.16086800E+6
237	02/09/2022	15:55:24.437	2.84323339E+0	-2.51500000E+3	2.00000000E+0	-9.80603206E+0	7.16086800E+6
238	02/09/2022	15:55:25.845	5.58714152E+0	-2.51500000E+3	2.00000000E+0	-9.80603206E+0	7.16086800E+6
239	02/09/2022	15:55:27.300	2.87276252E+0	-2.51600000E+3	2.00000000E+0	-9.80603206E+0	7.16086800E+6
240	02/09/2022	15:55:28.801	4.95399095E+0	-2.51800000E+3	2.00000000E+0	-9.80603206E+0	7.16086800E+6
241	02/09/2022	15:55:30.194	5.77160271E+0	-2.51700000E+3	2.00000000E+0	-9.80603206E+0	7.16086800E+6
242	02/09/2022	15:55:31.681	9.23072939E-1	-2.51500000E+3	2.00000000E+0	-9.80603206E+0	7.16086800E+6
243	02/09/2022	15:55:33.067	2.15869446E+0	-2.51600000E+3	2.00000000E+0	-9.80603206E+0	7.16086800E+6
244	02/09/2022	15:55:34.445	5.40766577E+0	-2.51900000E+3	2.00000000E+0	-9.80603206E+0	7.16086800E+6
245	02/09/2022	15:55:35.921	5.91042798E+0	-2.51700000E+3	2.00000000E+0	-9.80603206E+0	7.16086800E+6
246	02/09/2022	15:55:37.308	4.75879190E+0	-2.51600000E+3	2.00000000E+0	-9.80603206E+0	7.16086800E+6
247	02/09/2022	15:55:38.692	4.47730642E+0	-2.51900000E+3	2.00000000E+0	-9.80603206E+0	7.16086800E+6
248	02/09/2022	15:55:40.142	3.57685970E+0	-2.51700000E+3	2.00000000E+0	-9.80603206E+0	7.16086800E+6
249	02/09/2022	15:55:41.515	7.55485538E-2	-2.51800000E+3	2.00000000E+0	-9.80603206E+0	7.16086800E+6
250	02/09/2022	15:55:43.036	3.43036454E+0	-2.51700000E+3	2.00000000E+0	-9.80603206E+0	7.16086800E+6
251	02/09/2022	15:55:44.422	5.78310757E+0	-2.51500000E+3	2.00000000E+0	-9.80603206E+0	7.16086800E+6
252	02/09/2022	15:55:45.823	5.22857352E+0	-2.51700000E+3	2.00000000E+0	-9.80603206E+0	7.16086800E+6
253	02/09/2022	15:55:47.345	4.24107338E+0	-2.51500000E+3	2.00000000E+0	-9.80603206E+0	7.16086800E+6
254	02/09/2022	15:55:48.759	3.34292763E+0	-2.51500000E+3	2.00000000E+0	-9.80603206E+0	7.16086800E+6
255	02/09/2022	15:55:50.218	4.98352008E+0	-2.51500000E+3	2.00000000E+0	-9.80603206E+0	7.16086800E+6
256	02/09/2022	15:55:51.609	2.19627699E+0	-2.51900000E+3	2.00000000E+0	-9.80603206E+0	7.16086800E+6
257	02/09/2022	15:55:52.989	2.22197117E+0	-2.51500000E+3	2.00000000E+0	-9.80603206E+0	7.16086800E+6
258	02/09/2022	15:55:54.469	1.12287394E+0	-2.51700000E+3	2.00000000E+0	-9.80603206E+0	7.16086800E+6
259	02/09/2022	15:55:55.856	9.49917603E-1	-2.51700000E+3	2.00000000E+0	-9.80603206E+0	7.16086800E+6
260	02/09/2022	15:55:57.239	1.27588852E+0	-2.51400000E+3	2.00000000E+0	-9.80603206E+0	7.16086800E+6
261	02/09/2022	15:55:58.743	2.22810709E+0	-2.51400000E+3	2.00000000E+0	-9.80603206E+0	7.16086800E+6
262	02/09/2022	15:56:00.125	3.54656358E+0	-2.51700000E+3	2.00000000E+0	-9.80603206E+0	7.16086800E+6
263	02/09/2022	15:56:01.625	1.33533028E+0	-2.51500000E+3	2.00000000E+0	-9.80603206E+0	7.16086800E+6
264	02/09/2022	15:56:03.020	1.75180606E+0	-2.51700000E+3	2.00000000E+0	-9.80603206E+0	7.16086800E+6
265	02/09/2022	15:56:04.403	3.03076254E+0	-2.51400000E+3	2.00000000E+0	-9.80603206E+0	7.16086800E+6
266	02/09/2022	15:56:05.872	3.48213639E+0	-2.51600000E+3	2.00000000E+0	-9.80603206E+0	7.16086800E+6
267	02/09/2022	15:56:07.255	1.22373317E+0	-2.51900000E+3	2.00000000E+0	-9.80603206E+0	7.16086800E+6
268	02/09/2022	15:56:08.776	5.18792302E+0	-2.51500000E+3	2.00000000E+0	-9.80603206E+0	7.16086800E+6
269	02/09/2022	15:56:10.239	6.18961248E+0	-2.51500000E+3	2.00000000E+0	-9.80603206E+0	7.16086800E+6
270	02/09/2022	15:56:11.606	2.30634011E+0	-2.51400000E+3	2.00000000E+0	-9.80603206E+0	7.16086800E+6
271	02/09/2022	15:56:13.133	7.30941845E-1	-2.51800000E+3	2.00000000E+0	-9.80603206E+0	7.16086800E+6
272	02/09/2022	15:56:14.529	3.29422374E+0	-2.51400000E+3	2.00000000E+0	-9.80603206E+0	7.16086800E+6
273	02/09/2022	15:56:16.001	1.30618464E+0	-2.51600000E+3	2.00000000E+0	-9.80603206E+0	7.16086800E+6
274	02/09/2022	15:56:17.507	3.49517523E+0	-2.51700000E+3	2.00000000E+0	-9.80603206E+0	7.16086800E+6
275	02/09/2022	15:56:18.904	5.03337446E+0	-2.51500000E+3	2.00000000E+0	-9.80603206E+0	7.16086800E+6
276	02/09/2022	15:56:20.325	4.17587920E+0	-2.51500000E+3	2.00000000E+0	-9.80603206E+0	7.16086800E+6
277	02/09/2022	15:56:21.716	9.81747704E-2	-2.51800000E+3	2.00000000E+0	-9.80603206E+0	7.16086800E+6
278	02/09/2022	15:56:23.104	5.23087449E-1	-2.51400000E+3	2.00000000E+0	-9.80603206E+0	7.16086800E+6
279	02/09/2022	15:56:24.606	7.46281653E-1	-2.51500000E+3	2.00000000E+0	-9.80603206E+0	7.16086800E+6
280	02/09/2022	15:56:25.999	2.56213141E+0	-2.51800000E+3	2.00000000E+0	-9.80603206E+0	7.16086800E+6
281	02/09/2022	15:56:27.471	2.47699548E+0	-2.51800000E+3	2.00000000E+0	-9.80603206E+0	7.16086800E+6
282	02/09/2022	15:56:28.857	5.53000074E-1	-2.51400000E+3	2.00000000E+0	-9.80603206E+0	7.16086800E+6
283	02/09/2022	15:56:30.250	5.56183084E+0	-2.51900000E+3	2.00000000E+0	-9.80603206E+0	7.16086800E+6
284	02/09/2022	15:56:31.753	5.86364156E+0	-2.51900000E+3	2.00000000E+0	-9.80603206E+0	7.16086800E+6
285	02/09/2022	15:56:33.159	5.32943275E+0	-2.51800000E+3	2.00000000E+0	-9.80603206E+0	7.16086800E+6
286	02/09/2022	15:56:34.613	4.43435496E+0	-2.51600000E+3	2.00000000E+0	-9.80603206E+0	7.16086800E+6
287	02/09/2022	15:56:36.257	5.70755902E+0	-2.51700000E+3	2.00000000E+0	-9.80603206E+0	7.16086800E+6
288	02/09/2022	15:56:37.659	2.47316053E+0	-2.51400000E+3	2.00000000E+0	-9.80603206E+0	7.16086800E+6
289	02/09/2022	15:56:39.169	1.63752449E-1	-2.51400000E+3	2.00000000E+0	-9.80603206E+0	7.16086800E+6
290	02/09/2022	15:56:40.583	1.21184482E+0	-2.51400000E+3	2.00000000E+0	-9.80603206E+0	7.16086800E+6
291	02/09/2022	15:56:41.959	8.22597198E-1	-2.51600000E+3	2.00000000E+0	-9.80603206E+0	7.16086800E+6
292	02/09/2022	15:56:43.503	4.29514621E-1	-2.51400000E+3	2.00000000E+0	-9.80603206E+0	7.16086800E+6
293	02/09/2022	15:56:44.922	2.76116542E-1	-2.51500000E+3	2.00000000E+0	-9.80603206E+0	7.16086800E+6
294	02/09/2022	15:56:46.360	5.83679690E-1	-2.51700000E+3	2.00000000E+0	-9.80603206E+0	7.16086800E+6
295	02/09/2022	15:56:47.872	2.79874795E+0	-2.51500000E+3	2.00000000E+0	-9.80603206E+0	7.16086800E+6
296	02/09/2022	15:56:49.253	1.75410703E+0	-2.51400000E+3	2.00000000E+0	-9.80603206E+0	7.16086800E+6
297	02/09/2022	15:56:50.768	1.71422353E-1	-2.51700000E+3	2.00000000E+0	-9.80603206E+0	7.16086800E+6
298	02/09/2022	15:56:52.149	1.34913610E+0	-2.51800000E+3	2.00000000E+0	-9.80603206E+0	7.16086800E+6
299	02/09/2022	15:56:53.516	4.38680156E+0	-2.51900000E+3	2.00000000E+0	-9.80603206E+0	7.16086800E+6
300	02/09/2022	15:56:54.984	7.09466114E-2	-2.51700000E+3	2.00000000E+0	-9.80603206E+0	7.16086800E+6
301	02/09/2022	15:56:56.388	4.09151026E+0	-2.51900000E+3	2.00000000E+0	-9.80603206E+0	7.16086800E+6
