#Iteration	Date	Time	STSX	STSY	RotationRateX	RotationRateY	FrCntX	FrCntY	TiptiltCmd1	TiptiltCmd2	TiptiltMonitor1	TiptiltMonitor2
1	02/09/2022	15:49:46.120	0.00000E+0	0.00000E+0	4.00000E+1	0.00000E+0	0.00000E+0	0.00000E+0	2.00000E+1	1.40000E+1	2.00011E+1	1.40015E+1
2	02/09/2022	15:49:47.506	0.00000E+0	0.00000E+0	4.00000E+1	0.00000E+0	0.00000E+0	0.00000E+0	2.00000E+1	1.40000E+1	1.99972E+1	1.39985E+1
3	02/09/2022	15:49:48.906	0.00000E+0	0.00000E+0	4.00000E+1	0.00000E+0	0.00000E+0	0.00000E+0	2.00000E+1	1.40000E+1	1.99982E+1	1.39975E+1
4	02/09/2022	15:49:50.442	0.00000E+0	0.00000E+0	4.00000E+1	0.00000E+0	0.00000E+0	0.00000E+0	2.00000E+1	1.40000E+1	2.00000E+1	1.39981E+1
5	02/09/2022	15:49:51.827	0.00000E+0	0.00000E+0	4.00000E+1	0.00000E+0	0.00000E+0	0.00000E+0	2.00000E+1	1.40000E+1	2.00011E+1	1.39996E+1
6	02/09/2022	15:49:53.218	0.00000E+0	0.00000E+0	4.00000E+1	0.00000E+0	0.00000E+0	0.00000E+0	2.00000E+1	1.40000E+1	2.00012E+1	1.39996E+1
7	02/09/2022	15:49:54.599	0.00000E+0	0.00000E+0	4.00000E+1	0.00000E+0	0.00000E+0	0.00000E+0	2.00000E+1	1.40000E+1	2.00012E+1	1.39998E+1
8	02/09/2022	15:49:55.985	0.00000E+0	0.00000E+0	4.00000E+1	0.00000E+0	0.00000E+0	0.00000E+0	2.00000E+1	1.40000E+1	2.00028E+1	1.40006E+1
9	02/09/2022	15:49:57.444	0.00000E+0	0.00000E+0	4.00000E+1	0.00000E+0	0.00000E+0	0.00000E+0	2.00000E+1	1.40000E+1	2.00014E+1	1.39994E+1
10	02/09/2022	15:49:58.849	0.00000E+0	0.00000E+0	4.00000E+1	0.00000E+0	0.00000E+0	0.00000E+0	2.00000E+1	1.40000E+1	1.99963E+1	1.40026E+1
11	02/09/2022	15:50:00.236	0.00000E+0	0.00000E+0	4.00000E+1	0.00000E+0	0.00000E+0	0.00000E+0	2.00000E+1	1.40000E+1	1.99995E+1	1.40003E+1
12	02/09/2022	15:50:01.813	0.00000E+0	0.00000E+0	4.00000E+1	0.00000E+0	0.00000E+0	0.00000E+0	2.00000E+1	1.40000E+1	1.99979E+1	1.40026E+1
13	02/09/2022	15:50:03.212	0.00000E+0	0.00000E+0	4.00000E+1	0.00000E+0	0.00000E+0	0.00000E+0	2.00000E+1	1.40000E+1	1.99978E+1	1.40022E+1
14	02/09/2022	15:50:04.752	0.00000E+0	0.00000E+0	4.00000E+1	0.00000E+0	0.00000E+0	0.00000E+0	2.00000E+1	1.40000E+1	2.00021E+1	1.40004E+1
15	02/09/2022	15:50:06.131	0.00000E+0	0.00000E+0	4.00000E+1	0.00000E+0	0.00000E+0	0.00000E+0	2.00000E+1	1.40000E+1	2.00026E+1	1.40016E+1
16	02/09/2022	15:50:07.508	0.00000E+0	0.00000E+0	4.00000E+1	0.00000E+0	0.00000E+0	0.00000E+0	2.00000E+1	1.40000E+1	1.99998E+1	1.40021E+1
17	02/09/2022	15:50:09.055	0.00000E+0	0.00000E+0	4.00000E+1	0.00000E+0	0.00000E+0	0.00000E+0	2.00000E+1	1.40000E+1	2.00046E+1	1.39988E+1
18	02/09/2022	15:50:10.469	0.00000E+0	0.00000E+0	4.00000E+1	0.00000E+0	0.00000E+0	0.00000E+0	2.00000E+1	1.40000E+1	2.00017E+1	1.39981E+1
19	02/09/2022	15:50:11.918	0.00000E+0	0.00000E+0	4.00000E+1	0.00000E+0	0.00000E+0	0.00000E+0	2.00000E+1	1.40000E+1	2.00019E+1	1.39983E+1
20	02/09/2022	15:50:13.432	0.00000E+0	0.00000E+0	4.00000E+1	0.00000E+0	0.00000E+0	0.00000E+0	2.00000E+1	1.40000E+1	2.00001E+1	1.40016E+1
21	02/09/2022	15:50:14.819	0.00000E+0	0.00000E+0	4.00000E+1	0.00000E+0	0.00000E+0	0.00000E+0	2.00000E+1	1.40000E+1	2.00000E+1	1.40000E+1
22	02/09/2022	15:50:16.253	0.00000E+0	0.00000E+0	4.00000E+1	0.00000E+0	0.00000E+0	0.00000E+0	2.00000E+1	1.40000E+1	2.00003E+1	1.40003E+1
23	02/09/2022	15:50:17.639	0.00000E+0	0.00000E+0	4.00000E+1	0.00000E+0	0.00000E+0	0.00000E+0	2.00000E+1	1.40000E+1	2.00005E+1	1.40010E+1
24	02/09/2022	15:50:19.029	0.00000E+0	0.00000E+0	4.00000E+1	0.00000E+0	0.00000E+0	0.00000E+0	2.00000E+1	1.40000E+1	1.99995E+1	1.40039E+1
25	02/09/2022	15:50:20.638	0.00000E+0	0.00000E+0	4.00000E+1	0.00000E+0	0.00000E+0	0.00000E+0	2.00000E+1	1.40000E+1	1.99993E+1	1.40025E+1
26	02/09/2022	15:50:22.046	0.00000E+0	0.00000E+0	4.00000E+1	0.00000E+0	0.00000E+0	0.00000E+0	2.00000E+1	1.40000E+1	2.00004E+1	1.39999E+1
27	02/09/2022	15:50:23.429	0.00000E+0	0.00000E+0	4.00000E+1	0.00000E+0	0.00000E+0	0.00000E+0	2.00000E+1	1.40000E+1	2.00017E+1	1.39995E+1
28	02/09/2022	15:50:24.826	0.00000E+0	0.00000E+0	4.00000E+1	0.00000E+0	0.00000E+0	0.00000E+0	2.00000E+1	1.40000E+1	1.99974E+1	1.40003E+1
29	02/09/2022	15:50:26.211	0.00000E+0	0.00000E+0	4.00000E+1	0.00000E+0	0.00000E+0	0.00000E+0	2.00000E+1	1.40000E+1	1.99977E+1	1.39984E+1
30	02/09/2022	15:50:27.724	0.00000E+0	0.00000E+0	4.00000E+1	0.00000E+0	0.00000E+0	0.00000E+0	2.00000E+1	1.40000E+1	1.99997E+1	1.40031E+1
31	02/09/2022	15:50:29.104	0.00000E+0	0.00000E+0	4.00000E+1	0.00000E+0	0.00000E+0	0.00000E+0	2.00000E+1	1.40000E+1	1.99991E+1	1.40023E+1
32	02/09/2022	15:50:30.622	0.00000E+0	0.00000E+0	4.00000E+1	0.00000E+0	0.00000E+0	0.00000E+0	2.00000E+1	1.40000E+1	2.00015E+1	1.39997E+1
33	02/09/2022	15:50:32.157	0.00000E+0	0.00000E+0	4.00000E+1	0.00000E+0	0.00000E+0	0.00000E+0	2.00000E+1	1.40000E+1	1.99996E+1	1.39991E+1
34	02/09/2022	15:50:33.534	0.00000E+0	0.00000E+0	4.00000E+1	0.00000E+0	0.00000E+0	0.00000E+0	2.00000E+1	1.40000E+1	1.99980E+1	1.39998E+1
35	02/09/2022	15:50:34.997	0.00000E+0	0.00000E+0	4.00000E+1	0.00000E+0	0.00000E+0	0.00000E+0	2.00000E+1	1.40000E+1	2.00019E+1	1.40019E+1
36	02/09/2022	15:50:36.392	0.00000E+0	0.00000E+0	4.00000E+1	0.00000E+0	0.00000E+0	0.00000E+0	2.00000E+1	1.40000E+1	1.99992E+1	1.39989E+1
37	02/09/2022	15:50:37.771	0.00000E+0	0.00000E+0	4.00000E+1	0.00000E+0	0.00000E+0	0.00000E+0	2.00000E+1	1.40000E+1	2.00019E+1	1.40010E+1
38	02/09/2022	15:50:39.300	0.00000E+0	0.00000E+0	4.00000E+1	0.00000E+0	0.00000E+0	0.00000E+0	2.00000E+1	1.40000E+1	1.99979E+1	1.39995E+1
39	02/09/2022	15:50:40.713	0.00000E+0	0.00000E+0	4.00000E+1	0.00000E+0	0.00000E+0	0.00000E+0	2.00000E+1	1.40000E+1	1.99991E+1	1.39987E+1
40	02/09/2022	15:50:42.096	0.00000E+0	0.00000E+0	4.00000E+1	0.00000E+0	0.00000E+0	0.00000E+0	2.00000E+1	1.40000E+1	1.99994E+1	1.39999E+1
41	02/09/2022	15:50:43.602	0.00000E+0	0.00000E+0	4.00000E+1	0.00000E+0	0.00000E+0	0.00000E+0	2.00000E+1	1.40000E+1	2.00000E+1	1.40016E+1
42	02/09/2022	15:50:44.991	0.00000E+0	0.00000E+0	4.00000E+1	0.00000E+0	0.00000E+0	0.00000E+0	2.00000E+1	1.40000E+1	2.00016E+1	1.40018E+1
43	02/09/2022	15:50:46.495	0.00000E+0	0.00000E+0	4.00000E+1	0.00000E+0	0.00000E+0	0.00000E+0	2.00000E+1	1.40000E+1	2.00002E+1	1.40014E+1
44	02/09/2022	15:50:47.885	0.00000E+0	0.00000E+0	4.00000E+1	0.00000E+0	0.00000E+0	0.00000E+0	2.00000E+1	1.40000E+1	1.99991E+1	1.39990E+1
45	02/09/2022	15:50:49.288	0.00000E+0	0.00000E+0	4.00000E+1	0.00000E+0	0.00000E+0	0.00000E+0	2.00000E+1	1.40000E+1	2.00004E+1	1.39980E+1
46	02/09/2022	15:50:50.775	0.00000E+0	0.00000E+0	4.00000E+1	0.00000E+0	0.00000E+0	0.00000E+0	2.00000E+1	1.40000E+1	1.99993E+1	1.39984E+1
47	02/09/2022	15:50:52.179	0.00000E+0	0.00000E+0	4.00000E+1	0.00000E+0	0.00000E+0	0.00000E+0	2.00000E+1	1.40000E+1	2.00036E+1	1.40006E+1
48	02/09/2022	15:50:53.688	0.00000E+0	0.00000E+0	4.00000E+1	0.00000E+0	0.00000E+0	0.00000E+0	2.00000E+1	1.40000E+1	2.00009E+1	1.39999E+1
49	02/09/2022	15:50:55.139	0.00000E+0	0.00000E+0	4.00000E+1	0.00000E+0	0.00000E+0	0.00000E+0	2.00000E+1	1.40000E+1	1.99988E+1	1.40027E+1
50	02/09/2022	15:50:56.510	0.00000E+0	0.00000E+0	4.00000E+1	0.00000E+0	0.00000E+0	0.00000E+0	2.00000E+1	1.40000E+1	2.00004E+1	1.39987E+1
51	02/09/2022	15:50:58.018	0.00000E+0	0.00000E+0	4.00000E+1	0.00000E+0	0.00000E+0	0.00000E+0	2.00000E+1	1.40000E+1	1.99988E+1	1.40015E+1
52	02/09/2022	15:50:59.393	0.00000E+0	0.00000E+0	4.00000E+1	0.00000E+0	0.00000E+0	0.00000E+0	2.00000E+1	1.40000E+1	2.00036E+1	1.40006E+1
53	02/09/2022	15:51:00.847	0.00000E+0	0.00000E+0	4.00000E+1	0.00000E+0	0.00000E+0	0.00000E+0	2.00000E+1	1.40000E+1	2.00002E+1	1.39993E+1
54	02/09/2022	15:51:02.329	0.00000E+0	0.00000E+0	4.00000E+1	0.00000E+0	0.00000E+0	0.00000E+0	2.00000E+1	1.40000E+1	2.00008E+1	1.39999E+1
55	02/09/2022	15:51:03.727	0.00000E+0	0.00000E+0	4.00000E+1	0.00000E+0	0.00000E+0	0.00000E+0	2.00000E+1	1.40000E+1	1.99988E+1	1.40006E+1
56	02/09/2022	15:51:05.175	0.00000E+0	0.00000E+0	4.00000E+1	0.00000E+0	0.00000E+0	0.00000E+0	2.00000E+1	1.40000E+1	2.00023E+1	1.40019E+1
57	02/09/2022	15:51:06.573	0.00000E+0	0.00000E+0	4.00000E+1	0.00000E+0	0.00000E+0	0.00000E+0	2.00000E+1	1.40000E+1	1.99986E+1	1.40010E+1
58	02/09/2022	15:51:07.947	0.00000E+0	0.00000E+0	4.00000E+1	0.00000E+0	0.00000E+0	0.00000E+0	2.00000E+1	1.40000E+1	2.00011E+1	1.39962E+1
59	02/09/2022	15:51:09.423	0.00000E+0	0.00000E+0	4.00000E+1	0.00000E+0	0.00000E+0	0.00000E+0	2.00000E+1	1.40000E+1	1.99999E+1	1.40012E+1
60	02/09/2022	15:51:10.815	0.00000E+0	0.00000E+0	4.00000E+1	0.00000E+0	0.00000E+0	0.00000E+0	2.00000E+1	1.40000E+1	1.99990E+1	1.40004E+1
61	02/09/2022	15:51:12.225	0.00000E+0	0.00000E+0	4.00000E+1	0.00000E+0	0.00000E+0	0.00000E+0	2.00000E+1	1.40000E+1	2.00001E+1	1.39978E+1
62	02/09/2022	15:51:13.571	0.00000E+0	0.00000E+0	4.00000E+1	0.00000E+0	0.00000E+0	0.00000E+0	2.00000E+1	1.40000E+1	1.99988E+1	1.39985E+1
63	02/09/2022	15:51:15.029	0.00000E+0	0.00000E+0	4.00000E+1	0.00000E+0	0.00000E+0	0.00000E+0	2.00000E+1	1.40000E+1	2.00002E+1	1.40000E+1
64	02/09/2022	15:51:16.531	0.00000E+0	0.00000E+0	4.00000E+1	0.00000E+0	0.00000E+0	0.00000E+0	2.00000E+1	1.40000E+1	2.00006E+1	1.40005E+1
65	02/09/2022	15:51:17.923	0.00000E+0	0.00000E+0	4.00000E+1	0.00000E+0	0.00000E+0	0.00000E+0	2.00000E+1	1.40000E+1	1.99997E+1	1.40014E+1
66	02/09/2022	15:51:19.371	0.00000E+0	0.00000E+0	4.00000E+1	0.00000E+0	0.00000E+0	0.00000E+0	2.00000E+1	1.40000E+1	2.00002E+1	1.39997E+1
67	02/09/2022	15:51:20.885	0.00000E+0	0.00000E+0	4.00000E+1	0.00000E+0	0.00000E+0	0.00000E+0	2.00000E+1	1.40000E+1	2.00001E+1	1.40016E+1
68	02/09/2022	15:51:22.278	0.00000E+0	0.00000E+0	4.00000E+1	0.00000E+0	0.00000E+0	0.00000E+0	2.00000E+1	1.40000E+1	1.99992E+1	1.40012E+1
69	02/09/2022	15:51:23.771	0.00000E+0	0.00000E+0	4.00000E+1	0.00000E+0	0.00000E+0	0.00000E+0	2.00000E+1	1.40000E+1	2.00011E+1	1.40005E+1
70	02/09/2022	15:51:25.194	0.00000E+0	0.00000E+0	4.00000E+1	0.00000E+0	0.00000E+0	0.00000E+0	2.00000E+1	1.40000E+1	2.00001E+1	1.40025E+1
71	02/09/2022	15:51:26.564	0.00000E+0	0.00000E+0	4.00000E+1	0.00000E+0	0.00000E+0	0.00000E+0	2.00000E+1	1.40000E+1	2.00034E+1	1.39995E+1
72	02/09/2022	15:51:28.065	0.00000E+0	0.00000E+0	4.00000E+1	0.00000E+0	0.00000E+0	0.00000E+0	2.00000E+1	1.40000E+1	2.00021E+1	1.39991E+1
73	02/09/2022	15:51:29.439	0.00000E+0	0.00000E+0	4.00000E+1	0.00000E+0	0.00000E+0	0.00000E+0	2.00000E+1	1.40000E+1	1.99986E+1	1.39969E+1
74	02/09/2022	15:51:30.912	0.00000E+0	0.00000E+0	4.00000E+1	0.00000E+0	0.00000E+0	0.00000E+0	2.00000E+1	1.40000E+1	1.99998E+1	1.39983E+1
75	02/09/2022	15:51:32.397	0.00000E+0	0.00000E+0	4.00000E+1	0.00000E+0	0.00000E+0	0.00000E+0	2.00000E+1	1.40000E+1	2.00009E+1	1.39989E+1
76	02/09/2022	15:51:33.793	0.00000E+0	0.00000E+0	4.00000E+1	0.00000E+0	0.00000E+0	0.00000E+0	2.00000E+1	1.40000E+1	1.99995E+1	1.40006E+1
77	02/09/2022	15:51:35.303	0.00000E+0	0.00000E+0	4.00000E+1	0.00000E+0	0.00000E+0	0.00000E+0	2.00000E+1	1.40000E+1	1.99999E+1	1.39999E+1
78	02/09/2022	15:51:36.735	0.00000E+0	0.00000E+0	4.00000E+1	0.00000E+0	0.00000E+0	0.00000E+0	2.00000E+1	1.40000E+1	2.00005E+1	1.39979E+1
79	02/09/2022	15:51:38.125	0.00000E+0	0.00000E+0	4.00000E+1	0.00000E+0	0.00000E+0	0.00000E+0	2.00000E+1	1.40000E+1	2.00010E+1	1.39980E+1
80	02/09/2022	15:51:39.628	0.00000E+0	0.00000E+0	4.00000E+1	0.00000E+0	0.00000E+0	0.00000E+0	2.00000E+1	1.40000E+1	1.99986E+1	1.39992E+1
81	02/09/2022	15:51:41.020	0.00000E+0	0.00000E+0	4.00000E+1	0.00000E+0	0.00000E+0	0.00000E+0	2.00000E+1	1.40000E+1	2.00001E+1	1.39990E+1
82	02/09/2022	15:51:42.411	0.00000E+0	0.00000E+0	4.00000E+1	0.00000E+0	0.00000E+0	0.00000E+0	2.00000E+1	1.40000E+1	2.00010E+1	1.40017E+1
83	02/09/2022	15:51:43.805	0.00000E+0	0.00000E+0	4.00000E+1	0.00000E+0	0.00000E+0	0.00000E+0	2.00000E+1	1.40000E+1	1.99996E+1	1.39995E+1
84	02/09/2022	15:51:45.199	0.00000E+0	0.00000E+0	4.00000E+1	0.00000E+0	0.00000E+0	0.00000E+0	2.00000E+1	1.40000E+1	1.99998E+1	1.40010E+1
85	02/09/2022	15:51:46.665	0.00000E+0	0.00000E+0	4.00000E+1	0.00000E+0	0.00000E+0	0.00000E+0	2.00000E+1	1.40000E+1	1.99996E+1	1.40008E+1
86	02/09/2022	15:51:48.057	0.00000E+0	0.00000E+0	4.00000E+1	0.00000E+0	0.00000E+0	0.00000E+0	2.00000E+1	1.40000E+1	2.00017E+1	1.40015E+1
87	02/09/2022	15:51:49.529	0.00000E+0	0.00000E+0	4.00000E+1	0.00000E+0	0.00000E+0	0.00000E+0	2.00000E+1	1.40000E+1	1.99989E+1	1.40017E+1
88	02/09/2022	15:51:51.027	0.00000E+0	0.00000E+0	4.00000E+1	0.00000E+0	0.00000E+0	0.00000E+0	2.00000E+1	1.40000E+1	2.00006E+1	1.39997E+1
89	02/09/2022	15:51:52.399	0.00000E+0	0.00000E+0	4.00000E+1	0.00000E+0	0.00000E+0	0.00000E+0	2.00000E+1	1.40000E+1	1.99999E+1	1.40014E+1
90	02/09/2022	15:51:53.908	0.00000E+0	0.00000E+0	4.00000E+1	0.00000E+0	0.00000E+0	0.00000E+0	2.00000E+1	1.40000E+1	1.99990E+1	1.39996E+1
91	02/09/2022	15:51:55.285	0.00000E+0	0.00000E+0	4.00000E+1	0.00000E+0	0.00000E+0	0.00000E+0	2.00000E+1	1.40000E+1	2.00005E+1	1.39997E+1
92	02/09/2022	15:51:56.681	0.00000E+0	0.00000E+0	4.00000E+1	0.00000E+0	0.00000E+0	0.00000E+0	2.00000E+1	1.40000E+1	2.00009E+1	1.40004E+1
93	02/09/2022	15:51:58.198	0.00000E+0	0.00000E+0	4.00000E+1	0.00000E+0	0.00000E+0	0.00000E+0	2.00000E+1	1.40000E+1	2.00008E+1	1.40007E+1
94	02/09/2022	15:51:59.590	0.00000E+0	0.00000E+0	4.00000E+1	0.00000E+0	0.00000E+0	0.00000E+0	2.00000E+1	1.40000E+1	2.00007E+1	1.40012E+1
95	02/09/2022	15:52:00.984	0.00000E+0	0.00000E+0	4.00000E+1	0.00000E+0	0.00000E+0	0.00000E+0	2.00000E+1	1.40000E+1	1.99983E+1	1.39984E+1
96	02/09/2022	15:52:02.488	0.00000E+0	0.00000E+0	4.00000E+1	0.00000E+0	0.00000E+0	0.00000E+0	2.00000E+1	1.40000E+1	2.00009E+1	1.40001E+1
97	02/09/2022	15:52:03.888	0.00000E+0	0.00000E+0	4.00000E+1	0.00000E+0	0.00000E+0	0.00000E+0	2.00000E+1	1.40000E+1	2.00012E+1	1.40011E+1
98	02/09/2022	15:52:05.371	0.00000E+0	0.00000E+0	4.00000E+1	0.00000E+0	0.00000E+0	0.00000E+0	2.00000E+1	1.40000E+1	2.00024E+1	1.40021E+1
99	02/09/2022	15:52:06.754	0.00000E+0	0.00000E+0	4.00000E+1	0.00000E+0	0.00000E+0	0.00000E+0	2.00000E+1	1.40000E+1	2.00015E+1	1.40002E+1
100	02/09/2022	15:52:08.150	0.00000E+0	0.00000E+0	4.00000E+1	0.00000E+0	0.00000E+0	0.00000E+0	2.00000E+1	1.40000E+1	1.99997E+1	1.40003E+1
101	02/09/2022	15:52:09.612	0.00000E+0	0.00000E+0	4.00000E+1	0.00000E+0	0.00000E+0	0.00000E+0	2.00000E+1	1.40000E+1	1.99969E+1	1.40021E+1
102	02/09/2022	15:52:11.005	0.00000E+0	0.00000E+0	4.00000E+1	0.00000E+0	0.00000E+0	0.00000E+0	2.00000E+1	1.40000E+1	1.99989E+1	1.40001E+1
103	02/09/2022	15:52:12.529	0.00000E+0	0.00000E+0	4.00000E+1	0.00000E+0	0.00000E+0	0.00000E+0	2.00000E+1	1.40000E+1	1.99999E+1	1.39980E+1
104	02/09/2022	15:52:13.932	0.00000E+0	0.00000E+0	4.00000E+1	0.00000E+0	0.00000E+0	0.00000E+0	2.00000E+1	1.40000E+1	2.00016E+1	1.39985E+1
105	02/09/2022	15:52:15.356	0.00000E+0	0.00000E+0	4.00000E+1	0.00000E+0	0.00000E+0	0.00000E+0	2.00000E+1	1.40000E+1	2.00024E+1	1.40000E+1
106	02/09/2022	15:52:16.872	0.00000E+0	0.00000E+0	4.00000E+1	0.00000E+0	0.00000E+0	0.00000E+0	2.00000E+1	1.40000E+1	1.99975E+1	1.40008E+1
107	02/09/2022	15:52:18.250	0.00000E+0	0.00000E+0	4.00000E+1	0.00000E+0	0.00000E+0	0.00000E+0	2.00000E+1	1.40000E+1	1.99992E+1	1.40004E+1
108	02/09/2022	15:52:19.699	0.00000E+0	0.00000E+0	4.00000E+1	0.00000E+0	0.00000E+0	0.00000E+0	2.00000E+1	1.40000E+1	1.99996E+1	1.40005E+1
109	02/09/2022	15:52:21.200	0.00000E+0	0.00000E+0	4.00000E+1	0.00000E+0	0.00000E+0	0.00000E+0	2.00000E+1	1.40000E+1	2.00023E+1	1.39996E+1
110	02/09/2022	15:52:22.605	0.00000E+0	0.00000E+0	4.00000E+1	0.00000E+0	0.00000E+0	0.00000E+0	2.00000E+1	1.40000E+1	2.00000E+1	1.40024E+1
111	02/09/2022	15:52:24.058	0.00000E+0	0.00000E+0	4.00000E+1	0.00000E+0	0.00000E+0	0.00000E+0	2.00000E+1	1.40000E+1	2.00021E+1	1.39995E+1
112	02/09/2022	15:52:25.428	0.00000E+0	0.00000E+0	4.00000E+1	0.00000E+0	0.00000E+0	0.00000E+0	2.00000E+1	1.40000E+1	2.00008E+1	1.39994E+1
113	02/09/2022	15:52:26.812	0.00000E+0	0.00000E+0	4.00000E+1	0.00000E+0	0.00000E+0	0.00000E+0	2.00000E+1	1.40000E+1	2.00004E+1	1.39992E+1
114	02/09/2022	15:52:28.361	0.00000E+0	0.00000E+0	4.00000E+1	0.00000E+0	0.00000E+0	0.00000E+0	2.00000E+1	1.40000E+1	1.99979E+1	1.40012E+1
115	02/09/2022	15:52:29.736	0.00000E+0	0.00000E+0	4.00000E+1	0.00000E+0	0.00000E+0	0.00000E+0	2.00000E+1	1.40000E+1	2.00029E+1	1.40009E+1
116	02/09/2022	15:52:31.131	0.00000E+0	0.00000E+0	4.00000E+1	0.00000E+0	0.00000E+0	0.00000E+0	2.00000E+1	1.40000E+1	2.00026E+1	1.39990E+1
117	02/09/2022	15:52:32.487	0.00000E+0	0.00000E+0	4.00000E+1	0.00000E+0	0.00000E+0	0.00000E+0	2.00000E+1	1.40000E+1	2.00019E+1	1.40013E+1
118	02/09/2022	15:52:33.896	0.00000E+0	0.00000E+0	4.00000E+1	0.00000E+0	0.00000E+0	0.00000E+0	2.00000E+1	1.40000E+1	1.99985E+1	1.39981E+1
119	02/09/2022	15:52:35.359	0.00000E+0	0.00000E+0	4.00000E+1	0.00000E+0	0.00000E+0	0.00000E+0	2.00000E+1	1.40000E+1	2.00018E+1	1.39989E+1
120	02/09/2022	15:52:36.754	0.00000E+0	0.00000E+0	4.00000E+1	0.00000E+0	0.00000E+0	0.00000E+0	2.00000E+1	1.40000E+1	2.00004E+1	1.40003E+1
121	02/09/2022	15:52:38.126	0.00000E+0	0.00000E+0	4.00000E+1	0.00000E+0	0.00000E+0	0.00000E+0	2.00000E+1	1.40000E+1	1.99993E+1	1.40009E+1
122	02/09/2022	15:52:39.693	0.00000E+0	0.00000E+0	4.00000E+1	0.00000E+0	0.00000E+0	0.00000E+0	2.00000E+1	1.40000E+1	1.99996E+1	1.39988E+1
123	02/09/2022	15:52:41.087	0.00000E+0	0.00000E+0	4.00000E+1	0.00000E+0	0.00000E+0	0.00000E+0	2.00000E+1	1.40000E+1	2.00006E+1	1.39987E+1
124	02/09/2022	15:52:42.592	0.00000E+0	0.00000E+0	4.00000E+1	0.00000E+0	0.00000E+0	0.00000E+0	2.00000E+1	1.40000E+1	1.99992E+1	1.40027E+1
125	02/09/2022	15:52:43.963	0.00000E+0	0.00000E+0	4.00000E+1	0.00000E+0	0.00000E+0	0.00000E+0	2.00000E+1	1.40000E+1	2.00016E+1	1.40014E+1
126	02/09/2022	15:52:45.353	0.00000E+0	0.00000E+0	4.00000E+1	0.00000E+0	0.00000E+0	0.00000E+0	2.00000E+1	1.40000E+1	2.00017E+1	1.40005E+1
127	02/09/2022	15:52:46.860	0.00000E+0	0.00000E+0	4.00000E+1	0.00000E+0	0.00000E+0	0.00000E+0	2.00000E+1	1.40000E+1	2.00003E+1	1.39990E+1
128	02/09/2022	15:52:48.238	0.00000E+0	0.00000E+0	4.00000E+1	0.00000E+0	0.00000E+0	0.00000E+0	2.00000E+1	1.40000E+1	1.99985E+1	1.40006E+1
129	02/09/2022	15:52:49.619	0.00000E+0	0.00000E+0	4.00000E+1	0.00000E+0	0.00000E+0	0.00000E+0	2.00000E+1	1.40000E+1	2.00023E+1	1.40012E+1
130	02/09/2022	15:52:51.136	0.00000E+0	0.00000E+0	4.00000E+1	0.00000E+0	0.00000E+0	0.00000E+0	2.00000E+1	1.40000E+1	2.00004E+1	1.40010E+1
131	02/09/2022	15:52:52.529	0.00000E+0	0.00000E+0	4.00000E+1	0.00000E+0	0.00000E+0	0.00000E+0	2.00000E+1	1.40000E+1	2.00004E+1	1.39985E+1
132	02/09/2022	15:52:54.068	0.00000E+0	0.00000E+0	4.00000E+1	0.00000E+0	0.00000E+0	0.00000E+0	2.00000E+1	1.40000E+1	1.99988E+1	1.40009E+1
133	02/09/2022	15:52:55.474	0.00000E+0	0.00000E+0	4.00000E+1	0.00000E+0	0.00000E+0	0.00000E+0	2.00000E+1	1.40000E+1	1.99985E+1	1.39999E+1
134	02/09/2022	15:52:56.844	0.00000E+0	0.00000E+0	4.00000E+1	0.00000E+0	0.00000E+0	0.00000E+0	2.00000E+1	1.40000E+1	2.00021E+1	1.40038E+1
135	02/09/2022	15:52:58.298	0.00000E+0	0.00000E+0	4.00000E+1	0.00000E+0	0.00000E+0	0.00000E+0	2.00000E+1	1.40000E+1	1.99986E+1	1.40004E+1
136	02/09/2022	15:52:59.674	0.00000E+0	0.00000E+0	4.00000E+1	0.00000E+0	0.00000E+0	0.00000E+0	2.00000E+1	1.40000E+1	1.99992E+1	1.40025E+1
137	02/09/2022	15:53:01.123	0.00000E+0	0.00000E+0	4.00000E+1	0.00000E+0	0.00000E+0	0.00000E+0	2.00000E+1	1.40000E+1	2.00004E+1	1.40006E+1
138	02/09/2022	15:53:02.459	0.00000E+0	0.00000E+0	4.00000E+1	0.00000E+0	0.00000E+0	0.00000E+0	2.00000E+1	1.40000E+1	1.99995E+1	1.39999E+1
139	02/09/2022	15:53:03.864	0.00000E+0	0.00000E+0	4.00000E+1	0.00000E+0	0.00000E+0	0.00000E+0	2.00000E+1	1.40000E+1	2.00009E+1	1.39983E+1
140	02/09/2022	15:53:05.406	0.00000E+0	0.00000E+0	4.00000E+1	0.00000E+0	0.00000E+0	0.00000E+0	2.00000E+1	1.40000E+1	2.00007E+1	1.40000E+1
141	02/09/2022	15:53:06.795	0.00000E+0	0.00000E+0	4.00000E+1	0.00000E+0	0.00000E+0	0.00000E+0	2.00000E+1	1.40000E+1	2.00024E+1	1.40015E+1
142	02/09/2022	15:53:08.204	0.00000E+0	0.00000E+0	4.00000E+1	0.00000E+0	0.00000E+0	0.00000E+0	2.00000E+1	1.40000E+1	1.99985E+1	1.40004E+1
143	02/09/2022	15:53:09.694	0.00000E+0	0.00000E+0	4.00000E+1	0.00000E+0	0.00000E+0	0.00000E+0	2.00000E+1	1.40000E+1	2.00021E+1	1.40009E+1
144	02/09/2022	15:53:11.061	0.00000E+0	0.00000E+0	4.00000E+1	0.00000E+0	0.00000E+0	0.00000E+0	2.00000E+1	1.40000E+1	2.00006E+1	1.40005E+1
145	02/09/2022	15:53:12.569	0.00000E+0	0.00000E+0	4.00000E+1	0.00000E+0	0.00000E+0	0.00000E+0	2.00000E+1	1.40000E+1	1.99988E+1	1.40012E+1
146	02/09/2022	15:53:13.970	0.00000E+0	0.00000E+0	4.00000E+1	0.00000E+0	0.00000E+0	0.00000E+0	2.00000E+1	1.40000E+1	2.00003E+1	1.39997E+1
147	02/09/2022	15:53:15.359	0.00000E+0	0.00000E+0	4.00000E+1	0.00000E+0	0.00000E+0	0.00000E+0	2.00000E+1	1.40000E+1	1.99993E+1	1.40005E+1
148	02/09/2022	15:53:16.860	0.00000E+0	0.00000E+0	4.00000E+1	0.00000E+0	0.00000E+0	0.00000E+0	2.00000E+1	1.40000E+1	2.00001E+1	1.39992E+1
149	02/09/2022	15:53:18.245	0.00000E+0	0.00000E+0	4.00000E+1	0.00000E+0	0.00000E+0	0.00000E+0	2.00000E+1	1.40000E+1	2.00002E+1	1.40016E+1
150	02/09/2022	15:53:19.636	0.00000E+0	0.00000E+0	4.00000E+1	0.00000E+0	0.00000E+0	0.00000E+0	2.00000E+1	1.40000E+1	2.00003E+1	1.39996E+1
151	02/09/2022	15:53:21.133	0.00000E+0	0.00000E+0	4.00000E+1	0.00000E+0	0.00000E+0	0.00000E+0	2.00000E+1	1.40000E+1	2.00015E+1	1.40019E+1
152	02/09/2022	15:53:22.516	0.00000E+0	0.00000E+0	4.00000E+1	0.00000E+0	0.00000E+0	0.00000E+0	2.00000E+1	1.40000E+1	2.00004E+1	1.39973E+1
153	02/09/2022	15:53:24.022	0.00000E+0	0.00000E+0	4.00000E+1	0.00000E+0	0.00000E+0	0.00000E+0	2.00000E+1	1.40000E+1	2.00003E+1	1.39994E+1
154	02/09/2022	15:53:25.441	0.00000E+0	0.00000E+0	4.00000E+1	0.00000E+0	0.00000E+0	0.00000E+0	2.00000E+1	1.40000E+1	1.99997E+1	1.40000E+1
155	02/09/2022	15:53:26.840	0.00000E+0	0.00000E+0	4.00000E+1	0.00000E+0	0.00000E+0	0.00000E+0	2.00000E+1	1.40000E+1	2.00005E+1	1.40010E+1
156	02/09/2022	15:53:28.349	0.00000E+0	0.00000E+0	4.00000E+1	0.00000E+0	0.00000E+0	0.00000E+0	2.00000E+1	1.40000E+1	1.99975E+1	1.39989E+1
157	02/09/2022	15:53:29.735	0.00000E+0	0.00000E+0	4.00000E+1	0.00000E+0	0.00000E+0	0.00000E+0	2.00000E+1	1.40000E+1	2.00016E+1	1.40006E+1
158	02/09/2022	15:53:31.228	0.00000E+0	0.00000E+0	4.00000E+1	0.00000E+0	0.00000E+0	0.00000E+0	2.00000E+1	1.40000E+1	1.99995E+1	1.40008E+1
159	02/09/2022	15:53:32.638	0.00000E+0	0.00000E+0	4.00000E+1	0.00000E+0	0.00000E+0	0.00000E+0	2.00000E+1	1.40000E+1	1.99994E+1	1.40002E+1
160	02/09/2022	15:53:34.027	0.00000E+0	0.00000E+0	4.00000E+1	0.00000E+0	0.00000E+0	0.00000E+0	2.00000E+1	1.40000E+1	2.00000E+1	1.39977E+1
161	02/09/2022	15:53:35.480	0.00000E+0	0.00000E+0	4.00000E+1	0.00000E+0	0.00000E+0	0.00000E+0	2.00000E+1	1.40000E+1	2.00012E+1	1.39989E+1
162	02/09/2022	15:53:36.879	0.00000E+0	0.00000E+0	4.00000E+1	0.00000E+0	0.00000E+0	0.00000E+0	2.00000E+1	1.40000E+1	1.99992E+1	1.39990E+1
163	02/09/2022	15:53:38.294	0.00000E+0	0.00000E+0	4.00000E+1	0.00000E+0	0.00000E+0	0.00000E+0	2.00000E+1	1.40000E+1	1.99996E+1	1.40019E+1
164	02/09/2022	15:53:39.778	0.00000E+0	0.00000E+0	4.00000E+1	0.00000E+0	0.00000E+0	0.00000E+0	2.00000E+1	1.40000E+1	1.99993E+1	1.40022E+1
165	02/09/2022	15:53:41.206	0.00000E+0	0.00000E+0	4.00000E+1	0.00000E+0	0.00000E+0	0.00000E+0	2.00000E+1	1.40000E+1	2.00006E+1	1.40014E+1
166	02/09/2022	15:53:42.631	0.00000E+0	0.00000E+0	4.00000E+1	0.00000E+0	0.00000E+0	0.00000E+0	2.00000E+1	1.40000E+1	1.99993E+1	1.40003E+1
167	02/09/2022	15:53:44.015	0.00000E+0	0.00000E+0	4.00000E+1	0.00000E+0	0.00000E+0	0.00000E+0	2.00000E+1	1.40000E+1	1.99996E+1	1.40008E+1
168	02/09/2022	15:53:45.411	0.00000E+0	0.00000E+0	4.00000E+1	0.00000E+0	0.00000E+0	0.00000E+0	2.00000E+1	1.40000E+1	2.00006E+1	1.40036E+1
169	02/09/2022	15:53:46.864	0.00000E+0	0.00000E+0	4.00000E+1	0.00000E+0	0.00000E+0	0.00000E+0	2.00000E+1	1.40000E+1	1.99992E+1	1.40024E+1
170	02/09/2022	15:53:48.253	0.00000E+0	0.00000E+0	4.00000E+1	0.00000E+0	0.00000E+0	0.00000E+0	2.00000E+1	1.40000E+1	1.99991E+1	1.39992E+1
171	02/09/2022	15:53:49.705	0.00000E+0	0.00000E+0	4.00000E+1	0.00000E+0	0.00000E+0	0.00000E+0	2.00000E+1	1.40000E+1	2.00011E+1	1.40004E+1
172	02/09/2022	15:53:51.171	0.00000E+0	0.00000E+0	4.00000E+1	0.00000E+0	0.00000E+0	0.00000E+0	2.00000E+1	1.40000E+1	2.00009E+1	1.40002E+1
173	02/09/2022	15:53:52.537	0.00000E+0	0.00000E+0	4.00000E+1	0.00000E+0	0.00000E+0	0.00000E+0	2.00000E+1	1.40000E+1	1.99993E+1	1.39981E+1
174	02/09/2022	15:53:54.059	0.00000E+0	0.00000E+0	4.00000E+1	0.00000E+0	0.00000E+0	0.00000E+0	2.00000E+1	1.40000E+1	2.00001E+1	1.40026E+1
175	02/09/2022	15:53:55.447	0.00000E+0	0.00000E+0	4.00000E+1	0.00000E+0	0.00000E+0	0.00000E+0	2.00000E+1	1.40000E+1	2.00001E+1	1.40008E+1
176	02/09/2022	15:53:56.898	0.00000E+0	0.00000E+0	4.00000E+1	0.00000E+0	0.00000E+0	0.00000E+0	2.00000E+1	1.40000E+1	1.99990E+1	1.40008E+1
177	02/09/2022	15:53:58.393	0.00000E+0	0.00000E+0	4.00000E+1	0.00000E+0	0.00000E+0	0.00000E+0	2.00000E+1	1.40000E+1	2.00005E+1	1.39983E+1
178	02/09/2022	15:53:59.791	0.00000E+0	0.00000E+0	4.00000E+1	0.00000E+0	0.00000E+0	0.00000E+0	2.00000E+1	1.40000E+1	1.99975E+1	1.39989E+1
179	02/09/2022	15:54:01.258	0.00000E+0	0.00000E+0	4.00000E+1	0.00000E+0	0.00000E+0	0.00000E+0	2.00000E+1	1.40000E+1	2.00008E+1	1.39998E+1
180	02/09/2022	15:54:02.689	0.00000E+0	0.00000E+0	4.00000E+1	0.00000E+0	0.00000E+0	0.00000E+0	2.00000E+1	1.40000E+1	2.00003E+1	1.39991E+1
181	02/09/2022	15:54:04.061	0.00000E+0	0.00000E+0	4.00000E+1	0.00000E+0	0.00000E+0	0.00000E+0	2.00000E+1	1.40000E+1	2.00001E+1	1.39996E+1
182	02/09/2022	15:54:05.535	0.00000E+0	0.00000E+0	4.00000E+1	0.00000E+0	0.00000E+0	0.00000E+0	2.00000E+1	1.40000E+1	1.99990E+1	1.40003E+1
183	02/09/2022	15:54:06.925	0.00000E+0	0.00000E+0	4.00000E+1	0.00000E+0	0.00000E+0	0.00000E+0	2.00000E+1	1.40000E+1	1.99982E+1	1.40014E+1
184	02/09/2022	15:54:08.356	0.00000E+0	0.00000E+0	4.00000E+1	0.00000E+0	0.00000E+0	0.00000E+0	2.00000E+1	1.40000E+1	1.99978E+1	1.39999E+1
185	02/09/2022	15:54:09.842	0.00000E+0	0.00000E+0	4.00000E+1	0.00000E+0	0.00000E+0	0.00000E+0	2.00000E+1	1.40000E+1	1.99978E+1	1.40005E+1
186	02/09/2022	15:54:11.241	0.00000E+0	0.00000E+0	4.00000E+1	0.00000E+0	0.00000E+0	0.00000E+0	2.00000E+1	1.40000E+1	1.99999E+1	1.40005E+1
187	02/09/2022	15:54:12.719	0.00000E+0	0.00000E+0	4.00000E+1	0.00000E+0	0.00000E+0	0.00000E+0	2.00000E+1	1.40000E+1	2.00003E+1	1.40006E+1
188	02/09/2022	15:54:14.109	0.00000E+0	0.00000E+0	4.00000E+1	0.00000E+0	0.00000E+0	0.00000E+0	2.00000E+1	1.40000E+1	2.00001E+1	1.40016E+1
189	02/09/2022	15:54:15.511	0.00000E+0	0.00000E+0	4.00000E+1	0.00000E+0	0.00000E+0	0.00000E+0	2.00000E+1	1.40000E+1	2.00018E+1	1.39968E+1
190	02/09/2022	15:54:17.016	0.00000E+0	0.00000E+0	4.00000E+1	0.00000E+0	0.00000E+0	0.00000E+0	2.00000E+1	1.40000E+1	2.00004E+1	1.40026E+1
191	02/09/2022	15:54:18.402	0.00000E+0	0.00000E+0	4.00000E+1	0.00000E+0	0.00000E+0	0.00000E+0	2.00000E+1	1.40000E+1	2.00010E+1	1.40004E+1
192	02/09/2022	15:54:19.844	0.00000E+0	0.00000E+0	4.00000E+1	0.00000E+0	0.00000E+0	0.00000E+0	2.00000E+1	1.40000E+1	2.00014E+1	1.39991E+1
193	02/09/2022	15:54:21.263	0.00000E+0	0.00000E+0	4.00000E+1	0.00000E+0	0.00000E+0	0.00000E+0	2.00000E+1	1.40000E+1	1.99997E+1	1.39994E+1
194	02/09/2022	15:54:22.651	0.00000E+0	0.00000E+0	4.00000E+1	0.00000E+0	0.00000E+0	0.00000E+0	2.00000E+1	1.40000E+1	1.99972E+1	1.39998E+1
195	02/09/2022	15:54:24.114	0.00000E+0	0.00000E+0	4.00000E+1	0.00000E+0	0.00000E+0	0.00000E+0	2.00000E+1	1.40000E+1	2.00006E+1	1.40008E+1
196	02/09/2022	15:54:25.516	0.00000E+0	0.00000E+0	4.00000E+1	0.00000E+0	0.00000E+0	0.00000E+0	2.00000E+1	1.40000E+1	2.00021E+1	1.40016E+1
197	02/09/2022	15:54:26.924	0.00000E+0	0.00000E+0	4.00000E+1	0.00000E+0	0.00000E+0	0.00000E+0	2.00000E+1	1.40000E+1	1.99983E+1	1.40002E+1
198	02/09/2022	15:54:28.458	0.00000E+0	0.00000E+0	4.00000E+1	0.00000E+0	0.00000E+0	0.00000E+0	2.00000E+1	1.40000E+1	2.00001E+1	1.39993E+1
199	02/09/2022	15:54:29.823	0.00000E+0	0.00000E+0	4.00000E+1	0.00000E+0	0.00000E+0	0.00000E+0	2.00000E+1	1.40000E+1	2.00009E+1	1.40004E+1
200	02/09/2022	15:54:31.366	0.00000E+0	0.00000E+0	4.00000E+1	0.00000E+0	0.00000E+0	0.00000E+0	2.00000E+1	1.40000E+1	2.00007E+1	1.40000E+1
201	02/09/2022	15:54:32.768	0.00000E+0	0.00000E+0	4.00000E+1	0.00000E+0	0.00000E+0	0.00000E+0	2.00000E+1	1.40000E+1	2.00000E+1	1.40008E+1
202	02/09/2022	15:54:34.176	0.00000E+0	0.00000E+0	4.00000E+1	0.00000E+0	0.00000E+0	0.00000E+0	2.00000E+1	1.40000E+1	1.99996E+1	1.40013E+1
203	02/09/2022	15:54:35.632	0.00000E+0	0.00000E+0	4.00000E+1	0.00000E+0	0.00000E+0	0.00000E+0	2.00000E+1	1.40000E+1	2.00005E+1	1.39995E+1
204	02/09/2022	15:54:37.026	0.00000E+0	0.00000E+0	4.00000E+1	0.00000E+0	0.00000E+0	0.00000E+0	2.00000E+1	1.40000E+1	1.99987E+1	1.40001E+1
205	02/09/2022	15:54:38.477	0.00000E+0	0.00000E+0	4.00000E+1	0.00000E+0	0.00000E+0	0.00000E+0	2.00000E+1	1.40000E+1	2.00014E+1	1.39999E+1
206	02/09/2022	15:54:39.987	0.00000E+0	0.00000E+0	4.00000E+1	0.00000E+0	0.00000E+0	0.00000E+0	2.00000E+1	1.40000E+1	1.99999E+1	1.39990E+1
207	02/09/2022	15:54:41.352	0.00000E+0	0.00000E+0	4.00000E+1	0.00000E+0	0.00000E+0	0.00000E+0	2.00000E+1	1.40000E+1	1.99978E+1	1.39980E+1
208	02/09/2022	15:54:42.894	0.00000E+0	0.00000E+0	4.00000E+1	0.00000E+0	0.00000E+0	0.00000E+0	2.00000E+1	1.40000E+1	1.99973E+1	1.39997E+1
209	02/09/2022	15:54:44.288	0.00000E+0	0.00000E+0	4.00000E+1	0.00000E+0	0.00000E+0	0.00000E+0	2.00000E+1	1.40000E+1	2.00001E+1	1.39981E+1
210	02/09/2022	15:54:45.677	0.00000E+0	0.00000E+0	4.00000E+1	0.00000E+0	0.00000E+0	0.00000E+0	2.00000E+1	1.40000E+1	1.99997E+1	1.40010E+1
211	02/09/2022	15:54:47.184	0.00000E+0	0.00000E+0	4.00000E+1	0.00000E+0	0.00000E+0	0.00000E+0	2.00000E+1	1.40000E+1	1.99988E+1	1.39982E+1
212	02/09/2022	15:54:48.575	0.00000E+0	0.00000E+0	4.00000E+1	0.00000E+0	0.00000E+0	0.00000E+0	2.00000E+1	1.40000E+1	2.00014E+1	1.40023E+1
213	02/09/2022	15:54:49.963	0.00000E+0	0.00000E+0	4.00000E+1	0.00000E+0	0.00000E+0	0.00000E+0	2.00000E+1	1.40000E+1	2.00006E+1	1.39998E+1
214	02/09/2022	15:54:51.488	0.00000E+0	0.00000E+0	4.00000E+1	0.00000E+0	0.00000E+0	0.00000E+0	2.00000E+1	1.40000E+1	2.00003E+1	1.39990E+1
215	02/09/2022	15:54:52.857	0.00000E+0	0.00000E+0	4.00000E+1	0.00000E+0	0.00000E+0	0.00000E+0	2.00000E+1	1.40000E+1	2.00010E+1	1.39991E+1
216	02/09/2022	15:54:54.384	0.00000E+0	0.00000E+0	4.00000E+1	0.00000E+0	0.00000E+0	0.00000E+0	2.00000E+1	1.40000E+1	2.00011E+1	1.39997E+1
217	02/09/2022	15:54:55.759	0.00000E+0	0.00000E+0	4.00000E+1	0.00000E+0	0.00000E+0	0.00000E+0	2.00000E+1	1.40000E+1	2.00013E+1	1.39998E+1
218	02/09/2022	15:54:57.154	0.00000E+0	0.00000E+0	4.00000E+1	0.00000E+0	0.00000E+0	0.00000E+0	2.00000E+1	1.40000E+1	1.99979E+1	1.40001E+1
219	02/09/2022	15:54:58.661	0.00000E+0	0.00000E+0	4.00000E+1	0.00000E+0	0.00000E+0	0.00000E+0	2.00000E+1	1.40000E+1	1.99992E+1	1.40011E+1
220	02/09/2022	15:55:00.036	0.00000E+0	0.00000E+0	4.00000E+1	0.00000E+0	0.00000E+0	0.00000E+0	2.00000E+1	1.40000E+1	2.00009E+1	1.40003E+1
221	02/09/2022	15:55:01.623	0.00000E+0	0.00000E+0	4.00000E+1	0.00000E+0	0.00000E+0	0.00000E+0	2.00000E+1	1.40000E+1	2.00001E+1	1.39993E+1
222	02/09/2022	15:55:03.013	0.00000E+0	0.00000E+0	4.00000E+1	0.00000E+0	0.00000E+0	0.00000E+0	2.00000E+1	1.40000E+1	2.00009E+1	1.40011E+1
223	02/09/2022	15:55:04.392	0.00000E+0	0.00000E+0	4.00000E+1	0.00000E+0	0.00000E+0	0.00000E+0	2.00000E+1	1.40000E+1	2.00010E+1	1.39991E+1
224	02/09/2022	15:55:05.873	0.00000E+0	0.00000E+0	4.00000E+1	0.00000E+0	0.00000E+0	0.00000E+0	2.00000E+1	1.40000E+1	1.99984E+1	1.39992E+1
225	02/09/2022	15:55:07.263	0.00000E+0	0.00000E+0	4.00000E+1	0.00000E+0	0.00000E+0	0.00000E+0	2.00000E+1	1.40000E+1	1.99998E+1	1.40015E+1
226	02/09/2022	15:55:08.705	0.00000E+0	0.00000E+0	4.00000E+1	0.00000E+0	0.00000E+0	0.00000E+0	2.00000E+1	1.40000E+1	1.99991E+1	1.40012E+1
227	02/09/2022	15:55:10.053	0.00000E+0	0.00000E+0	4.00000E+1	0.00000E+0	0.00000E+0	0.00000E+0	2.00000E+1	1.40000E+1	1.99971E+1	1.39998E+1
228	02/09/2022	15:55:11.425	0.00000E+0	0.00000E+0	4.00000E+1	0.00000E+0	0.00000E+0	0.00000E+0	2.00000E+1	1.40000E+1	2.00014E+1	1.40030E+1
229	02/09/2022	15:55:12.911	0.00000E+0	0.00000E+0	4.00000E+1	0.00000E+0	0.00000E+0	0.00000E+0	2.00000E+1	1.40000E+1	2.00004E+1	1.40018E+1
230	02/09/2022	15:55:14.303	0.00000E+0	0.00000E+0	4.00000E+1	0.00000E+0	0.00000E+0	0.00000E+0	2.00000E+1	1.40000E+1	1.99991E+1	1.39993E+1
231	02/09/2022	15:55:15.690	0.00000E+0	0.00000E+0	4.00000E+1	0.00000E+0	0.00000E+0	0.00000E+0	2.00000E+1	1.40000E+1	1.99982E+1	1.39974E+1
232	02/09/2022	15:55:17.264	0.00000E+0	0.00000E+0	4.00000E+1	0.00000E+0	0.00000E+0	0.00000E+0	2.00000E+1	1.40000E+1	2.00005E+1	1.40015E+1
233	02/09/2022	15:55:18.681	0.00000E+0	0.00000E+0	4.00000E+1	0.00000E+0	0.00000E+0	0.00000E+0	2.00000E+1	1.40000E+1	1.99995E+1	1.39978E+1
234	02/09/2022	15:55:20.112	0.00000E+0	0.00000E+0	4.00000E+1	0.00000E+0	0.00000E+0	0.00000E+0	2.00000E+1	1.40000E+1	2.00006E+1	1.39998E+1
235	02/09/2022	15:55:21.529	0.00000E+0	0.00000E+0	4.00000E+1	0.00000E+0	0.00000E+0	0.00000E+0	2.00000E+1	1.40000E+1	1.99973E+1	1.39981E+1
236	02/09/2022	15:55:22.910	0.00000E+0	0.00000E+0	4.00000E+1	0.00000E+0	0.00000E+0	0.00000E+0	2.00000E+1	1.40000E+1	2.00004E+1	1.40007E+1
237	02/09/2022	15:55:24.437	0.00000E+0	0.00000E+0	4.00000E+1	0.00000E+0	0.00000E+0	0.00000E+0	2.00000E+1	1.40000E+1	2.00008E+1	1.40006E+1
238	02/09/2022	15:55:25.845	0.00000E+0	0.00000E+0	4.00000E+1	0.00000E+0	0.00000E+0	0.00000E+0	2.00000E+1	1.40000E+1	2.00028E+1	1.39996E+1
239	02/09/2022	15:55:27.300	0.00000E+0	0.00000E+0	4.00000E+1	0.00000E+0	0.00000E+0	0.00000E+0	2.00000E+1	1.40000E+1	1.99993E+1	1.39995E+1
240	02/09/2022	15:55:28.801	0.00000E+0	0.00000E+0	4.00000E+1	0.00000E+0	0.00000E+0	0.00000E+0	2.00000E+1	1.40000E+1	2.00013E+1	1.40023E+1
241	02/09/2022	15:55:30.194	0.00000E+0	0.00000E+0	4.00000E+1	0.00000E+0	0.00000E+0	0.00000E+0	2.00000E+1	1.40000E+1	1.99985E+1	1.40017E+1
242	02/09/2022	15:55:31.681	0.00000E+0	0.00000E+0	4.00000E+1	0.00000E+0	0.00000E+0	0.00000E+0	2.00000E+1	1.40000E+1	1.99991E+1	1.39998E+1
243	02/09/2022	15:55:33.067	0.00000E+0	0.00000E+0	4.00000E+1	0.00000E+0	0.00000E+0	0.00000E+0	2.00000E+1	1.40000E+1	1.99995E+1	1.39991E+1
244	02/09/2022	15:55:34.445	0.00000E+0	0.00000E+0	4.00000E+1	0.00000E+0	0.00000E+0	0.00000E+0	2.00000E+1	1.40000E+1	2.00009E+1	1.39967E+1
245	02/09/2022	15:55:35.921	0.00000E+0	0.00000E+0	4.00000E+1	0.00000E+0	0.00000E+0	0.00000E+0	2.00000E+1	1.40000E+1	2.00004E+1	1.39994E+1
246	02/09/2022	15:55:37.308	0.00000E+0	0.00000E+0	4.00000E+1	0.00000E+0	0.00000E+0	0.00000E+0	2.00000E+1	1.40000E+1	1.99986E+1	1.39998E+1
247	02/09/2022	15:55:38.692	0.00000E+0	0.00000E+0	4.00000E+1	0.00000E+0	0.00000E+0	0.00000E+0	2.00000E+1	1.40000E+1	1.99994E+1	1.40008E+1
248	02/09/2022	15:55:40.142	0.00000E+0	0.00000E+0	4.00000E+1	0.00000E+0	0.00000E+0	0.00000E+0	2.00000E+1	1.40000E+1	2.00001E+1	1.39992E+1
249	02/09/2022	15:55:41.515	0.00000E+0	0.00000E+0	4.00000E+1	0.00000E+0	0.00000E+0	0.00000E+0	2.00000E+1	1.40000E+1	1.99995E+1	1.39985E+1
250	02/09/2022	15:55:43.036	0.00000E+0	0.00000E+0	4.00000E+1	0.00000E+0	0.00000E+0	0.00000E+0	2.00000E+1	1.40000E+1	1.99997E+1	1.40005E+1
251	02/09/2022	15:55:44.422	0.00000E+0	0.00000E+0	4.00000E+1	0.00000E+0	0.00000E+0	0.00000E+0	2.00000E+1	1.40000E+1	2.00023E+1	1.39994E+1
252	02/09/2022	15:55:45.823	0.00000E+0	0.00000E+0	4.00000E+1	0.00000E+0	0.00000E+0	0.00000E+0	2.00000E+1	1.40000E+1	1.99988E+1	1.40003E+1
253	02/09/2022	15:55:47.345	0.00000E+0	0.00000E+0	4.00000E+1	0.00000E+0	0.00000E+0	0.00000E+0	2.00000E+1	1.40000E+1	2.00006E+1	1.39997E+1
254	02/09/2022	15:55:48.759	0.00000E+0	0.00000E+0	4.00000E+1	0.00000E+0	0.00000E+0	0.00000E+0	2.00000E+1	1.40000E+1	2.00012E+1	1.39996E+1
255	02/09/2022	15:55:50.218	0.00000E+0	0.00000E+0	4.00000E+1	0.00000E+0	0.00000E+0	0.00000E+0	2.00000E+1	1.40000E+1	1.99998E+1	1.39988E+1
256	02/09/2022	15:55:51.609	0.00000E+0	0.00000E+0	4.00000E+1	0.00000E+0	0.00000E+0	0.00000E+0	2.00000E+1	1.40000E+1	1.99974E+1	1.39990E+1
257	02/09/2022	15:55:52.989	0.00000E+0	0.00000E+0	4.00000E+1	0.00000E+0	0.00000E+0	0.00000E+0	2.00000E+1	1.40000E+1	1.99972E+1	1.40021E+1
258	02/09/2022	15:55:54.469	0.00000E+0	0.00000E+0	4.00000E+1	0.00000E+0	0.00000E+0	0.00000E+0	2.00000E+1	1.40000E+1	1.99991E+1	1.40005E+1
259	02/09/2022	15:55:55.856	0.00000E+0	0.00000E+0	4.00000E+1	0.00000E+0	0.00000E+0	0.00000E+0	2.00000E+1	1.40000E+1	2.00008E+1	1.39991E+1
260	02/09/2022	15:55:57.239	0.00000E+0	0.00000E+0	4.00000E+1	0.00000E+0	0.00000E+0	0.00000E+0	2.00000E+1	1.40000E+1	1.99988E+1	1.40010E+1
261	02/09/2022	15:55:58.743	0.00000E+0	0.00000E+0	4.00000E+1	0.00000E+0	0.00000E+0	0.00000E+0	2.00000E+1	1.40000E+1	2.00001E+1	1.40023E+1
262	02/09/2022	15:56:00.125	0.00000E+0	0.00000E+0	4.00000E+1	0.00000E+0	0.00000E+0	0.00000E+0	2.00000E+1	1.40000E+1	2.00007E+1	1.40003E+1
263	02/09/2022	15:56:01.625	0.00000E+0	0.00000E+0	4.00000E+1	0.00000E+0	0.00000E+0	0.00000E+0	2.00000E+1	1.40000E+1	2.00017E+1	1.40004E+1
264	02/09/2022	15:56:03.020	0.00000E+0	0.00000E+0	4.00000E+1	0.00000E+0	0.00000E+0	0.00000E+0	2.00000E+1	1.40000E+1	2.00005E+1	1.39996E+1
265	02/09/2022	15:56:04.403	0.00000E+0	0.00000E+0	4.00000E+1	0.00000E+0	0.00000E+0	0.00000E+0	2.00000E+1	1.40000E+1	1.99982E+1	1.39986E+1
266	02/09/2022	15:56:05.872	0.00000E+0	0.00000E+0	4.00000E+1	0.00000E+0	0.00000E+0	0.00000E+0	2.00000E+1	1.40000E+1	2.00004E+1	1.40006E+1
267	02/09/2022	15:56:07.255	0.00000E+0	0.00000E+0	4.00000E+1	0.00000E+0	0.00000E+0	0.00000E+0	2.00000E+1	1.40000E+1	1.99995E+1	1.40000E+1
268	02/09/2022	15:56:08.776	0.00000E+0	0.00000E+0	4.00000E+1	0.00000E+0	0.00000E+0	0.00000E+0	2.00000E+1	1.40000E+1	1.99987E+1	1.40007E+1
269	02/09/2022	15:56:10.239	0.00000E+0	0.00000E+0	4.00000E+1	0.00000E+0	0.00000E+0	0.00000E+0	2.00000E+1	1.40000E+1	2.00012E+1	1.40009E+1
270	02/09/2022	15:56:11.606	0.00000E+0	0.00000E+0	4.00000E+1	0.00000E+0	0.00000E+0	0.00000E+0	2.00000E+1	1.40000E+1	1.99992E+1	1.39977E+1
271	02/09/2022	15:56:13.133	0.00000E+0	0.00000E+0	4.00000E+1	0.00000E+0	0.00000E+0	0.00000E+0	2.00000E+1	1.40000E+1	1.99990E+1	1.40002E+1
272	02/09/2022	15:56:14.529	0.00000E+0	0.00000E+0	4.00000E+1	0.00000E+0	0.00000E+0	0.00000E+0	2.00000E+1	1.40000E+1	1.99996E+1	1.40006E+1
273	02/09/2022	15:56:16.001	0.00000E+0	0.00000E+0	4.00000E+1	0.00000E+0	0.00000E+0	0.00000E+0	2.00000E+1	1.40000E+1	1.99996E+1	1.40017E+1
274	02/09/2022	15:56:17.507	0.00000E+0	0.00000E+0	4.00000E+1	0.00000E+0	0.00000E+0	0.00000E+0	2.00000E+1	1.40000E+1	1.99982E+1	1.40005E+1
275	02/09/2022	15:56:18.904	0.00000E+0	0.00000E+0	4.00000E+1	0.00000E+0	0.00000E+0	0.00000E+0	2.00000E+1	1.40000E+1	1.99989E+1	1.39999E+1
276	02/09/2022	15:56:20.325	0.00000E+0	0.00000E+0	4.00000E+1	0.00000E+0	0.00000E+0	0.00000E+0	2.00000E+1	1.40000E+1	1.99991E+1	1.39989E+1
277	02/09/2022	15:56:21.716	0.00000E+0	0.00000E+0	4.00000E+1	0.00000E+0	0.00000E+0	0.00000E+0	2.00000E+1	1.40000E+1	2.00020E+1	1.39975E+1
278	02/09/2022	15:56:23.104	0.00000E+0	0.00000E+0	4.00000E+1	0.00000E+0	0.00000E+0	0.00000E+0	2.00000E+1	1.40000E+1	2.00006E+1	1.39997E+1
279	02/09/2022	15:56:24.606	0.00000E+0	0.00000E+0	4.00000E+1	0.00000E+0	0.00000E+0	0.00000E+0	2.00000E+1	1.40000E+1	2.00027E+1	1.40018E+1
280	02/09/2022	15:56:25.999	0.00000E+0	0.00000E+0	4.00000E+1	0.00000E+0	0.00000E+0	0.00000E+0	2.00000E+1	1.40000E+1	1.99967E+1	1.39996E+1
281	02/09/2022	15:56:27.471	0.00000E+0	0.00000E+0	4.00000E+1	0.00000E+0	0.00000E+0	0.00000E+0	2.00000E+1	1.40000E+1	1.99972E+1	1.39987E+1
282	02/09/2022	15:56:28.857	0.00000E+0	0.00000E+0	4.00000E+1	0.00000E+0	0.00000E+0	0.00000E+0	2.00000E+1	1.40000E+1	1.99996E+1	1.39980E+1
283	02/09/2022	15:56:30.250	0.00000E+0	0.00000E+0	4.00000E+1	0.00000E+0	0.00000E+0	0.00000E+0	2.00000E+1	1.40000E+1	1.99989E+1	1.39984E+1
284	02/09/2022	15:56:31.753	0.00000E+0	0.00000E+0	4.00000E+1	0.00000E+0	0.00000E+0	0.00000E+0	2.00000E+1	1.40000E+1	2.00002E+1	1.40000E+1
285	02/09/2022	15:56:33.159	0.00000E+0	0.00000E+0	4.00000E+1	0.00000E+0	0.00000E+0	0.00000E+0	2.00000E+1	1.40000E+1	2.00017E+1	1.39994E+1
286	02/09/2022	15:56:34.613	0.00000E+0	0.00000E+0	4.00000E+1	0.00000E+0	0.00000E+0	0.00000E+0	2.00000E+1	1.40000E+1	2.00006E+1	1.40014E+1
287	02/09/2022	15:56:36.257	0.00000E+0	0.00000E+0	4.00000E+1	0.00000E+0	0.00000E+0	0.00000E+0	2.00000E+1	1.40000E+1	2.00000E+1	1.39971E+1
288	02/09/2022	15:56:37.659	0.00000E+0	0.00000E+0	4.00000E+1	0.00000E+0	0.00000E+0	0.00000E+0	2.00000E+1	1.40000E+1	2.00003E+1	1.39998E+1
289	02/09/2022	15:56:39.169	0.00000E+0	0.00000E+0	4.00000E+1	0.00000E+0	0.00000E+0	0.00000E+0	2.00000E+1	1.40000E+1	1.99972E+1	1.40003E+1
290	02/09/2022	15:56:40.583	0.00000E+0	0.00000E+0	4.00000E+1	0.00000E+0	0.00000E+0	0.00000E+0	2.00000E+1	1.40000E+1	1.99998E+1	1.39989E+1
291	02/09/2022	15:56:41.959	0.00000E+0	0.00000E+0	4.00000E+1	0.00000E+0	0.00000E+0	0.00000E+0	2.00000E+1	1.40000E+1	2.00008E+1	1.40012E+1
292	02/09/2022	15:56:43.503	0.00000E+0	0.00000E+0	4.00000E+1	0.00000E+0	0.00000E+0	0.00000E+0	2.00000E+1	1.40000E+1	1.99997E+1	1.40003E+1
293	02/09/2022	15:56:44.922	0.00000E+0	0.00000E+0	4.00000E+1	0.00000E+0	0.00000E+0	0.00000E+0	2.00000E+1	1.40000E+1	2.00005E+1	1.40008E+1
294	02/09/2022	15:56:46.360	0.00000E+0	0.00000E+0	4.00000E+1	0.00000E+0	0.00000E+0	0.00000E+0	2.00000E+1	1.40000E+1	2.00013E+1	1.40016E+1
295	02/09/2022	15:56:47.872	0.00000E+0	0.00000E+0	4.00000E+1	0.00000E+0	0.00000E+0	0.00000E+0	2.00000E+1	1.40000E+1	2.00000E+1	1.40013E+1
296	02/09/2022	15:56:49.253	0.00000E+0	0.00000E+0	4.00000E+1	0.00000E+0	0.00000E+0	0.00000E+0	2.00000E+1	1.40000E+1	1.99983E+1	1.39985E+1
297	02/09/2022	15:56:50.768	0.00000E+0	0.00000E+0	4.00000E+1	0.00000E+0	0.00000E+0	0.00000E+0	2.00000E+1	1.40000E+1	1.99958E+1	1.39993E+1
298	02/09/2022	15:56:52.149	0.00000E+0	0.00000E+0	4.00000E+1	0.00000E+0	0.00000E+0	0.00000E+0	2.00000E+1	1.40000E+1	2.00007E+1	1.39995E+1
299	02/09/2022	15:56:53.516	0.00000E+0	0.00000E+0	4.00000E+1	0.00000E+0	0.00000E+0	0.00000E+0	2.00000E+1	1.40000E+1	2.00005E+1	1.40005E+1
300	02/09/2022	15:56:54.984	0.00000E+0	0.00000E+0	4.00000E+1	0.00000E+0	0.00000E+0	0.00000E+0	2.00000E+1	1.40000E+1	1.99975E+1	1.40029E+1
301	02/09/2022	15:56:56.388	0.00000E+0	0.00000E+0	4.00000E+1	0.00000E+0	0.00000E+0	0.00000E+0	2.00000E+1	1.40000E+1	1.99982E+1	1.39996E+1
