#Iteration	Date	Time	Chirp	Phase	RamanAxis	RatioMean	RatioStdDev
1	02/09/2022	15:49:46.120	0.00000000E+0	-3.14159265E+1	5.00000000E+0	4.55803009E-1	0.00000000E+0
2	02/09/2022	15:49:47.506	0.00000000E+0	-3.12065382E+1	5.00000000E+0	4.55276787E-1	0.00000000E+0
3	02/09/2022	15:49:48.906	0.00000000E+0	-3.09971498E+1	5.00000000E+0	4.54293002E-1	0.00000000E+0
4	02/09/2022	15:49:50.442	0.00000000E+0	-3.07877614E+1	5.00000000E+0	4.55980230E-1	0.00000000E+0
5	02/09/2022	15:49:51.827	0.00000000E+0	-3.05779895E+1	5.00000000E+0	4.66310745E-1	0.00000000E+0
6	02/09/2022	15:49:53.218	0.00000000E+0	-3.03686012E+1	5.00000000E+0	4.62180659E-1	0.00000000E+0
7	02/09/2022	15:49:54.599	0.00000000E+0	-3.01592128E+1	5.00000000E+0	4.63528362E-1	0.00000000E+0
8	02/09/2022	15:49:55.985	0.00000000E+0	-2.99498244E+1	5.00000000E+0	4.61065634E-1	0.00000000E+0
9	02/09/2022	15:49:57.444	0.00000000E+0	-2.97404360E+1	5.00000000E+0	4.63723883E-1	0.00000000E+0
10	02/09/2022	15:49:58.849	0.00000000E+0	-2.95310476E+1	5.00000000E+0	4.65473255E-1	0.00000000E+0
11	02/09/2022	15:50:00.236	0.00000000E+0	-2.93216593E+1	5.00000000E+0	4.54846227E-1	0.00000000E+0
12	02/09/2022	15:50:01.813	0.00000000E+0	-2.91122709E+1	5.00000000E+0	4.65488845E-1	0.00000000E+0
13	02/09/2022	15:50:03.212	0.00000000E+0	-2.89024990E+1	5.00000000E+0	4.63955213E-1	0.00000000E+0
14	02/09/2022	15:50:04.752	0.00000000E+0	-2.86931106E+1	5.00000000E+0	4.58710230E-1	0.00000000E+0
15	02/09/2022	15:50:06.131	0.00000000E+0	-2.84837223E+1	5.00000000E+0	4.57505051E-1	0.00000000E+0
16	02/09/2022	15:50:07.508	0.00000000E+0	-2.82743339E+1	5.00000000E+0	4.57474832E-1	0.00000000E+0
17	02/09/2022	15:50:09.055	0.00000000E+0	-2.80649455E+1	5.00000000E+0	4.52679128E-1	0.00000000E+0
18	02/09/2022	15:50:10.469	0.00000000E+0	-2.78555571E+1	5.00000000E+0	4.51498048E-1	0.00000000E+0
19	02/09/2022	15:50:11.918	0.00000000E+0	-2.76461687E+1	5.00000000E+0	4.49563870E-1	0.00000000E+0
20	02/09/2022	15:50:13.432	0.00000000E+0	-2.74363969E+1	5.00000000E+0	4.44021609E-1	0.00000000E+0
21	02/09/2022	15:50:14.819	0.00000000E+0	-2.72270085E+1	5.00000000E+0	4.40349729E-1	0.00000000E+0
22	02/09/2022	15:50:16.253	0.00000000E+0	-2.70176201E+1	5.00000000E+0	4.42359111E-1	0.00000000E+0
23	02/09/2022	15:50:17.639	0.00000000E+0	-2.68082317E+1	5.00000000E+0	4.43833230E-1	0.00000000E+0
24	02/09/2022	15:50:19.029	0.00000000E+0	-2.65988434E+1	5.00000000E+0	4.47428244E-1	0.00000000E+0
25	02/09/2022	15:50:20.638	0.00000000E+0	-2.63894550E+1	5.00000000E+0	4.46247455E-1	0.00000000E+0
26	02/09/2022	15:50:22.046	0.00000000E+0	-2.61800666E+1	5.00000000E+0	4.39924801E-1	0.00000000E+0
27	02/09/2022	15:50:23.429	0.00000000E+0	-2.59706782E+1	5.00000000E+0	4.42591402E-1	0.00000000E+0
28	02/09/2022	15:50:24.826	0.00000000E+0	-2.57609064E+1	5.00000000E+0	4.43564641E-1	0.00000000E+0
29	02/09/2022	15:50:26.211	0.00000000E+0	-2.55515180E+1	5.00000000E+0	4.43981096E-1	0.00000000E+0
30	02/09/2022	15:50:27.724	0.00000000E+0	-2.53421296E+1	5.00000000E+0	4.55412466E-1	0.00000000E+0
31	02/09/2022	15:50:29.104	0.00000000E+0	-2.51327412E+1	5.00000000E+0	4.42910110E-1	0.00000000E+0
32	02/09/2022	15:50:30.622	0.00000000E+0	-2.49233529E+1	5.00000000E+0	4.54625578E-1	0.00000000E+0
33	02/09/2022	15:50:32.157	0.00000000E+0	-2.47139645E+1	5.00000000E+0	4.51922408E-1	0.00000000E+0
34	02/09/2022	15:50:33.534	0.00000000E+0	-2.45045761E+1	5.00000000E+0	4.54887670E-1	0.00000000E+0
35	02/09/2022	15:50:34.997	0.00000000E+0	-2.42948042E+1	5.00000000E+0	4.62122584E-1	0.00000000E+0
36	02/09/2022	15:50:36.392	0.00000000E+0	-2.40854158E+1	5.00000000E+0	4.59692992E-1	0.00000000E+0
37	02/09/2022	15:50:37.771	0.00000000E+0	-2.38760275E+1	5.00000000E+0	4.67187017E-1	0.00000000E+0
38	02/09/2022	15:50:39.300	0.00000000E+0	-2.36666391E+1	5.00000000E+0	4.71586023E-1	0.00000000E+0
39	02/09/2022	15:50:40.713	0.00000000E+0	-2.34572507E+1	5.00000000E+0	4.64812151E-1	0.00000000E+0
40	02/09/2022	15:50:42.096	0.00000000E+0	-2.32478623E+1	5.00000000E+0	4.60786290E-1	0.00000000E+0
41	02/09/2022	15:50:43.602	0.00000000E+0	-2.30384740E+1	5.00000000E+0	4.57689351E-1	0.00000000E+0
42	02/09/2022	15:50:44.991	0.00000000E+0	-2.28290856E+1	5.00000000E+0	4.64379786E-1	0.00000000E+0
43	02/09/2022	15:50:46.495	0.00000000E+0	-2.26193137E+1	5.00000000E+0	4.61478581E-1	0.00000000E+0
44	02/09/2022	15:50:47.885	0.00000000E+0	-2.24099253E+1	5.00000000E+0	4.57880498E-1	0.00000000E+0
45	02/09/2022	15:50:49.288	0.00000000E+0	-2.22005370E+1	5.00000000E+0	4.62082137E-1	0.00000000E+0
46	02/09/2022	15:50:50.775	0.00000000E+0	-2.19911486E+1	5.00000000E+0	4.50710655E-1	0.00000000E+0
47	02/09/2022	15:50:52.179	0.00000000E+0	-2.17817602E+1	5.00000000E+0	4.54866169E-1	0.00000000E+0
48	02/09/2022	15:50:53.688	0.00000000E+0	-2.15723718E+1	5.00000000E+0	4.50253877E-1	0.00000000E+0
49	02/09/2022	15:50:55.139	0.00000000E+0	-2.13629834E+1	5.00000000E+0	4.46823834E-1	0.00000000E+0
50	02/09/2022	15:50:56.510	0.00000000E+0	-2.11532116E+1	5.00000000E+0	4.48111870E-1	0.00000000E+0
51	02/09/2022	15:50:58.018	0.00000000E+0	-2.09438232E+1	5.00000000E+0	4.44264313E-1	0.00000000E+0
52	02/09/2022	15:50:59.393	0.00000000E+0	-2.07344348E+1	5.00000000E+0	4.40310028E-1	0.00000000E+0
53	02/09/2022	15:51:00.847	0.00000000E+0	-2.05250464E+1	5.00000000E+0	4.39308231E-1	0.00000000E+0
54	02/09/2022	15:51:02.329	0.00000000E+0	-2.03156581E+1	5.00000000E+0	4.39284678E-1	0.00000000E+0
55	02/09/2022	15:51:03.727	0.00000000E+0	-2.01062697E+1	5.00000000E+0	4.41309761E-1	0.00000000E+0
56	02/09/2022	15:51:05.175	0.00000000E+0	-1.98968813E+1	5.00000000E+0	4.38419440E-1	0.00000000E+0
57	02/09/2022	15:51:06.573	0.00000000E+0	-1.96874929E+1	5.00000000E+0	4.42052373E-1	0.00000000E+0
58	02/09/2022	15:51:07.947	0.00000000E+0	-1.94777211E+1	5.00000000E+0	4.39563884E-1	0.00000000E+0
59	02/09/2022	15:51:09.423	0.00000000E+0	-1.92683327E+1	5.00000000E+0	4.45184271E-1	0.00000000E+0
60	02/09/2022	15:51:10.815	0.00000000E+0	-1.90589443E+1	5.00000000E+0	4.45803158E-1	0.00000000E+0
61	02/09/2022	15:51:12.225	0.00000000E+0	-1.88495559E+1	5.00000000E+0	4.50531460E-1	0.00000000E+0
62	02/09/2022	15:51:13.571	0.00000000E+0	-1.86401675E+1	5.00000000E+0	4.55978710E-1	0.00000000E+0
63	02/09/2022	15:51:15.029	0.00000000E+0	-1.84307792E+1	5.00000000E+0	4.59683954E-1	0.00000000E+0
64	02/09/2022	15:51:16.531	0.00000000E+0	-1.82213908E+1	5.00000000E+0	4.59385185E-1	0.00000000E+0
65	02/09/2022	15:51:17.923	0.00000000E+0	-1.80116189E+1	5.00000000E+0	4.62840527E-1	0.00000000E+0
66	02/09/2022	15:51:19.371	0.00000000E+0	-1.78022305E+1	5.00000000E+0	4.56337030E-1	0.00000000E+0
67	02/09/2022	15:51:20.885	0.00000000E+0	-1.75928422E+1	5.00000000E+0	4.63607516E-1	0.00000000E+0
68	02/09/2022	15:51:22.278	0.00000000E+0	-1.73834538E+1	5.00000000E+0	4.64097484E-1	0.00000000E+0
69	02/09/2022	15:51:23.771	0.00000000E+0	-1.71740654E+1	5.00000000E+0	4.66047179E-1	0.00000000E+0
70	02/09/2022	15:51:25.194	0.00000000E+0	-1.69646770E+1	5.00000000E+0	4.70319688E-1	0.00000000E+0
71	02/09/2022	15:51:26.564	0.00000000E+0	-1.67552887E+1	5.00000000E+0	4.62800497E-1	0.00000000E+0
72	02/09/2022	15:51:28.065	0.00000000E+0	-1.65459003E+1	5.00000000E+0	4.56831837E-1	0.00000000E+0
73	02/09/2022	15:51:29.439	0.00000000E+0	-1.63361284E+1	5.00000000E+0	4.61753718E-1	0.00000000E+0
74	02/09/2022	15:51:30.912	0.00000000E+0	-1.61267400E+1	5.00000000E+0	4.58202951E-1	0.00000000E+0
75	02/09/2022	15:51:32.397	0.00000000E+0	-1.59173516E+1	5.00000000E+0	4.56669091E-1	0.00000000E+0
76	02/09/2022	15:51:33.793	0.00000000E+0	-1.57079633E+1	5.00000000E+0	4.50224980E-1	0.00000000E+0
77	02/09/2022	15:51:35.303	0.00000000E+0	-1.54985749E+1	5.00000000E+0	4.47543369E-1	0.00000000E+0
78	02/09/2022	15:51:36.735	0.00000000E+0	-1.52891865E+1	5.00000000E+0	4.53130610E-1	0.00000000E+0
79	02/09/2022	15:51:38.125	0.00000000E+0	-1.50797981E+1	5.00000000E+0	4.43626113E-1	0.00000000E+0
80	02/09/2022	15:51:39.628	0.00000000E+0	-1.48700263E+1	5.00000000E+0	4.44265265E-1	0.00000000E+0
81	02/09/2022	15:51:41.020	0.00000000E+0	-1.46606379E+1	5.00000000E+0	4.50439895E-1	0.00000000E+0
82	02/09/2022	15:51:42.411	0.00000000E+0	-1.44512495E+1	5.00000000E+0	4.47103266E-1	0.00000000E+0
83	02/09/2022	15:51:43.805	0.00000000E+0	-1.42418611E+1	5.00000000E+0	4.39580678E-1	0.00000000E+0
84	02/09/2022	15:51:45.199	0.00000000E+0	-1.40324728E+1	5.00000000E+0	4.40348050E-1	0.00000000E+0
85	02/09/2022	15:51:46.665	0.00000000E+0	-1.38230844E+1	5.00000000E+0	4.40732199E-1	0.00000000E+0
86	02/09/2022	15:51:48.057	0.00000000E+0	-1.36136960E+1	5.00000000E+0	4.41118582E-1	0.00000000E+0
87	02/09/2022	15:51:49.529	0.00000000E+0	-1.34043076E+1	5.00000000E+0	4.41498595E-1	0.00000000E+0
88	02/09/2022	15:51:51.027	0.00000000E+0	-1.31945357E+1	5.00000000E+0	4.47372463E-1	0.00000000E+0
89	02/09/2022	15:51:52.399	0.00000000E+0	-1.29851474E+1	5.00000000E+0	4.41643848E-1	0.00000000E+0
90	02/09/2022	15:51:53.908	0.00000000E+0	-1.27757590E+1	5.00000000E+0	4.46704329E-1	0.00000000E+0
91	02/09/2022	15:51:55.285	0.00000000E+0	-1.25663706E+1	5.00000000E+0	4.49670825E-1	0.00000000E+0
92	02/09/2022	15:51:56.681	0.00000000E+0	-1.23569822E+1	5.00000000E+0	4.57045901E-1	0.00000000E+0
93	02/09/2022	15:51:58.198	0.00000000E+0	-1.21475939E+1	5.00000000E+0	4.51849076E-1	0.00000000E+0
94	02/09/2022	15:51:59.590	0.00000000E+0	-1.19382055E+1	5.00000000E+0	4.55116150E-1	0.00000000E+0
95	02/09/2022	15:52:00.984	0.00000000E+0	-1.17284336E+1	5.00000000E+0	4.63071392E-1	0.00000000E+0
96	02/09/2022	15:52:02.488	0.00000000E+0	-1.15190452E+1	5.00000000E+0	4.63681229E-1	0.00000000E+0
97	02/09/2022	15:52:03.888	0.00000000E+0	-1.13096569E+1	5.00000000E+0	4.63868303E-1	0.00000000E+0
98	02/09/2022	15:52:05.371	0.00000000E+0	-1.11002685E+1	5.00000000E+0	4.69588954E-1	0.00000000E+0
99	02/09/2022	15:52:06.754	0.00000000E+0	-1.08908801E+1	5.00000000E+0	4.69525622E-1	0.00000000E+0
100	02/09/2022	15:52:08.150	0.00000000E+0	-1.06814917E+1	5.00000000E+0	4.58912255E-1	0.00000000E+0
101	02/09/2022	15:52:09.612	0.00000000E+0	-1.04721033E+1	5.00000000E+0	4.61694047E-1	0.00000000E+0
102	02/09/2022	15:52:11.005	0.00000000E+0	-1.02627150E+1	5.00000000E+0	4.63810260E-1	0.00000000E+0
103	02/09/2022	15:52:12.529	0.00000000E+0	-1.00529431E+1	5.00000000E+0	4.67566989E-1	0.00000000E+0
104	02/09/2022	15:52:13.932	0.00000000E+0	-9.84355472E+0	5.00000000E+0	4.58032411E-1	0.00000000E+0
105	02/09/2022	15:52:15.356	0.00000000E+0	-9.63416634E+0	5.00000000E+0	4.63351903E-1	0.00000000E+0
106	02/09/2022	15:52:16.872	0.00000000E+0	-9.42477796E+0	5.00000000E+0	4.59093024E-1	0.00000000E+0
107	02/09/2022	15:52:18.250	0.00000000E+0	-9.21538958E+0	5.00000000E+0	4.58728808E-1	0.00000000E+0
108	02/09/2022	15:52:19.699	0.00000000E+0	-9.00600121E+0	5.00000000E+0	4.59710439E-1	0.00000000E+0
109	02/09/2022	15:52:21.200	0.00000000E+0	-8.79661283E+0	5.00000000E+0	4.46650911E-1	0.00000000E+0
110	02/09/2022	15:52:22.605	0.00000000E+0	-8.58684096E+0	5.00000000E+0	4.46772523E-1	0.00000000E+0
111	02/09/2022	15:52:24.058	0.00000000E+0	-8.37745258E+0	5.00000000E+0	4.37459962E-1	0.00000000E+0
112	02/09/2022	15:52:25.428	0.00000000E+0	-8.16806420E+0	5.00000000E+0	4.39817731E-1	0.00000000E+0
113	02/09/2022	15:52:26.812	0.00000000E+0	-7.95867582E+0	5.00000000E+0	4.38163309E-1	0.00000000E+0
114	02/09/2022	15:52:28.361	0.00000000E+0	-7.74928745E+0	5.00000000E+0	4.39184666E-1	0.00000000E+0
115	02/09/2022	15:52:29.736	0.00000000E+0	-7.53989907E+0	5.00000000E+0	4.43238302E-1	0.00000000E+0
116	02/09/2022	15:52:31.131	0.00000000E+0	-7.33051069E+0	5.00000000E+0	4.36676702E-1	0.00000000E+0
117	02/09/2022	15:52:32.487	0.00000000E+0	-7.12112231E+0	5.00000000E+0	4.41347600E-1	0.00000000E+0
118	02/09/2022	15:52:33.896	0.00000000E+0	-6.91135044E+0	5.00000000E+0	4.46055640E-1	0.00000000E+0
119	02/09/2022	15:52:35.359	0.00000000E+0	-6.70196206E+0	5.00000000E+0	4.52806889E-1	0.00000000E+0
120	02/09/2022	15:52:36.754	0.00000000E+0	-6.49257368E+0	5.00000000E+0	4.45226453E-1	0.00000000E+0
121	02/09/2022	15:52:38.126	0.00000000E+0	-6.28318531E+0	5.00000000E+0	4.46200683E-1	0.00000000E+0
122	02/09/2022	15:52:39.693	0.00000000E+0	-6.07379693E+0	5.00000000E+0	4.57353984E-1	0.00000000E+0
123	02/09/2022	15:52:41.087	0.00000000E+0	-5.86440855E+0	5.00000000E+0	4.58423564E-1	0.00000000E+0
124	02/09/2022	15:52:42.592	0.00000000E+0	-5.65502017E+0	5.00000000E+0	4.59734220E-1	0.00000000E+0
125	02/09/2022	15:52:43.963	0.00000000E+0	-5.44524830E+0	5.00000000E+0	4.59659766E-1	0.00000000E+0
126	02/09/2022	15:52:45.353	0.00000000E+0	-5.23585992E+0	5.00000000E+0	4.62010784E-1	0.00000000E+0
127	02/09/2022	15:52:46.860	0.00000000E+0	-5.02647155E+0	5.00000000E+0	4.60763178E-1	0.00000000E+0
128	02/09/2022	15:52:48.238	0.00000000E+0	-4.81708317E+0	5.00000000E+0	4.63145291E-1	0.00000000E+0
129	02/09/2022	15:52:49.619	0.00000000E+0	-4.60769479E+0	5.00000000E+0	4.60013860E-1	0.00000000E+0
130	02/09/2022	15:52:51.136	0.00000000E+0	-4.39830641E+0	5.00000000E+0	4.58438027E-1	0.00000000E+0
131	02/09/2022	15:52:52.529	0.00000000E+0	-4.18891804E+0	5.00000000E+0	4.63716785E-1	0.00000000E+0
132	02/09/2022	15:52:54.068	0.00000000E+0	-3.97952966E+0	5.00000000E+0	4.64506634E-1	0.00000000E+0
133	02/09/2022	15:52:55.474	0.00000000E+0	-3.76975779E+0	5.00000000E+0	4.59542011E-1	0.00000000E+0
134	02/09/2022	15:52:56.844	0.00000000E+0	-3.56036941E+0	5.00000000E+0	4.64362957E-1	0.00000000E+0
135	02/09/2022	15:52:58.298	0.00000000E+0	-3.35098103E+0	5.00000000E+0	4.57356209E-1	0.00000000E+0
136	02/09/2022	15:52:59.674	0.00000000E+0	-3.14159265E+0	5.00000000E+0	4.56905435E-1	0.00000000E+0
137	02/09/2022	15:53:01.123	0.00000000E+0	-2.93220428E+0	5.00000000E+0	4.48605245E-1	0.00000000E+0
138	02/09/2022	15:53:02.459	0.00000000E+0	-2.72281590E+0	5.00000000E+0	4.50732801E-1	0.00000000E+0
139	02/09/2022	15:53:03.864	0.00000000E+0	-2.51342752E+0	5.00000000E+0	4.50096017E-1	0.00000000E+0
140	02/09/2022	15:53:05.406	0.00000000E+0	-2.30365565E+0	5.00000000E+0	4.47176903E-1	0.00000000E+0
141	02/09/2022	15:53:06.795	0.00000000E+0	-2.09426727E+0	5.00000000E+0	4.42343145E-1	0.00000000E+0
142	02/09/2022	15:53:08.204	0.00000000E+0	-1.88487889E+0	5.00000000E+0	4.39517133E-1	0.00000000E+0
143	02/09/2022	15:53:09.694	0.00000000E+0	-1.67549052E+0	5.00000000E+0	4.43468684E-1	0.00000000E+0
144	02/09/2022	15:53:11.061	0.00000000E+0	-1.46610214E+0	5.00000000E+0	4.38758418E-1	0.00000000E+0
145	02/09/2022	15:53:12.569	0.00000000E+0	-1.25671376E+0	5.00000000E+0	4.41476392E-1	0.00000000E+0
146	02/09/2022	15:53:13.970	0.00000000E+0	-1.04732538E+0	5.00000000E+0	4.44325613E-1	0.00000000E+0
147	02/09/2022	15:53:15.359	0.00000000E+0	-8.37937005E-1	5.00000000E+0	4.44172676E-1	0.00000000E+0
148	02/09/2022	15:53:16.860	0.00000000E+0	-6.28165133E-1	5.00000000E+0	4.45536423E-1	0.00000000E+0
149	02/09/2022	15:53:18.245	0.00000000E+0	-4.18776755E-1	5.00000000E+0	4.50073983E-1	0.00000000E+0
150	02/09/2022	15:53:19.636	0.00000000E+0	-2.09388378E-1	5.00000000E+0	4.50324199E-1	0.00000000E+0
151	02/09/2022	15:53:21.133	0.00000000E+0	0.00000000E+0	5.00000000E+0	4.51875923E-1	0.00000000E+0
152	02/09/2022	15:53:22.516	0.00000000E+0	2.09388378E-1	5.00000000E+0	4.52291226E-1	0.00000000E+0
153	02/09/2022	15:53:24.022	0.00000000E+0	4.18776755E-1	5.00000000E+0	4.48716464E-1	0.00000000E+0
154	02/09/2022	15:53:25.441	0.00000000E+0	6.28165133E-1	5.00000000E+0	4.51697600E-1	0.00000000E+0
155	02/09/2022	15:53:26.840	0.00000000E+0	8.37937005E-1	5.00000000E+0	4.62495659E-1	0.00000000E+0
156	02/09/2022	15:53:28.349	0.00000000E+0	1.04732538E+0	5.00000000E+0	4.63147298E-1	0.00000000E+0
157	02/09/2022	15:53:29.735	0.00000000E+0	1.25671376E+0	5.00000000E+0	4.63725347E-1	0.00000000E+0
158	02/09/2022	15:53:31.228	0.00000000E+0	1.46610214E+0	5.00000000E+0	4.66685966E-1	0.00000000E+0
159	02/09/2022	15:53:32.638	0.00000000E+0	1.67549052E+0	5.00000000E+0	4.67448468E-1	0.00000000E+0
160	02/09/2022	15:53:34.027	0.00000000E+0	1.88487889E+0	5.00000000E+0	4.64667174E-1	0.00000000E+0
161	02/09/2022	15:53:35.480	0.00000000E+0	2.09426727E+0	5.00000000E+0	4.61225721E-1	0.00000000E+0
162	02/09/2022	15:53:36.879	0.00000000E+0	2.30365565E+0	5.00000000E+0	4.65227939E-1	0.00000000E+0
163	02/09/2022	15:53:38.294	0.00000000E+0	2.51342752E+0	5.00000000E+0	4.66036785E-1	0.00000000E+0
164	02/09/2022	15:53:39.778	0.00000000E+0	2.72281590E+0	5.00000000E+0	4.60966735E-1	0.00000000E+0
165	02/09/2022	15:53:41.206	0.00000000E+0	2.93220428E+0	5.00000000E+0	4.61985226E-1	0.00000000E+0
166	02/09/2022	15:53:42.631	0.00000000E+0	3.14159265E+0	5.00000000E+0	4.50751086E-1	0.00000000E+0
167	02/09/2022	15:53:44.015	0.00000000E+0	3.35098103E+0	5.00000000E+0	4.51248734E-1	0.00000000E+0
168	02/09/2022	15:53:45.411	0.00000000E+0	3.56036941E+0	5.00000000E+0	4.44655715E-1	0.00000000E+0
169	02/09/2022	15:53:46.864	0.00000000E+0	3.76975779E+0	5.00000000E+0	4.46654387E-1	0.00000000E+0
170	02/09/2022	15:53:48.253	0.00000000E+0	3.97952966E+0	5.00000000E+0	4.50471969E-1	0.00000000E+0
171	02/09/2022	15:53:49.705	0.00000000E+0	4.18891804E+0	5.00000000E+0	4.43113000E-1	0.00000000E+0
172	02/09/2022	15:53:51.171	0.00000000E+0	4.39830641E+0	5.00000000E+0	4.43637582E-1	0.00000000E+0
173	02/09/2022	15:53:52.537	0.00000000E+0	4.60769479E+0	5.00000000E+0	4.46643717E-1	0.00000000E+0
174	02/09/2022	15:53:54.059	0.00000000E+0	4.81708317E+0	5.00000000E+0	4.41656078E-1	0.00000000E+0
175	02/09/2022	15:53:55.447	0.00000000E+0	5.02647155E+0	5.00000000E+0	4.42910245E-1	0.00000000E+0
176	02/09/2022	15:53:56.898	0.00000000E+0	5.23585992E+0	5.00000000E+0	4.43180387E-1	0.00000000E+0
177	02/09/2022	15:53:58.393	0.00000000E+0	5.44524830E+0	5.00000000E+0	4.43858184E-1	0.00000000E+0
178	02/09/2022	15:53:59.791	0.00000000E+0	5.65502017E+0	5.00000000E+0	4.45949426E-1	0.00000000E+0
179	02/09/2022	15:54:01.258	0.00000000E+0	5.86440855E+0	5.00000000E+0	4.44792987E-1	0.00000000E+0
180	02/09/2022	15:54:02.689	0.00000000E+0	6.07379693E+0	5.00000000E+0	4.45495876E-1	0.00000000E+0
181	02/09/2022	15:54:04.061	0.00000000E+0	6.28318531E+0	5.00000000E+0	4.49655744E-1	0.00000000E+0
182	02/09/2022	15:54:05.535	0.00000000E+0	6.49257368E+0	5.00000000E+0	4.50057170E-1	0.00000000E+0
183	02/09/2022	15:54:06.925	0.00000000E+0	6.70196206E+0	5.00000000E+0	4.54714955E-1	0.00000000E+0
184	02/09/2022	15:54:08.356	0.00000000E+0	6.91135044E+0	5.00000000E+0	4.56799164E-1	0.00000000E+0
185	02/09/2022	15:54:09.842	0.00000000E+0	7.12112231E+0	5.00000000E+0	4.59401091E-1	0.00000000E+0
186	02/09/2022	15:54:11.241	0.00000000E+0	7.33051069E+0	5.00000000E+0	4.63510547E-1	0.00000000E+0
187	02/09/2022	15:54:12.719	0.00000000E+0	7.53989907E+0	5.00000000E+0	4.60694123E-1	0.00000000E+0
188	02/09/2022	15:54:14.109	0.00000000E+0	7.74928745E+0	5.00000000E+0	4.65511523E-1	0.00000000E+0
189	02/09/2022	15:54:15.511	0.00000000E+0	7.95867582E+0	5.00000000E+0	4.60800311E-1	0.00000000E+0
190	02/09/2022	15:54:17.016	0.00000000E+0	8.16806420E+0	5.00000000E+0	4.59187730E-1	0.00000000E+0
191	02/09/2022	15:54:18.402	0.00000000E+0	8.37745258E+0	5.00000000E+0	4.56193936E-1	0.00000000E+0
192	02/09/2022	15:54:19.844	0.00000000E+0	8.58684096E+0	5.00000000E+0	4.61216101E-1	0.00000000E+0
193	02/09/2022	15:54:21.263	0.00000000E+0	8.79661283E+0	5.00000000E+0	4.63699556E-1	0.00000000E+0
194	02/09/2022	15:54:22.651	0.00000000E+0	9.00600121E+0	5.00000000E+0	4.54300868E-1	0.00000000E+0
195	02/09/2022	15:54:24.114	0.00000000E+0	9.21538958E+0	5.00000000E+0	4.56172439E-1	0.00000000E+0
196	02/09/2022	15:54:25.516	0.00000000E+0	9.42477796E+0	5.00000000E+0	4.54201835E-1	0.00000000E+0
197	02/09/2022	15:54:26.924	0.00000000E+0	9.63416634E+0	5.00000000E+0	4.53839840E-1	0.00000000E+0
198	02/09/2022	15:54:28.458	0.00000000E+0	9.84355472E+0	5.00000000E+0	4.51379635E-1	0.00000000E+0
199	02/09/2022	15:54:29.823	0.00000000E+0	1.00529431E+1	5.00000000E+0	4.46536581E-1	0.00000000E+0
200	02/09/2022	15:54:31.366	0.00000000E+0	1.02627150E+1	5.00000000E+0	4.44831494E-1	0.00000000E+0
201	02/09/2022	15:54:32.768	0.00000000E+0	1.04721033E+1	5.00000000E+0	4.39562789E-1	0.00000000E+0
202	02/09/2022	15:54:34.176	0.00000000E+0	1.06814917E+1	5.00000000E+0	4.40066275E-1	0.00000000E+0
203	02/09/2022	15:54:35.632	0.00000000E+0	1.08908801E+1	5.00000000E+0	4.40112172E-1	0.00000000E+0
204	02/09/2022	15:54:37.026	0.00000000E+0	1.11002685E+1	5.00000000E+0	4.40141194E-1	0.00000000E+0
205	02/09/2022	15:54:38.477	0.00000000E+0	1.13096569E+1	5.00000000E+0	4.43788147E-1	0.00000000E+0
206	02/09/2022	15:54:39.987	0.00000000E+0	1.15190452E+1	5.00000000E+0	4.40958153E-1	0.00000000E+0
207	02/09/2022	15:54:41.352	0.00000000E+0	1.17284336E+1	5.00000000E+0	4.37930436E-1	0.00000000E+0
208	02/09/2022	15:54:42.894	0.00000000E+0	1.19382055E+1	5.00000000E+0	4.40823532E-1	0.00000000E+0
209	02/09/2022	15:54:44.288	0.00000000E+0	1.21475939E+1	5.00000000E+0	4.42736367E-1	0.00000000E+0
210	02/09/2022	15:54:45.677	0.00000000E+0	1.23569822E+1	5.00000000E+0	4.54028243E-1	0.00000000E+0
211	02/09/2022	15:54:47.184	0.00000000E+0	1.25663706E+1	5.00000000E+0	4.61360492E-1	0.00000000E+0
212	02/09/2022	15:54:48.575	0.00000000E+0	1.27757590E+1	5.00000000E+0	4.50575971E-1	0.00000000E+0
213	02/09/2022	15:54:49.963	0.00000000E+0	1.29851474E+1	5.00000000E+0	4.53734893E-1	0.00000000E+0
214	02/09/2022	15:54:51.488	0.00000000E+0	1.31945357E+1	5.00000000E+0	4.48162486E-1	0.00000000E+0
215	02/09/2022	15:54:52.857	0.00000000E+0	1.34043076E+1	5.00000000E+0	4.63227653E-1	0.00000000E+0
216	02/09/2022	15:54:54.384	0.00000000E+0	1.36136960E+1	5.00000000E+0	4.64233107E-1	0.00000000E+0
217	02/09/2022	15:54:55.759	0.00000000E+0	1.38230844E+1	5.00000000E+0	4.64364073E-1	0.00000000E+0
218	02/09/2022	15:54:57.154	0.00000000E+0	1.40324728E+1	5.00000000E+0	4.62636144E-1	0.00000000E+0
219	02/09/2022	15:54:58.661	0.00000000E+0	1.42418611E+1	5.00000000E+0	4.68492596E-1	0.00000000E+0
220	02/09/2022	15:55:00.036	0.00000000E+0	1.44512495E+1	5.00000000E+0	4.64517279E-1	0.00000000E+0
221	02/09/2022	15:55:01.623	0.00000000E+0	1.46606379E+1	5.00000000E+0	4.66631712E-1	0.00000000E+0
222	02/09/2022	15:55:03.013	0.00000000E+0	1.48700263E+1	5.00000000E+0	4.61587406E-1	0.00000000E+0
223	02/09/2022	15:55:04.392	0.00000000E+0	1.50797981E+1	5.00000000E+0	4.53075397E-1	0.00000000E+0
224	02/09/2022	15:55:05.873	0.00000000E+0	1.52891865E+1	5.00000000E+0	4.61865308E-1	0.00000000E+0
225	02/09/2022	15:55:07.263	0.00000000E+0	1.54985749E+1	5.00000000E+0	4.58710282E-1	0.00000000E+0
226	02/09/2022	15:55:08.705	0.00000000E+0	1.57079633E+1	5.00000000E+0	4.58720954E-1	0.00000000E+0
227	02/09/2022	15:55:10.053	0.00000000E+0	1.59173516E+1	5.00000000E+0	4.51211883E-1	0.00000000E+0
228	02/09/2022	15:55:11.425	0.00000000E+0	1.61267400E+1	5.00000000E+0	4.52073761E-1	0.00000000E+0
229	02/09/2022	15:55:12.911	0.00000000E+0	1.63361284E+1	5.00000000E+0	4.47170045E-1	0.00000000E+0
230	02/09/2022	15:55:14.303	0.00000000E+0	1.65459003E+1	5.00000000E+0	4.49671390E-1	0.00000000E+0
231	02/09/2022	15:55:15.690	0.00000000E+0	1.67552887E+1	5.00000000E+0	4.45398064E-1	0.00000000E+0
232	02/09/2022	15:55:17.264	0.00000000E+0	1.69646770E+1	5.00000000E+0	4.48802919E-1	0.00000000E+0
233	02/09/2022	15:55:18.681	0.00000000E+0	1.71740654E+1	5.00000000E+0	4.44062381E-1	0.00000000E+0
234	02/09/2022	15:55:20.112	0.00000000E+0	1.73834538E+1	5.00000000E+0	4.42673257E-1	0.00000000E+0
235	02/09/2022	15:55:21.529	0.00000000E+0	1.75928422E+1	5.00000000E+0	4.38967138E-1	0.00000000E+0
236	02/09/2022	15:55:22.910	0.00000000E+0	1.78022305E+1	5.00000000E+0	4.41205068E-1	0.00000000E+0
237	02/09/2022	15:55:24.437	0.00000000E+0	1.80116189E+1	5.00000000E+0	4.46166639E-1	0.00000000E+0
238	02/09/2022	15:55:25.845	0.00000000E+0	1.82213908E+1	5.00000000E+0	4.45858393E-1	0.00000000E+0
239	02/09/2022	15:55:27.300	0.00000000E+0	1.84307792E+1	5.00000000E+0	4.49432033E-1	0.00000000E+0
240	02/09/2022	15:55:28.801	0.00000000E+0	1.86401675E+1	5.00000000E+0	4.49585857E-1	0.00000000E+0
241	02/09/2022	15:55:30.194	0.00000000E+0	1.88495559E+1	5.00000000E+0	4.48173525E-1	0.00000000E+0
242	02/09/2022	15:55:31.681	0.00000000E+0	1.90589443E+1	5.00000000E+0	4.51423431E-1	0.00000000E+0
243	02/09/2022	15:55:33.067	0.00000000E+0	1.92683327E+1	5.00000000E+0	4.64037066E-1	0.00000000E+0
244	02/09/2022	15:55:34.445	0.00000000E+0	1.94777211E+1	5.00000000E+0	4.60712776E-1	0.00000000E+0
245	02/09/2022	15:55:35.921	0.00000000E+0	1.96874929E+1	5.00000000E+0	4.50575430E-1	0.00000000E+0
246	02/09/2022	15:55:37.308	0.00000000E+0	1.98968813E+1	5.00000000E+0	4.58113715E-1	0.00000000E+0
247	02/09/2022	15:55:38.692	0.00000000E+0	2.01062697E+1	5.00000000E+0	4.55770822E-1	0.00000000E+0
248	02/09/2022	15:55:40.142	0.00000000E+0	2.03156581E+1	5.00000000E+0	4.60294220E-1	0.00000000E+0
249	02/09/2022	15:55:41.515	0.00000000E+0	2.05250464E+1	5.00000000E+0	4.60839459E-1	0.00000000E+0
250	02/09/2022	15:55:43.036	0.00000000E+0	2.07344348E+1	5.00000000E+0	4.66459310E-1	0.00000000E+0
251	02/09/2022	15:55:44.422	0.00000000E+0	2.09438232E+1	5.00000000E+0	4.60521061E-1	0.00000000E+0
252	02/09/2022	15:55:45.823	0.00000000E+0	2.11532116E+1	5.00000000E+0	4.62389390E-1	0.00000000E+0
253	02/09/2022	15:55:47.345	0.00000000E+0	2.13629834E+1	5.00000000E+0	4.64803227E-1	0.00000000E+0
254	02/09/2022	15:55:48.759	0.00000000E+0	2.15723718E+1	5.00000000E+0	4.60924226E-1	0.00000000E+0
255	02/09/2022	15:55:50.218	0.00000000E+0	2.17817602E+1	5.00000000E+0	4.57319791E-1	0.00000000E+0
256	02/09/2022	15:55:51.609	0.00000000E+0	2.19911486E+1	5.00000000E+0	4.56168553E-1	0.00000000E+0
257	02/09/2022	15:55:52.989	0.00000000E+0	2.22005370E+1	5.00000000E+0	4.52974572E-1	0.00000000E+0
258	02/09/2022	15:55:54.469	0.00000000E+0	2.24099253E+1	5.00000000E+0	4.53421012E-1	0.00000000E+0
259	02/09/2022	15:55:55.856	0.00000000E+0	2.26193137E+1	5.00000000E+0	4.45603871E-1	0.00000000E+0
260	02/09/2022	15:55:57.239	0.00000000E+0	2.28290856E+1	5.00000000E+0	4.50692523E-1	0.00000000E+0
261	02/09/2022	15:55:58.743	0.00000000E+0	2.30384740E+1	5.00000000E+0	4.48947176E-1	0.00000000E+0
262	02/09/2022	15:56:00.125	0.00000000E+0	2.32478623E+1	5.00000000E+0	4.42628250E-1	0.00000000E+0
263	02/09/2022	15:56:01.625	0.00000000E+0	2.34572507E+1	5.00000000E+0	4.45568097E-1	0.00000000E+0
264	02/09/2022	15:56:03.020	0.00000000E+0	2.36666391E+1	5.00000000E+0	4.43480405E-1	0.00000000E+0
265	02/09/2022	15:56:04.403	0.00000000E+0	2.38760275E+1	5.00000000E+0	4.41109342E-1	0.00000000E+0
266	02/09/2022	15:56:05.872	0.00000000E+0	2.40854158E+1	5.00000000E+0	4.45169645E-1	0.00000000E+0
267	02/09/2022	15:56:07.255	0.00000000E+0	2.42948042E+1	5.00000000E+0	4.45743214E-1	0.00000000E+0
268	02/09/2022	15:56:08.776	0.00000000E+0	2.45045761E+1	5.00000000E+0	4.40317882E-1	0.00000000E+0
269	02/09/2022	15:56:10.239	0.00000000E+0	2.47139645E+1	5.00000000E+0	4.40432616E-1	0.00000000E+0
270	02/09/2022	15:56:11.606	0.00000000E+0	2.49233529E+1	5.00000000E+0	4.52118357E-1	0.00000000E+0
271	02/09/2022	15:56:13.133	0.00000000E+0	2.51327412E+1	5.00000000E+0	4.53945502E-1	0.00000000E+0
272	02/09/2022	15:56:14.529	0.00000000E+0	2.53421296E+1	5.00000000E+0	4.58696643E-1	0.00000000E+0
273	02/09/2022	15:56:16.001	0.00000000E+0	2.55515180E+1	5.00000000E+0	4.56829455E-1	0.00000000E+0
274	02/09/2022	15:56:17.507	0.00000000E+0	2.57609064E+1	5.00000000E+0	4.64885356E-1	0.00000000E+0
275	02/09/2022	15:56:18.904	0.00000000E+0	2.59706782E+1	5.00000000E+0	4.65362579E-1	0.00000000E+0
276	02/09/2022	15:56:20.325	0.00000000E+0	2.61800666E+1	5.00000000E+0	4.64366645E-1	0.00000000E+0
277	02/09/2022	15:56:21.716	0.00000000E+0	2.63894550E+1	5.00000000E+0	4.61147427E-1	0.00000000E+0
278	02/09/2022	15:56:23.104	0.00000000E+0	2.65988434E+1	5.00000000E+0	4.67047475E-1	0.00000000E+0
279	02/09/2022	15:56:24.606	0.00000000E+0	2.68082317E+1	5.00000000E+0	4.62720743E-1	0.00000000E+0
280	02/09/2022	15:56:25.999	0.00000000E+0	2.70176201E+1	5.00000000E+0	4.65746845E-1	0.00000000E+0
281	02/09/2022	15:56:27.471	0.00000000E+0	2.72270085E+1	5.00000000E+0	4.70653480E-1	0.00000000E+0
282	02/09/2022	15:56:28.857	0.00000000E+0	2.74363969E+1	5.00000000E+0	4.63769136E-1	0.00000000E+0
283	02/09/2022	15:56:30.250	0.00000000E+0	2.76461687E+1	5.00000000E+0	4.66012122E-1	0.00000000E+0
284	02/09/2022	15:56:31.753	0.00000000E+0	2.78555571E+1	5.00000000E+0	4.62265279E-1	0.00000000E+0
285	02/09/2022	15:56:33.159	0.00000000E+0	2.80649455E+1	5.00000000E+0	4.53973826E-1	0.00000000E+0
286	02/09/2022	15:56:34.613	0.00000000E+0	2.82743339E+1	5.00000000E+0	4.57591016E-1	0.00000000E+0
287	02/09/2022	15:56:36.257	0.00000000E+0	2.84837223E+1	5.00000000E+0	4.55303793E-1	0.00000000E+0
288	02/09/2022	15:56:37.659	0.00000000E+0	2.86931106E+1	5.00000000E+0	4.53902281E-1	0.00000000E+0
289	02/09/2022	15:56:39.169	0.00000000E+0	2.89024990E+1	5.00000000E+0	4.50447699E-1	0.00000000E+0
290	02/09/2022	15:56:40.583	0.00000000E+0	2.91122709E+1	5.00000000E+0	4.46699635E-1	0.00000000E+0
291	02/09/2022	15:56:41.959	0.00000000E+0	2.93216593E+1	5.00000000E+0	4.46100038E-1	0.00000000E+0
292	02/09/2022	15:56:43.503	0.00000000E+0	2.95310476E+1	5.00000000E+0	4.40796806E-1	0.00000000E+0
293	02/09/2022	15:56:44.922	0.00000000E+0	2.97404360E+1	5.00000000E+0	4.45436595E-1	0.00000000E+0
294	02/09/2022	15:56:46.360	0.00000000E+0	2.99498244E+1	5.00000000E+0	4.44379816E-1	0.00000000E+0
295	02/09/2022	15:56:47.872	0.00000000E+0	3.01592128E+1	5.00000000E+0	4.43566981E-1	0.00000000E+0
296	02/09/2022	15:56:49.253	0.00000000E+0	3.03686012E+1	5.00000000E+0	4.43643506E-1	0.00000000E+0
297	02/09/2022	15:56:50.768	0.00000000E+0	3.05779895E+1	5.00000000E+0	4.40538900E-1	0.00000000E+0
298	02/09/2022	15:56:52.149	0.00000000E+0	3.07877614E+1	5.00000000E+0	4.46993516E-1	0.00000000E+0
299	02/09/2022	15:56:53.516	0.00000000E+0	3.09971498E+1	5.00000000E+0	4.52098187E-1	0.00000000E+0
300	02/09/2022	15:56:54.984	0.00000000E+0	3.12065382E+1	5.00000000E+0	4.49539380E-1	0.00000000E+0
301	02/09/2022	15:56:56.388	0.00000000E+0	3.14159265E+1	5.00000000E+0	4.54371959E-1	0.00000000E+0
